# Time [s], Mass [Kg]
1.000000000000000000e+00,1.000000000000000000e+00
2.000000000000000000e+00,1.000000000000000000e+00
3.000000000000000000e+00,1.000000000000000000e+00
4.000000000000000000e+00,1.000000000000000000e+00
5.000000000000000000e+00,1.000000000000000000e+00
6.000000000000000000e+00,1.000000000000000000e+00
7.000000000000000000e+00,9.999999400000000316e-01
8.000000000000000000e+00,9.999993999999999827e-01
9.000000000000000000e+00,9.999972599999999989e-01
1.000000000000000000e+01,9.999889100000000086e-01
1.100000000000000000e+01,9.999620299999999462e-01
1.200000000000000000e+01,9.998886000000000163e-01
1.300000000000000000e+01,9.997158600000000117e-01
1.400000000000000000e+01,9.993608600000000175e-01
1.500000000000000000e+01,9.987217800000000034e-01
1.600000000000000000e+01,9.977201799999999565e-01
1.700000000000000000e+01,9.963460600000000333e-01
1.800000000000000000e+01,9.946522700000000050e-01
1.900000000000000000e+01,9.927210800000000335e-01
2.000000000000000000e+01,9.906275900000000023e-01
2.100000000000000000e+01,9.884260299999999555e-01
2.200000000000000000e+01,9.861804199999999465e-01
2.300000000000000000e+01,9.839315400000000489e-01
2.400000000000000000e+01,9.817023900000000358e-01
2.500000000000000000e+01,9.795238400000000345e-01
2.600000000000000000e+01,9.773982799999999527e-01
2.700000000000000000e+01,9.753045399999999976e-01
2.800000000000000000e+01,9.732177899999999715e-01
2.900000000000000000e+01,9.711016999999999566e-01
3.000000000000000000e+01,9.689225000000000199e-01
3.100000000000000000e+01,9.666717099999999618e-01
3.200000000000000000e+01,9.643648900000000301e-01
3.300000000000000000e+01,9.620329100000000189e-01
3.400000000000000000e+01,9.597127399999999531e-01
3.500000000000000000e+01,9.574347100000000221e-01
3.600000000000000000e+01,9.552138399999999807e-01
3.700000000000000000e+01,9.530488799999999872e-01
3.800000000000000000e+01,9.509241600000000183e-01
3.900000000000000000e+01,9.488151700000000410e-01
4.000000000000000000e+01,9.466965200000000413e-01
4.100000000000000000e+01,9.445509899999999792e-01
4.200000000000000000e+01,9.423734499999999459e-01
4.300000000000000000e+01,9.401724299999999479e-01
4.400000000000000000e+01,9.379641399999999463e-01
4.500000000000000000e+01,9.357689000000000146e-01
4.600000000000000000e+01,9.336026899999999573e-01
4.700000000000000000e+01,9.314743899999999854e-01
4.800000000000000000e+01,9.293827999999999534e-01
4.900000000000000000e+01,9.273190500000000336e-01
5.000000000000000000e+01,9.252694799999999775e-01
5.100000000000000000e+01,9.232199199999999717e-01
5.200000000000000000e+01,9.211602199999999740e-01
5.300000000000000000e+01,9.190864600000000495e-01
5.400000000000000000e+01,9.170023200000000374e-01
5.500000000000000000e+01,9.149154400000000242e-01
5.600000000000000000e+01,9.128361900000000473e-01
5.700000000000000000e+01,9.107733999999999552e-01
5.800000000000000000e+01,9.087328900000000154e-01
5.900000000000000000e+01,9.067156899999999631e-01
6.000000000000000000e+01,9.047179800000000327e-01
6.100000000000000000e+01,9.027327299999999832e-01
6.200000000000000000e+01,9.004498699999999856e-01
6.300000000000000000e+01,8.983191799999999949e-01
6.400000000000000000e+01,8.962194900000000075e-01
6.500000000000000000e+01,8.941453700000000504e-01
6.600000000000000000e+01,8.920924099999999468e-01
6.700000000000000000e+01,8.900605400000000111e-01
6.800000000000000000e+01,8.880518099999999970e-01
6.900000000000000000e+01,8.860660200000000097e-01
7.000000000000000000e+01,8.841006799999999721e-01
7.100000000000000000e+01,8.821511899999999740e-01
7.200000000000000000e+01,8.802108800000000288e-01
7.300000000000000000e+01,8.782733099999999737e-01
7.400000000000000000e+01,8.763326399999999960e-01
7.500000000000000000e+01,8.743856500000000143e-01
7.600000000000000000e+01,8.724313399999999996e-01
7.700000000000000000e+01,8.704716000000000120e-01
7.800000000000000000e+01,8.685092899999999894e-01
7.900000000000000000e+01,8.665475799999999840e-01
8.000000000000000000e+01,8.645895099999999500e-01
8.100000000000000000e+01,8.626367400000000130e-01
8.200000000000000000e+01,8.606893399999999694e-01
8.300000000000000000e+01,8.587453400000000237e-01
8.400000000000000000e+01,8.568023999999999640e-01
8.500000000000000000e+01,8.548575000000000479e-01
8.600000000000000000e+01,8.529079000000000521e-01
8.700000000000000000e+01,8.509516099999999694e-01
8.800000000000000000e+01,8.489881799999999812e-01
8.900000000000000000e+01,8.470183599999999702e-01
9.000000000000000000e+01,8.450432399999999733e-01
9.100000000000000000e+01,8.430646099999999921e-01
9.200000000000000000e+01,8.410840600000000222e-01
9.300000000000000000e+01,8.391020900000000227e-01
9.400000000000000000e+01,8.371189199999999886e-01
9.500000000000000000e+01,8.351334900000000339e-01
9.600000000000000000e+01,8.331442500000000306e-01
9.700000000000000000e+01,8.311494000000000382e-01
9.800000000000000000e+01,8.291470399999999463e-01
9.900000000000000000e+01,8.271359799999999929e-01
1.000000000000000000e+02,8.251154400000000333e-01
1.010000000000000000e+02,8.230856100000000231e-01
1.020000000000000000e+02,8.210468300000000053e-01
1.030000000000000000e+02,8.189996499999999680e-01
1.040000000000000000e+02,8.169447800000000370e-01
1.050000000000000000e+02,8.148824599999999752e-01
1.060000000000000000e+02,8.128122700000000034e-01
1.070000000000000000e+02,8.107334400000000274e-01
1.080000000000000000e+02,8.086448899999999496e-01
1.090000000000000000e+02,8.065451999999999622e-01
1.100000000000000000e+02,8.044331700000000307e-01
1.110000000000000000e+02,8.023079600000000422e-01
1.120000000000000000e+02,8.001687499999999842e-01
1.130000000000000000e+02,7.978174099999999491e-01
1.140000000000000000e+02,7.955472500000000391e-01
1.150000000000000000e+02,7.933071900000000509e-01
1.160000000000000000e+02,7.910784499999999886e-01
1.170000000000000000e+02,7.888507200000000052e-01
1.180000000000000000e+02,7.866175199999999590e-01
1.190000000000000000e+02,7.843737600000000310e-01
1.200000000000000000e+02,7.821160000000000334e-01
1.210000000000000000e+02,7.798411299999999935e-01
1.220000000000000000e+02,7.775466399999999556e-01
1.230000000000000000e+02,7.752308799999999556e-01
1.240000000000000000e+02,7.728924799999999928e-01
1.250000000000000000e+02,7.705304600000000281e-01
1.260000000000000000e+02,7.681441900000000045e-01
1.270000000000000000e+02,7.657327699999999515e-01
1.280000000000000000e+02,7.632954699999999759e-01
1.290000000000000000e+02,7.608312999999999882e-01
1.300000000000000000e+02,7.583392300000000308e-01
1.310000000000000000e+02,7.558182500000000248e-01
1.320000000000000000e+02,7.532671699999999859e-01
1.330000000000000000e+02,7.506852099999999917e-01
1.340000000000000000e+02,7.480714899999999501e-01
1.350000000000000000e+02,7.454256400000000005e-01
1.360000000000000000e+02,7.427473100000000494e-01
1.370000000000000000e+02,7.400363100000000305e-01
1.380000000000000000e+02,7.372929499999999470e-01
1.390000000000000000e+02,7.345175099999999846e-01
1.400000000000000000e+02,7.317106700000000075e-01
1.410000000000000000e+02,7.288731299999999802e-01
1.420000000000000000e+02,7.260057899999999842e-01
1.430000000000000000e+02,7.231098999999999721e-01
1.440000000000000000e+02,7.201872499999999455e-01
1.450000000000000000e+02,7.172396800000000461e-01
1.460000000000000000e+02,7.142693399999999748e-01
1.470000000000000000e+02,7.112787400000000204e-01
1.480000000000000000e+02,7.082703700000000380e-01
1.490000000000000000e+02,7.052471000000000156e-01
1.500000000000000000e+02,7.022117399999999732e-01
1.510000000000000000e+02,6.991669499999999537e-01
1.520000000000000000e+02,6.959499099999999494e-01
1.530000000000000000e+02,6.927923000000000275e-01
1.540000000000000000e+02,6.896704999999999641e-01
1.550000000000000000e+02,6.865738599999999803e-01
1.560000000000000000e+02,6.834968900000000236e-01
1.570000000000000000e+02,6.804368499999999820e-01
1.580000000000000000e+02,6.773926000000000114e-01
1.590000000000000000e+02,6.743639099999999553e-01
1.600000000000000000e+02,6.713511300000000181e-01
1.610000000000000000e+02,6.683546299999999496e-01
1.620000000000000000e+02,6.653751700000000158e-01
1.630000000000000000e+02,6.624136600000000152e-01
1.640000000000000000e+02,6.594709800000000399e-01
1.650000000000000000e+02,6.565481399999999468e-01
1.660000000000000000e+02,6.536460499999999785e-01
1.670000000000000000e+02,6.507657199999999920e-01
1.680000000000000000e+02,6.479082099999999844e-01
1.690000000000000000e+02,6.450744899999999449e-01
1.700000000000000000e+02,6.422655600000000131e-01
1.710000000000000000e+02,6.394824999999999537e-01
1.720000000000000000e+02,6.367262599999999884e-01
1.730000000000000000e+02,6.339979799999999610e-01
1.740000000000000000e+02,6.312987799999999483e-01
1.750000000000000000e+02,6.286300999999999695e-01
1.760000000000000000e+02,6.259931899999999771e-01
1.770000000000000000e+02,6.233895400000000198e-01
1.780000000000000000e+02,6.208206400000000347e-01
1.790000000000000000e+02,6.182882800000000234e-01
1.800000000000000000e+02,6.157943599999999851e-01
1.810000000000000000e+02,6.133408500000000485e-01
1.820000000000000000e+02,6.109300300000000128e-01
1.830000000000000000e+02,6.085641400000000312e-01
1.840000000000000000e+02,6.062457599999999669e-01
1.850000000000000000e+02,6.039777400000000407e-01
1.860000000000000000e+02,6.017630699999999555e-01
1.870000000000000000e+02,5.996051999999999493e-01
1.880000000000000000e+02,5.975074799999999797e-01
1.890000000000000000e+02,5.954737700000000133e-01
1.900000000000000000e+02,5.934439900000000323e-01
1.910000000000000000e+02,5.915102399999999649e-01
1.920000000000000000e+02,5.896702999999999806e-01
1.930000000000000000e+02,5.879243600000000347e-01
1.940000000000000000e+02,5.862739099999999537e-01
1.950000000000000000e+02,5.847215700000000238e-01
1.960000000000000000e+02,5.832703700000000380e-01
1.970000000000000000e+02,5.819237800000000016e-01
1.980000000000000000e+02,5.806850799999999646e-01
1.990000000000000000e+02,5.795569999999999888e-01
2.000000000000000000e+02,5.785417000000000476e-01
2.010000000000000000e+02,5.776400600000000107e-01
2.020000000000000000e+02,5.768513699999999744e-01
2.030000000000000000e+02,5.761733100000000496e-01
2.040000000000000000e+02,5.756013399999999613e-01
2.050000000000000000e+02,5.751289099999999932e-01
2.060000000000000000e+02,5.747476200000000146e-01
2.070000000000000000e+02,5.744473900000000022e-01
2.080000000000000000e+02,5.742171400000000148e-01
2.090000000000000000e+02,5.740454200000000284e-01
2.100000000000000000e+02,5.739210799999999724e-01
2.110000000000000000e+02,5.738338200000000500e-01
2.120000000000000000e+02,5.737746999999999709e-01
2.130000000000000000e+02,5.737361899999999792e-01
2.140000000000000000e+02,5.737122300000000452e-01
2.150000000000000000e+02,5.736981599999999570e-01
2.160000000000000000e+02,5.736905300000000318e-01
2.170000000000000000e+02,5.736867799999999518e-01
2.180000000000000000e+02,5.736851699999999665e-01
2.190000000000000000e+02,5.736846300000000287e-01
2.200000000000000000e+02,5.736845099999999809e-01
2.210000000000000000e+02,5.736844500000000124e-01
2.220000000000000000e+02,5.736844500000000124e-01
2.230000000000000000e+02,5.736844500000000124e-01
2.240000000000000000e+02,5.736844500000000124e-01
2.250000000000000000e+02,5.736844500000000124e-01
2.260000000000000000e+02,5.736844500000000124e-01
2.270000000000000000e+02,5.736844500000000124e-01
2.280000000000000000e+02,5.736844500000000124e-01
2.290000000000000000e+02,5.736844500000000124e-01
2.300000000000000000e+02,5.736844500000000124e-01
2.310000000000000000e+02,5.736844500000000124e-01
2.320000000000000000e+02,5.736844500000000124e-01
2.330000000000000000e+02,5.736844500000000124e-01
2.340000000000000000e+02,5.736844500000000124e-01
2.350000000000000000e+02,5.736844500000000124e-01
2.360000000000000000e+02,5.736844500000000124e-01
2.370000000000000000e+02,5.736844500000000124e-01
2.380000000000000000e+02,5.736844500000000124e-01
2.390000000000000000e+02,5.736844500000000124e-01
2.400000000000000000e+02,5.736844500000000124e-01
2.410000000000000000e+02,5.736844500000000124e-01
2.420000000000000000e+02,5.736844500000000124e-01
2.430000000000000000e+02,5.736844500000000124e-01
2.440000000000000000e+02,5.736844500000000124e-01
2.450000000000000000e+02,5.736844500000000124e-01
2.460000000000000000e+02,5.736844500000000124e-01
2.470000000000000000e+02,5.736844500000000124e-01
2.480000000000000000e+02,5.736844500000000124e-01
2.490000000000000000e+02,5.736844500000000124e-01
2.500000000000000000e+02,5.736844500000000124e-01
2.510000000000000000e+02,5.736844500000000124e-01
2.520000000000000000e+02,5.736844500000000124e-01
2.530000000000000000e+02,5.736844500000000124e-01
2.540000000000000000e+02,5.736844500000000124e-01
2.550000000000000000e+02,5.736844500000000124e-01
2.560000000000000000e+02,5.736844500000000124e-01
2.570000000000000000e+02,5.736844500000000124e-01
2.580000000000000000e+02,5.736844500000000124e-01
2.590000000000000000e+02,5.736844500000000124e-01
2.600000000000000000e+02,5.736844500000000124e-01
2.610000000000000000e+02,5.736844500000000124e-01
2.620000000000000000e+02,5.736844500000000124e-01
2.630000000000000000e+02,5.736844500000000124e-01
2.640000000000000000e+02,5.736844500000000124e-01
2.650000000000000000e+02,5.736844500000000124e-01
2.660000000000000000e+02,5.736844500000000124e-01
2.670000000000000000e+02,5.736844500000000124e-01
2.680000000000000000e+02,5.736844500000000124e-01
2.690000000000000000e+02,5.736844500000000124e-01
2.700000000000000000e+02,5.736844500000000124e-01
2.710000000000000000e+02,5.736844500000000124e-01
2.720000000000000000e+02,5.736844500000000124e-01
2.730000000000000000e+02,5.736844500000000124e-01
2.740000000000000000e+02,5.736844500000000124e-01
2.750000000000000000e+02,5.736844500000000124e-01
2.760000000000000000e+02,5.736844500000000124e-01
2.770000000000000000e+02,5.736844500000000124e-01
2.780000000000000000e+02,5.736844500000000124e-01
2.790000000000000000e+02,5.736844500000000124e-01
2.800000000000000000e+02,5.736844500000000124e-01
2.810000000000000000e+02,5.736844500000000124e-01
2.820000000000000000e+02,5.736844500000000124e-01
2.830000000000000000e+02,5.736844500000000124e-01
2.840000000000000000e+02,5.736844500000000124e-01
2.850000000000000000e+02,5.736844500000000124e-01
2.860000000000000000e+02,5.736844500000000124e-01
2.870000000000000000e+02,5.736844500000000124e-01
2.880000000000000000e+02,5.736844500000000124e-01
2.890000000000000000e+02,5.736844500000000124e-01
2.900000000000000000e+02,5.736844500000000124e-01
2.910000000000000000e+02,5.736844500000000124e-01
2.920000000000000000e+02,5.736844500000000124e-01
2.930000000000000000e+02,5.736844500000000124e-01
2.940000000000000000e+02,5.736844500000000124e-01
2.950000000000000000e+02,5.736844500000000124e-01
2.960000000000000000e+02,5.736844500000000124e-01
2.970000000000000000e+02,5.736844500000000124e-01
2.980000000000000000e+02,5.736844500000000124e-01
2.990000000000000000e+02,5.736844500000000124e-01
3.000000000000000000e+02,5.736844500000000124e-01
3.010000000000000000e+02,5.736844500000000124e-01
3.020000000000000000e+02,5.736844500000000124e-01
3.030000000000000000e+02,5.736844500000000124e-01
3.040000000000000000e+02,5.736844500000000124e-01
3.050000000000000000e+02,5.736844500000000124e-01
3.060000000000000000e+02,5.736844500000000124e-01
3.070000000000000000e+02,5.736844500000000124e-01
3.080000000000000000e+02,5.736844500000000124e-01
3.090000000000000000e+02,5.736844500000000124e-01
3.100000000000000000e+02,5.736844500000000124e-01
3.110000000000000000e+02,5.736844500000000124e-01
3.120000000000000000e+02,5.736844500000000124e-01
3.130000000000000000e+02,5.736844500000000124e-01
3.140000000000000000e+02,5.736844500000000124e-01
3.150000000000000000e+02,5.736844500000000124e-01
3.160000000000000000e+02,5.736844500000000124e-01
3.170000000000000000e+02,5.736844500000000124e-01
3.180000000000000000e+02,5.736844500000000124e-01
3.190000000000000000e+02,5.736844500000000124e-01
3.200000000000000000e+02,5.736844500000000124e-01
3.210000000000000000e+02,5.736844500000000124e-01
3.220000000000000000e+02,5.736844500000000124e-01
3.230000000000000000e+02,5.736844500000000124e-01
3.240000000000000000e+02,5.736844500000000124e-01
3.250000000000000000e+02,5.736844500000000124e-01
3.260000000000000000e+02,5.736844500000000124e-01
3.270000000000000000e+02,5.736844500000000124e-01
3.280000000000000000e+02,5.736844500000000124e-01
3.290000000000000000e+02,5.736844500000000124e-01
3.300000000000000000e+02,5.736844500000000124e-01
3.310000000000000000e+02,5.736844500000000124e-01
3.320000000000000000e+02,5.736844500000000124e-01
3.330000000000000000e+02,5.736844500000000124e-01
3.340000000000000000e+02,5.736844500000000124e-01
3.350000000000000000e+02,5.736844500000000124e-01
3.360000000000000000e+02,5.736844500000000124e-01
3.370000000000000000e+02,5.736844500000000124e-01
3.380000000000000000e+02,5.736844500000000124e-01
3.390000000000000000e+02,5.736844500000000124e-01
3.400000000000000000e+02,5.736844500000000124e-01
3.410000000000000000e+02,5.736844500000000124e-01
3.420000000000000000e+02,5.736844500000000124e-01
3.430000000000000000e+02,5.736844500000000124e-01
3.440000000000000000e+02,5.736844500000000124e-01
3.450000000000000000e+02,5.736844500000000124e-01
3.460000000000000000e+02,5.736844500000000124e-01
3.470000000000000000e+02,5.736844500000000124e-01
3.480000000000000000e+02,5.736844500000000124e-01
3.490000000000000000e+02,5.736844500000000124e-01
3.500000000000000000e+02,5.736844500000000124e-01
3.510000000000000000e+02,5.736844500000000124e-01
3.520000000000000000e+02,5.736844500000000124e-01
3.530000000000000000e+02,5.736844500000000124e-01
3.540000000000000000e+02,5.736844500000000124e-01
3.550000000000000000e+02,5.736844500000000124e-01
3.560000000000000000e+02,5.736844500000000124e-01
3.570000000000000000e+02,5.736844500000000124e-01
3.580000000000000000e+02,5.736844500000000124e-01
3.590000000000000000e+02,5.736844500000000124e-01
3.600000000000000000e+02,5.736844500000000124e-01
3.610000000000000000e+02,5.736844500000000124e-01
3.620000000000000000e+02,5.736844500000000124e-01
3.630000000000000000e+02,5.736844500000000124e-01
3.640000000000000000e+02,5.736844500000000124e-01
3.650000000000000000e+02,5.736844500000000124e-01
3.660000000000000000e+02,5.736844500000000124e-01
3.670000000000000000e+02,5.736844500000000124e-01
3.680000000000000000e+02,5.736844500000000124e-01
3.690000000000000000e+02,5.736844500000000124e-01
3.700000000000000000e+02,5.736844500000000124e-01
3.710000000000000000e+02,5.736844500000000124e-01
3.720000000000000000e+02,5.736844500000000124e-01
3.730000000000000000e+02,5.736844500000000124e-01
3.740000000000000000e+02,5.736844500000000124e-01
3.750000000000000000e+02,5.736844500000000124e-01
3.760000000000000000e+02,5.736844500000000124e-01
3.770000000000000000e+02,5.736844500000000124e-01
3.780000000000000000e+02,5.736844500000000124e-01
3.790000000000000000e+02,5.736844500000000124e-01
3.800000000000000000e+02,5.736844500000000124e-01
3.810000000000000000e+02,5.736844500000000124e-01
3.820000000000000000e+02,5.736844500000000124e-01
3.830000000000000000e+02,5.736844500000000124e-01
3.840000000000000000e+02,5.736844500000000124e-01
3.850000000000000000e+02,5.736844500000000124e-01
3.860000000000000000e+02,5.736844500000000124e-01
3.870000000000000000e+02,5.736844500000000124e-01
3.880000000000000000e+02,5.736844500000000124e-01
3.890000000000000000e+02,5.736844500000000124e-01
3.900000000000000000e+02,5.736844500000000124e-01
3.910000000000000000e+02,5.736844500000000124e-01
3.920000000000000000e+02,5.736844500000000124e-01
3.930000000000000000e+02,5.736844500000000124e-01
3.940000000000000000e+02,5.736844500000000124e-01
3.950000000000000000e+02,5.736844500000000124e-01
3.960000000000000000e+02,5.736844500000000124e-01
3.970000000000000000e+02,5.736844500000000124e-01
3.980000000000000000e+02,5.736844500000000124e-01
3.990000000000000000e+02,5.736844500000000124e-01
