# Time [s], Temperature [C]
1.000000000000000000e+00,2.499997300000000067e+01
2.000000000000000000e+00,9.769091799999999637e+01
3.000000000000000000e+00,1.423442400000000134e+02
4.000000000000000000e+00,1.760909100000000080e+02
5.000000000000000000e+00,2.040702400000000125e+02
6.000000000000000000e+00,2.282251100000000008e+02
7.000000000000000000e+00,2.496291799999999910e+02
8.000000000000000000e+00,2.690831299999999828e+02
9.000000000000000000e+00,2.872266500000000065e+02
1.000000000000000000e+01,3.039671900000000164e+02
1.100000000000000000e+01,3.189461400000000140e+02
1.200000000000000000e+01,3.321513100000000236e+02
1.300000000000000000e+01,3.434789700000000039e+02
1.400000000000000000e+01,3.528791800000000194e+02
1.500000000000000000e+01,3.600031999999999925e+02
1.600000000000000000e+01,3.654557500000000232e+02
1.700000000000000000e+01,3.709082900000000222e+02
1.800000000000000000e+01,3.747542399999999816e+02
1.900000000000000000e+01,3.786969300000000089e+02
2.000000000000000000e+01,3.844456799999999816e+02
2.100000000000000000e+01,3.881627500000000168e+02
2.200000000000000000e+01,3.926890300000000025e+02
2.300000000000000000e+01,3.994936500000000024e+02
2.400000000000000000e+01,4.043487499999999955e+02
2.500000000000000000e+01,4.097636999999999716e+02
2.600000000000000000e+01,4.171323899999999867e+02
2.700000000000000000e+01,4.227247300000000223e+02
2.800000000000000000e+01,4.277681900000000041e+02
2.900000000000000000e+01,4.332124900000000025e+02
3.000000000000000000e+01,4.372335199999999986e+02
3.100000000000000000e+01,4.406618000000000279e+02
3.200000000000000000e+01,4.442385899999999879e+02
3.300000000000000000e+01,4.477067000000000121e+02
3.400000000000000000e+01,4.513538800000000037e+02
3.500000000000000000e+01,4.552306199999999876e+02
3.600000000000000000e+01,4.591341899999999896e+02
3.700000000000000000e+01,4.629269699999999830e+02
3.800000000000000000e+01,4.664907499999999914e+02
3.900000000000000000e+01,4.697653500000000122e+02
4.000000000000000000e+01,4.727835099999999784e+02
4.100000000000000000e+01,4.756358299999999986e+02
4.200000000000000000e+01,4.784236099999999965e+02
4.300000000000000000e+01,4.812280900000000088e+02
4.400000000000000000e+01,4.840892000000000053e+02
4.500000000000000000e+01,4.869922500000000127e+02
4.600000000000000000e+01,4.898985599999999749e+02
4.700000000000000000e+01,4.927503699999999753e+02
4.800000000000000000e+01,4.955103100000000040e+02
4.900000000000000000e+01,4.981391899999999850e+02
5.000000000000000000e+01,5.006609500000000139e+02
5.100000000000000000e+01,5.030803799999999910e+02
5.200000000000000000e+01,5.054481499999999983e+02
5.300000000000000000e+01,5.077796900000000164e+02
5.400000000000000000e+01,5.101069299999999771e+02
5.500000000000000000e+01,5.124381100000000515e+02
5.600000000000000000e+01,5.137123400000000402e+02
5.700000000000000000e+01,5.135828199999999697e+02
5.800000000000000000e+01,5.154251100000000179e+02
5.900000000000000000e+01,5.172152099999999564e+02
6.000000000000000000e+01,5.191329299999999876e+02
6.100000000000000000e+01,5.210674999999999955e+02
6.200000000000000000e+01,5.230092799999999897e+02
6.300000000000000000e+01,5.249632000000000289e+02
6.400000000000000000e+01,5.269217499999999745e+02
6.500000000000000000e+01,5.288925199999999904e+02
6.600000000000000000e+01,5.308602899999999636e+02
6.700000000000000000e+01,5.328210400000000391e+02
6.800000000000000000e+01,5.347587899999999763e+02
6.900000000000000000e+01,5.366696799999999712e+02
7.000000000000000000e+01,5.385446200000000090e+02
7.100000000000000000e+01,5.403833600000000388e+02
7.200000000000000000e+01,5.421850600000000213e+02
7.300000000000000000e+01,5.439580700000000206e+02
7.400000000000000000e+01,5.457023900000000367e+02
7.500000000000000000e+01,5.474273100000000341e+02
7.600000000000000000e+01,5.491343399999999519e+02
7.700000000000000000e+01,5.508216599999999517e+02
7.800000000000000000e+01,5.524976199999999835e+02
7.900000000000000000e+01,5.541516100000000051e+02
8.000000000000000000e+01,5.557849099999999680e+02
8.100000000000000000e+01,5.573973999999999478e+02
8.200000000000000000e+01,5.589815099999999575e+02
8.300000000000000000e+01,5.605453499999999849e+02
8.400000000000000000e+01,5.620815999999999804e+02
8.500000000000000000e+01,5.635989399999999705e+02
8.600000000000000000e+01,5.650999799999999595e+02
8.700000000000000000e+01,5.665841699999999719e+02
8.800000000000000000e+01,5.680507800000000316e+02
8.900000000000000000e+01,5.695042700000000195e+02
9.000000000000000000e+01,5.709435999999999467e+02
9.100000000000000000e+01,5.723703600000000051e+02
9.200000000000000000e+01,5.737795999999999594e+02
9.300000000000000000e+01,5.751749300000000176e+02
9.400000000000000000e+01,5.765510299999999688e+02
9.500000000000000000e+01,5.779142500000000382e+02
9.600000000000000000e+01,5.792612900000000309e+02
9.700000000000000000e+01,5.805941800000000512e+02
9.800000000000000000e+01,5.819103400000000192e+02
9.900000000000000000e+01,5.832155800000000454e+02
1.000000000000000000e+02,5.845111100000000306e+02
1.010000000000000000e+02,5.857932100000000446e+02
1.020000000000000000e+02,5.870598099999999704e+02
1.030000000000000000e+02,5.883203700000000254e+02
1.040000000000000000e+02,5.895664699999999812e+02
1.050000000000000000e+02,5.907552500000000464e+02
1.060000000000000000e+02,5.918621200000000044e+02
1.070000000000000000e+02,5.929819899999999961e+02
1.080000000000000000e+02,5.941378200000000334e+02
1.090000000000000000e+02,5.952882700000000114e+02
1.100000000000000000e+02,5.964315800000000536e+02
1.110000000000000000e+02,5.975639599999999518e+02
1.120000000000000000e+02,5.986933599999999842e+02
1.130000000000000000e+02,5.998184199999999464e+02
1.140000000000000000e+02,6.009371300000000247e+02
1.150000000000000000e+02,6.020495600000000422e+02
1.160000000000000000e+02,6.031557599999999866e+02
1.170000000000000000e+02,6.042541499999999814e+02
1.180000000000000000e+02,6.053461300000000165e+02
1.190000000000000000e+02,6.064312700000000405e+02
1.200000000000000000e+02,6.075110499999999547e+02
1.210000000000000000e+02,6.085806300000000419e+02
1.220000000000000000e+02,6.096439800000000560e+02
1.230000000000000000e+02,6.107010500000000093e+02
1.240000000000000000e+02,6.117489000000000487e+02
1.250000000000000000e+02,6.127907099999999900e+02
1.260000000000000000e+02,6.138254399999999578e+02
1.270000000000000000e+02,6.148493700000000217e+02
1.280000000000000000e+02,6.158701200000000426e+02
1.290000000000000000e+02,6.168796399999999949e+02
1.300000000000000000e+02,6.178842799999999897e+02
1.310000000000000000e+02,6.188812900000000354e+02
1.320000000000000000e+02,6.198677999999999884e+02
1.330000000000000000e+02,6.208491199999999708e+02
1.340000000000000000e+02,6.218229999999999791e+02
1.350000000000000000e+02,6.227900399999999763e+02
1.360000000000000000e+02,6.237495099999999866e+02
1.370000000000000000e+02,6.246992199999999684e+02
1.380000000000000000e+02,6.256439199999999801e+02
1.390000000000000000e+02,6.265835600000000341e+02
1.400000000000000000e+02,6.275123300000000199e+02
1.410000000000000000e+02,6.284383500000000140e+02
1.420000000000000000e+02,6.293541300000000547e+02
1.430000000000000000e+02,6.302610499999999547e+02
1.440000000000000000e+02,6.311663200000000415e+02
1.450000000000000000e+02,6.320590799999999945e+02
1.460000000000000000e+02,6.329424999999999955e+02
1.470000000000000000e+02,6.338137799999999515e+02
1.480000000000000000e+02,6.346761500000000069e+02
1.490000000000000000e+02,6.355294800000000350e+02
1.500000000000000000e+02,6.363773800000000165e+02
1.510000000000000000e+02,6.372148999999999432e+02
1.520000000000000000e+02,6.380494999999999663e+02
1.530000000000000000e+02,6.388760999999999513e+02
1.540000000000000000e+02,6.396957400000000007e+02
1.550000000000000000e+02,6.405125699999999824e+02
1.560000000000000000e+02,6.413236699999999928e+02
1.570000000000000000e+02,6.421263400000000274e+02
1.580000000000000000e+02,6.429268799999999828e+02
1.590000000000000000e+02,6.437218000000000302e+02
1.600000000000000000e+02,6.445118999999999687e+02
1.610000000000000000e+02,6.452946200000000090e+02
1.620000000000000000e+02,6.460736699999999928e+02
1.630000000000000000e+02,6.468475300000000061e+02
1.640000000000000000e+02,6.476174899999999752e+02
1.650000000000000000e+02,6.483815299999999979e+02
1.660000000000000000e+02,6.491423999999999523e+02
1.670000000000000000e+02,6.498938000000000557e+02
1.680000000000000000e+02,6.506432499999999663e+02
1.690000000000000000e+02,6.513873300000000199e+02
1.700000000000000000e+02,6.521276900000000296e+02
1.710000000000000000e+02,6.528626699999999801e+02
1.720000000000000000e+02,6.535927100000000110e+02
1.730000000000000000e+02,6.543197599999999738e+02
1.740000000000000000e+02,6.550438199999999824e+02
1.750000000000000000e+02,6.557606200000000172e+02
1.760000000000000000e+02,6.564742400000000089e+02
1.770000000000000000e+02,6.571839599999999564e+02
1.780000000000000000e+02,6.578890999999999849e+02
1.790000000000000000e+02,6.585930200000000241e+02
1.800000000000000000e+02,6.592915000000000418e+02
1.810000000000000000e+02,6.599876100000000179e+02
1.820000000000000000e+02,6.606814600000000155e+02
1.830000000000000000e+02,6.613731699999999591e+02
1.840000000000000000e+02,6.620533400000000483e+02
1.850000000000000000e+02,6.627289399999999659e+02
1.860000000000000000e+02,6.634131499999999733e+02
1.870000000000000000e+02,6.640927699999999732e+02
1.880000000000000000e+02,6.647725199999999859e+02
1.890000000000000000e+02,6.654493999999999687e+02
1.900000000000000000e+02,6.661265300000000025e+02
1.910000000000000000e+02,6.668024900000000343e+02
1.920000000000000000e+02,6.674789399999999659e+02
1.930000000000000000e+02,6.681574100000000271e+02
1.940000000000000000e+02,6.688355699999999615e+02
1.950000000000000000e+02,6.695148900000000367e+02
1.960000000000000000e+02,6.701997699999999440e+02
1.970000000000000000e+02,6.708845800000000281e+02
1.980000000000000000e+02,6.715728800000000547e+02
1.990000000000000000e+02,6.722649499999999989e+02
2.000000000000000000e+02,6.729632599999999911e+02
2.010000000000000000e+02,6.736636399999999867e+02
2.020000000000000000e+02,6.743706700000000183e+02
2.030000000000000000e+02,6.750833699999999453e+02
2.040000000000000000e+02,6.758032799999999725e+02
2.050000000000000000e+02,6.765284400000000460e+02
2.060000000000000000e+02,6.772587899999999763e+02
2.070000000000000000e+02,6.779971900000000460e+02
2.080000000000000000e+02,6.787437099999999646e+02
2.090000000000000000e+02,6.794976199999999835e+02
2.100000000000000000e+02,6.802593399999999519e+02
2.110000000000000000e+02,6.810261199999999917e+02
2.120000000000000000e+02,6.818008399999999938e+02
2.130000000000000000e+02,6.825792199999999639e+02
2.140000000000000000e+02,6.833651099999999587e+02
2.150000000000000000e+02,6.841579600000000028e+02
2.160000000000000000e+02,6.849551999999999907e+02
2.170000000000000000e+02,6.857556799999999839e+02
2.180000000000000000e+02,6.865634800000000268e+02
2.190000000000000000e+02,6.873753100000000131e+02
2.200000000000000000e+02,6.881890899999999647e+02
2.210000000000000000e+02,6.890082400000000007e+02
2.220000000000000000e+02,6.898308100000000422e+02
2.230000000000000000e+02,6.906541700000000219e+02
2.240000000000000000e+02,6.914819300000000339e+02
2.250000000000000000e+02,6.923122600000000375e+02
2.260000000000000000e+02,6.931409899999999880e+02
2.270000000000000000e+02,6.939745500000000220e+02
2.280000000000000000e+02,6.948086499999999432e+02
2.290000000000000000e+02,6.956418499999999767e+02
2.300000000000000000e+02,6.964772900000000391e+02
2.310000000000000000e+02,6.973108499999999594e+02
2.320000000000000000e+02,6.981461199999999963e+02
2.330000000000000000e+02,6.989814499999999953e+02
2.340000000000000000e+02,6.998141500000000406e+02
2.350000000000000000e+02,7.006477099999999609e+02
2.360000000000000000e+02,7.014806499999999687e+02
2.370000000000000000e+02,7.023089599999999564e+02
2.380000000000000000e+02,7.031394000000000233e+02
2.390000000000000000e+02,7.039660599999999704e+02
2.400000000000000000e+02,7.047925999999999931e+02
2.410000000000000000e+02,7.056173099999999749e+02
2.420000000000000000e+02,7.064384199999999510e+02
2.430000000000000000e+02,7.072587300000000141e+02
2.440000000000000000e+02,7.080768399999999474e+02
2.450000000000000000e+02,7.088916600000000017e+02
2.460000000000000000e+02,7.097047700000000532e+02
2.470000000000000000e+02,7.105148299999999608e+02
2.480000000000000000e+02,7.113219599999999900e+02
2.490000000000000000e+02,7.121270799999999781e+02
2.500000000000000000e+02,7.129291399999999612e+02
2.510000000000000000e+02,7.137291300000000547e+02
2.520000000000000000e+02,7.145233200000000124e+02
2.530000000000000000e+02,7.153158600000000433e+02
2.540000000000000000e+02,7.161057100000000446e+02
2.550000000000000000e+02,7.168902600000000120e+02
2.560000000000000000e+02,7.176727300000000014e+02
2.570000000000000000e+02,7.184524499999999989e+02
2.580000000000000000e+02,7.192283899999999903e+02
2.590000000000000000e+02,7.200007900000000518e+02
2.600000000000000000e+02,7.207694699999999557e+02
2.610000000000000000e+02,7.215347900000000436e+02
2.620000000000000000e+02,7.222965100000000120e+02
2.630000000000000000e+02,7.230555399999999509e+02
2.640000000000000000e+02,7.238099399999999832e+02
2.650000000000000000e+02,7.245618299999999863e+02
2.660000000000000000e+02,7.253074299999999539e+02
2.670000000000000000e+02,7.260510299999999688e+02
2.680000000000000000e+02,7.267904099999999517e+02
2.690000000000000000e+02,7.275267300000000432e+02
2.700000000000000000e+02,7.282589699999999766e+02
2.710000000000000000e+02,7.289870600000000422e+02
2.720000000000000000e+02,7.297128900000000158e+02
2.730000000000000000e+02,7.304332299999999805e+02
2.740000000000000000e+02,7.311499599999999646e+02
2.750000000000000000e+02,7.318633999999999560e+02
2.760000000000000000e+02,7.325726899999999659e+02
2.770000000000000000e+02,7.332790499999999838e+02
2.780000000000000000e+02,7.339806499999999687e+02
2.790000000000000000e+02,7.346780999999999722e+02
2.800000000000000000e+02,7.353717699999999695e+02
2.810000000000000000e+02,7.360633500000000140e+02
2.820000000000000000e+02,7.367485400000000482e+02
2.830000000000000000e+02,7.374301799999999503e+02
2.840000000000000000e+02,7.381090100000000120e+02
2.850000000000000000e+02,7.387844199999999546e+02
2.860000000000000000e+02,7.394545900000000529e+02
2.870000000000000000e+02,7.401220700000000079e+02
2.880000000000000000e+02,7.407859499999999571e+02
2.890000000000000000e+02,7.414442099999999982e+02
2.900000000000000000e+02,7.420998499999999467e+02
2.910000000000000000e+02,7.427520799999999781e+02
2.920000000000000000e+02,7.434005100000000539e+02
2.930000000000000000e+02,7.440453499999999849e+02
2.940000000000000000e+02,7.446864600000000110e+02
2.950000000000000000e+02,7.453224500000000035e+02
2.960000000000000000e+02,7.459568500000000313e+02
2.970000000000000000e+02,7.465864900000000262e+02
2.980000000000000000e+02,7.472119099999999889e+02
2.990000000000000000e+02,7.478349600000000237e+02
3.000000000000000000e+02,7.484522699999999986e+02
3.010000000000000000e+02,7.490670199999999568e+02
3.020000000000000000e+02,7.496784699999999475e+02
3.030000000000000000e+02,7.502861900000000333e+02
3.040000000000000000e+02,7.508885500000000093e+02
3.050000000000000000e+02,7.514896199999999453e+02
3.060000000000000000e+02,7.520860599999999749e+02
3.070000000000000000e+02,7.526792000000000371e+02
3.080000000000000000e+02,7.532682499999999663e+02
3.090000000000000000e+02,7.538555300000000443e+02
3.100000000000000000e+02,7.544364000000000487e+02
3.110000000000000000e+02,7.550158699999999499e+02
3.120000000000000000e+02,7.555906999999999698e+02
3.130000000000000000e+02,7.561622899999999845e+02
3.140000000000000000e+02,7.567295500000000175e+02
3.150000000000000000e+02,7.572955899999999474e+02
3.160000000000000000e+02,7.578563799999999446e+02
3.170000000000000000e+02,7.584144900000000007e+02
3.180000000000000000e+02,7.589686299999999619e+02
3.190000000000000000e+02,7.595181300000000419e+02
3.200000000000000000e+02,7.600674400000000333e+02
3.210000000000000000e+02,7.606108400000000529e+02
3.220000000000000000e+02,7.611513700000000426e+02
3.230000000000000000e+02,7.616895799999999781e+02
3.240000000000000000e+02,7.622241800000000467e+02
3.250000000000000000e+02,7.627534799999999677e+02
3.260000000000000000e+02,7.632821699999999510e+02
3.270000000000000000e+02,7.638054799999999886e+02
3.280000000000000000e+02,7.643258700000000090e+02
3.290000000000000000e+02,7.648435100000000375e+02
3.300000000000000000e+02,7.653580899999999474e+02
3.310000000000000000e+02,7.658679799999999886e+02
3.320000000000000000e+02,7.663770799999999781e+02
3.330000000000000000e+02,7.668809800000000223e+02
3.340000000000000000e+02,7.673823200000000497e+02
3.350000000000000000e+02,7.678799400000000333e+02
3.360000000000000000e+02,7.683757900000000518e+02
3.370000000000000000e+02,7.688676799999999503e+02
3.380000000000000000e+02,7.693564499999999953e+02
3.390000000000000000e+02,7.698414900000000216e+02
3.400000000000000000e+02,7.703236699999999928e+02
3.410000000000000000e+02,7.708037100000000237e+02
3.420000000000000000e+02,7.712803999999999860e+02
3.430000000000000000e+02,7.717529899999999543e+02
3.440000000000000000e+02,7.722233300000000327e+02
3.450000000000000000e+02,7.726913500000000568e+02
3.460000000000000000e+02,7.731545999999999594e+02
3.470000000000000000e+02,7.736164599999999609e+02
3.480000000000000000e+02,7.740747699999999440e+02
3.490000000000000000e+02,7.745293000000000347e+02
3.500000000000000000e+02,7.749816299999999956e+02
3.510000000000000000e+02,7.754316999999999780e+02
3.520000000000000000e+02,7.758781699999999546e+02
3.530000000000000000e+02,7.763219599999999900e+02
3.540000000000000000e+02,7.767626999999999953e+02
3.550000000000000000e+02,7.772004399999999578e+02
3.560000000000000000e+02,7.776352500000000418e+02
3.570000000000000000e+02,7.780673199999999952e+02
3.580000000000000000e+02,7.784968300000000454e+02
3.590000000000000000e+02,7.789234000000000151e+02
3.600000000000000000e+02,7.793477199999999812e+02
3.610000000000000000e+02,7.797679399999999532e+02
3.620000000000000000e+02,7.801865800000000490e+02
3.630000000000000000e+02,7.806019300000000385e+02
3.640000000000000000e+02,7.810147100000000364e+02
3.650000000000000000e+02,7.814252900000000182e+02
3.660000000000000000e+02,7.818317899999999554e+02
3.670000000000000000e+02,7.822365700000000288e+02
3.680000000000000000e+02,7.826389799999999468e+02
3.690000000000000000e+02,7.830382100000000491e+02
3.700000000000000000e+02,7.834349399999999832e+02
3.710000000000000000e+02,7.838295299999999770e+02
3.720000000000000000e+02,7.842208900000000540e+02
3.730000000000000000e+02,7.846087599999999611e+02
3.740000000000000000e+02,7.849954800000000432e+02
3.750000000000000000e+02,7.853791499999999814e+02
3.760000000000000000e+02,7.857601300000000037e+02
3.770000000000000000e+02,7.861389199999999846e+02
3.780000000000000000e+02,7.865149499999999989e+02
3.790000000000000000e+02,7.868884900000000471e+02
3.800000000000000000e+02,7.872601899999999659e+02
3.810000000000000000e+02,7.876290299999999434e+02
3.820000000000000000e+02,7.879943799999999783e+02
3.830000000000000000e+02,7.883585799999999608e+02
3.840000000000000000e+02,7.887197300000000268e+02
3.850000000000000000e+02,7.890785499999999502e+02
3.860000000000000000e+02,7.894354200000000219e+02
3.870000000000000000e+02,7.897893100000000004e+02
3.880000000000000000e+02,7.901406200000000126e+02
3.890000000000000000e+02,7.904902299999999968e+02
3.900000000000000000e+02,7.908370999999999640e+02
3.910000000000000000e+02,7.911818799999999783e+02
3.920000000000000000e+02,7.915238000000000511e+02
3.930000000000000000e+02,7.918637099999999691e+02
3.940000000000000000e+02,7.922011700000000474e+02
3.950000000000000000e+02,7.925369899999999461e+02
3.960000000000000000e+02,7.928698699999999917e+02
3.970000000000000000e+02,7.932003200000000334e+02
3.980000000000000000e+02,7.935294800000000350e+02
3.990000000000000000e+02,7.938551599999999553e+02
