# Time [s], Convective Heat Transfer Coefficient [W/m2K]
0.000000000000000000e+00,0.000000000000000000e+00
1.000000000000000000e+00,0.000000000000000000e+00
2.000000000000000000e+00,0.000000000000000000e+00
3.000000000000000000e+00,0.000000000000000000e+00
4.000000000000000000e+00,0.000000000000000000e+00
5.000000000000000000e+00,2.412849599104084641e-02
6.000000000000000000e+00,3.908348017778424249e-02
7.000000000000000000e+00,6.173553112719559754e-02
8.000000000000000000e+00,9.299410422420158195e-02
9.000000000000000000e+00,1.323401329058311038e-01
1.000000000000000000e+01,1.801558354165325448e-01
1.100000000000000000e+01,2.361076808231837576e-01
1.200000000000000000e+01,2.995003951117407026e-01
1.300000000000000000e+01,3.696094623490332465e-01
1.400000000000000000e+01,4.454853374123157739e-01
1.500000000000000000e+01,5.262341153129957982e-01
1.600000000000000000e+01,6.109967055948353210e-01
1.700000000000000000e+01,6.989748487412621447e-01
1.800000000000000000e+01,7.894695164754660377e-01
1.900000000000000000e+01,8.818650015872371295e-01
2.000000000000000000e+01,9.756281631122042386e-01
2.100000000000000000e+01,1.070304179529508293e+00
2.200000000000000000e+01,1.165511198223910805e+00
2.300000000000000000e+01,1.260919321207364829e+00
2.400000000000000000e+01,1.356261237196645153e+00
2.500000000000000000e+01,1.451308352178484862e+00
2.600000000000000000e+01,1.545872863178535672e+00
2.700000000000000000e+01,1.639799237070169502e+00
2.800000000000000000e+01,1.732958659936153278e+00
2.900000000000000000e+01,1.825248922425128484e+00
3.000000000000000000e+01,1.916586297887671542e+00
3.100000000000000000e+01,2.006904097396355446e+00
3.200000000000000000e+01,2.096150353140361577e+00
3.300000000000000000e+01,2.184284298626972820e+00
3.400000000000000000e+01,2.271276090636613176e+00
3.500000000000000000e+01,2.357104131794986568e+00
3.600000000000000000e+01,2.441753942468003480e+00
3.700000000000000000e+01,2.525218542488794071e+00
3.800000000000000000e+01,2.607494748623593761e+00
3.900000000000000000e+01,2.688584064030633325e+00
4.000000000000000000e+01,2.768492294699385514e+00
4.100000000000000000e+01,2.847226208395547076e+00
4.200000000000000000e+01,2.924795587734566826e+00
4.300000000000000000e+01,3.001214538295961631e+00
4.400000000000000000e+01,3.076495481755375128e+00
4.500000000000000000e+01,3.150654600418656859e+00
4.600000000000000000e+01,3.223706945825385084e+00
4.700000000000000000e+01,3.295670894811455476e+00
4.800000000000000000e+01,3.366565831522426500e+00
4.900000000000000000e+01,3.436406921826785865e+00
5.000000000000000000e+01,3.505214647503029468e+00
5.100000000000000000e+01,3.573008002828729879e+00
5.200000000000000000e+01,3.639804300172199358e+00
5.300000000000000000e+01,3.705623550084840900e+00
5.400000000000000000e+01,3.770484630225841016e+00
5.500000000000000000e+01,3.834406121895262309e+00
5.600000000000000000e+01,3.897407381721962327e+00
5.700000000000000000e+01,3.959506435406609626e+00
5.800000000000000000e+01,4.020720722743741149e+00
5.900000000000000000e+01,4.081068141067521360e+00
6.000000000000000000e+01,4.140566687751428887e+00
6.100000000000000000e+01,4.199233769858826903e+00
6.200000000000000000e+01,4.257086664700209688e+00
6.300000000000000000e+01,4.314142472608876844e+00
6.400000000000000000e+01,4.370416426907556051e+00
6.500000000000000000e+01,4.425924644012886766e+00
6.600000000000000000e+01,4.480683210701398522e+00
6.700000000000000000e+01,4.534707632697267954e+00
6.800000000000000000e+01,4.588012029317606100e+00
6.900000000000000000e+01,4.640612407840348119e+00
7.000000000000000000e+01,4.692521426959134878e+00
7.100000000000000000e+01,4.743753826719277811e+00
7.200000000000000000e+01,4.794323993968746755e+00
7.300000000000000000e+01,4.844244080329320745e+00
7.400000000000000000e+01,4.893527872073759610e+00
7.500000000000000000e+01,4.942187159944930741e+00
7.600000000000000000e+01,4.990234875346117427e+00
7.700000000000000000e+01,5.037682476838959644e+00
7.800000000000000000e+01,5.084542652752729985e+00
7.900000000000000000e+01,5.130827063580138514e+00
8.000000000000000000e+01,5.176545285884242453e+00
8.100000000000000000e+01,5.221709876070227629e+00
8.200000000000000000e+01,5.266330242045439647e+00
8.300000000000000000e+01,5.310417919010219201e+00
8.400000000000000000e+01,5.353982101070415389e+00
8.500000000000000000e+01,5.397032915799734987e+00
8.600000000000000000e+01,5.439580039466270556e+00
8.700000000000000000e+01,5.481633154866194069e+00
8.800000000000000000e+01,5.523200948375552422e+00
8.900000000000000000e+01,5.564292502451636757e+00
9.000000000000000000e+01,5.604917002084210509e+00
9.100000000000000000e+01,5.645082622172820308e+00
9.200000000000000000e+01,5.684797138416396223e+00
9.300000000000000000e+01,5.724069059257314684e+00
9.400000000000000000e+01,5.762906481298421646e+00
9.500000000000000000e+01,5.801316766774241351e+00
9.600000000000000000e+01,5.839308099982505773e+00
9.700000000000000000e+01,5.876887433340145073e+00
9.800000000000000000e+01,5.914061400224627896e+00
9.900000000000000000e+01,5.950837390964922591e+00
1.000000000000000000e+02,5.987222689215775162e+00
1.010000000000000000e+02,6.023223703208572921e+00
1.020000000000000000e+02,6.058846622404540305e+00
1.030000000000000000e+02,6.094098091239109394e+00
1.040000000000000000e+02,6.128983936078888028e+00
1.050000000000000000e+02,6.163511182742961836e+00
1.060000000000000000e+02,6.197684942446983314e+00
1.070000000000000000e+02,6.231511228769944566e+00
1.080000000000000000e+02,6.264995149320491841e+00
1.090000000000000000e+02,6.298143166606083199e+00
1.100000000000000000e+02,6.330960603554082411e+00
1.110000000000000000e+02,6.363452540339695318e+00
1.120000000000000000e+02,6.395624084127783604e+00
1.130000000000000000e+02,6.427479602667981240e+00
1.140000000000000000e+02,6.459025510214556398e+00
1.150000000000000000e+02,6.490265972840544961e+00
1.160000000000000000e+02,6.521206071179751262e+00
1.170000000000000000e+02,6.551849603347612572e+00
1.180000000000000000e+02,6.582201305852974471e+00
1.190000000000000000e+02,6.612266543181059220e+00
1.200000000000000000e+02,6.642049422680603499e+00
1.210000000000000000e+02,6.671553902740287256e+00
1.220000000000000000e+02,6.700784060194513003e+00
1.230000000000000000e+02,6.729744085438319701e+00
1.240000000000000000e+02,6.758438790479418756e+00
1.250000000000000000e+02,6.786871041960442774e+00
1.260000000000000000e+02,6.815045370686193316e+00
1.270000000000000000e+02,6.842965153920173016e+00
1.280000000000000000e+02,6.870634398247204899e+00
1.290000000000000000e+02,6.898056484765355378e+00
1.300000000000000000e+02,6.925235658592346688e+00
1.310000000000000000e+02,6.952174815966825960e+00
1.320000000000000000e+02,6.978877238832503771e+00
1.330000000000000000e+02,7.005347296054045714e+00
1.340000000000000000e+02,7.031587325422742119e+00
1.350000000000000000e+02,7.057600999342628967e+00
1.360000000000000000e+02,7.083390943295249542e+00
1.370000000000000000e+02,7.108961321909631259e+00
1.380000000000000000e+02,7.134314794705042928e+00
1.390000000000000000e+02,7.159453483090551629e+00
1.400000000000000000e+02,7.184381483967464455e+00
1.410000000000000000e+02,7.209101648804670859e+00
1.420000000000000000e+02,7.233616073958998527e+00
1.430000000000000000e+02,7.257928126258462953e+00
1.440000000000000000e+02,7.282040414355875235e+00
1.450000000000000000e+02,7.305955471970708714e+00
1.460000000000000000e+02,7.329676196398892785e+00
1.470000000000000000e+02,7.353205187694211276e+00
1.480000000000000000e+02,7.376544543344386362e+00
1.490000000000000000e+02,7.399697157028365169e+00
1.500000000000000000e+02,7.422665631878049730e+00
1.510000000000000000e+02,7.445451867460990414e+00
1.520000000000000000e+02,7.468058550643280391e+00
1.530000000000000000e+02,7.490488297667072359e+00
1.540000000000000000e+02,7.512742412225933641e+00
1.550000000000000000e+02,7.534823810887082196e+00
1.560000000000000000e+02,7.556735131465432076e+00
1.570000000000000000e+02,7.578477518568703886e+00
1.580000000000000000e+02,7.600053503623335871e+00
1.590000000000000000e+02,7.621465756807517700e+00
1.600000000000000000e+02,7.642715480318725163e+00
1.610000000000000000e+02,7.663805239419994919e+00
1.620000000000000000e+02,7.684736348517366977e+00
1.630000000000000000e+02,7.705511665398790733e+00
1.640000000000000000e+02,7.726132020314391724e+00
1.650000000000000000e+02,7.746599976254681330e+00
1.660000000000000000e+02,7.766916872912614345e+00
1.670000000000000000e+02,7.787085561366068553e+00
1.680000000000000000e+02,7.807106716398267032e+00
1.690000000000000000e+02,7.826982331650868652e+00
1.700000000000000000e+02,7.846714355596776436e+00
1.710000000000000000e+02,7.866304314582068358e+00
1.720000000000000000e+02,7.885753511732302989e+00
1.730000000000000000e+02,7.905064343849694808e+00
1.740000000000000000e+02,7.924238038051155897e+00
1.750000000000000000e+02,7.943275607778908842e+00
1.760000000000000000e+02,7.962179519810131723e+00
1.770000000000000000e+02,7.980950535903396315e+00
1.780000000000000000e+02,7.999590313820011289e+00
1.790000000000000000e+02,8.018100840431920062e+00
1.800000000000000000e+02,8.036482974413544866e+00
1.810000000000000000e+02,8.054738095923907437e+00
1.820000000000000000e+02,8.072867915332404110e+00
1.830000000000000000e+02,8.090873393106502220e+00
1.840000000000000000e+02,8.108756536886938093e+00
1.850000000000000000e+02,8.126517719859883471e+00
1.860000000000000000e+02,8.144159246181375877e+00
1.870000000000000000e+02,8.161681443426191507e+00
1.880000000000000000e+02,8.179086379622564351e+00
1.890000000000000000e+02,8.196374690085445280e+00
1.900000000000000000e+02,8.213548383944038633e+00
1.910000000000000000e+02,8.230607532501348800e+00
1.920000000000000000e+02,8.247554095301817156e+00
1.930000000000000000e+02,8.264388796586601416e+00
1.940000000000000000e+02,8.281113028180163482e+00
1.950000000000000000e+02,8.297727986097031661e+00
1.960000000000000000e+02,8.314234674591103769e+00
1.970000000000000000e+02,8.330633910057441582e+00
1.980000000000000000e+02,8.346926828847127666e+00
1.990000000000000000e+02,8.363115048513224181e+00
2.000000000000000000e+02,8.379198824713558480e+00
2.010000000000000000e+02,8.395179568700068984e+00
2.020000000000000000e+02,8.411058170837240056e+00
2.030000000000000000e+02,8.426835669901805659e+00
2.040000000000000000e+02,8.442513086175637227e+00
2.050000000000000000e+02,8.458091258262058432e+00
2.060000000000000000e+02,8.473571172572478716e+00
2.070000000000000000e+02,8.488953635838850431e+00
2.080000000000000000e+02,8.504239602158714106e+00
2.090000000000000000e+02,8.519430170440474015e+00
2.100000000000000000e+02,8.534525939087160396e+00
2.110000000000000000e+02,8.549527655486066635e+00
2.120000000000000000e+02,8.564437011418219114e+00
2.130000000000000000e+02,8.579253764078258016e+00
2.140000000000000000e+02,8.593979256335801509e+00
2.150000000000000000e+02,8.608614336253825883e+00
2.160000000000000000e+02,8.623159680434287822e+00
2.170000000000000000e+02,8.637615953864582252e+00
2.180000000000000000e+02,8.651984435680155627e+00
2.190000000000000000e+02,8.666265138738767249e+00
2.200000000000000000e+02,8.680459316126068359e+00
2.210000000000000000e+02,8.694567427946049420e+00
2.220000000000000000e+02,8.708590543391229843e+00
2.230000000000000000e+02,8.722529100165568039e+00
2.240000000000000000e+02,8.736383681462926987e+00
2.250000000000000000e+02,8.750155319481370597e+00
2.260000000000000000e+02,8.763844878809671002e+00
2.270000000000000000e+02,8.777452299429047144e+00
2.280000000000000000e+02,8.790978428686992530e+00
2.290000000000000000e+02,8.804424403365525009e+00
2.300000000000000000e+02,8.817790892612077158e+00
2.310000000000000000e+02,8.831078105089334329e+00
2.320000000000000000e+02,8.844286544166333641e+00
2.330000000000000000e+02,8.857417152758126022e+00
2.340000000000000000e+02,8.870470265505900898e+00
2.350000000000000000e+02,8.883446952772395377e+00
2.360000000000000000e+02,8.896347530934340497e+00
2.370000000000000000e+02,8.909172163259283295e+00
2.380000000000000000e+02,8.921921891519920322e+00
2.390000000000000000e+02,8.934597010467120626e+00
2.400000000000000000e+02,8.947198394514526143e+00
2.410000000000000000e+02,8.959726468903122409e+00
2.420000000000000000e+02,8.972181797680800486e+00
2.430000000000000000e+02,8.984565226833941765e+00
2.440000000000000000e+02,8.996876434284528656e+00
2.450000000000000000e+02,9.009116541905150655e+00
2.460000000000000000e+02,9.021285794589543272e+00
2.470000000000000000e+02,9.033384719723347445e+00
2.480000000000000000e+02,9.045413837294265846e+00
2.490000000000000000e+02,9.057373660030474838e+00
2.500000000000000000e+02,9.069264551215885817e+00
2.510000000000000000e+02,9.081087578370569346e+00
2.520000000000000000e+02,9.092842238851298831e+00
2.530000000000000000e+02,9.104529586925330875e+00
2.540000000000000000e+02,9.116150241825369704e+00
2.550000000000000000e+02,9.127703971843963870e+00
2.560000000000000000e+02,9.139191807328334249e+00
2.570000000000000000e+02,9.150613788083134637e+00
2.580000000000000000e+02,9.161970509735146706e+00
2.590000000000000000e+02,9.173262560438148583e+00
2.600000000000000000e+02,9.184490382241746076e+00
2.610000000000000000e+02,9.195653857608428794e+00
2.620000000000000000e+02,9.206753973398493329e+00
2.630000000000000000e+02,9.217790741070462701e+00
2.640000000000000000e+02,9.228764857678473987e+00
2.650000000000000000e+02,9.239676463700167375e+00
2.660000000000000000e+02,9.250526107199164016e+00
2.670000000000000000e+02,9.261314193166260367e+00
2.680000000000000000e+02,9.272040985217021358e+00
2.690000000000000000e+02,9.282706743093745771e+00
2.700000000000000000e+02,9.293311993803909488e+00
2.710000000000000000e+02,9.303857122906372012e+00
2.720000000000000000e+02,9.314342511072762676e+00
2.730000000000000000e+02,9.324768399541213171e+00
2.740000000000000000e+02,9.335135294675556139e+00
2.750000000000000000e+02,9.345443294892714192e+00
2.760000000000000000e+02,9.355693165079106421e+00
2.770000000000000000e+02,9.365884594516870720e+00
2.780000000000000000e+02,9.376018738600544467e+00
2.790000000000000000e+02,9.386095279838349015e+00
2.800000000000000000e+02,9.396114565102815064e+00
2.810000000000000000e+02,9.406076937005796168e+00
2.820000000000000000e+02,9.415983394124737060e+00
2.830000000000000000e+02,9.425833080812326514e+00
2.840000000000000000e+02,9.435626988029241602e+00
2.850000000000000000e+02,9.445365834837888386e+00
2.860000000000000000e+02,9.455049023727241320e+00
2.870000000000000000e+02,9.464677267590330345e+00
2.880000000000000000e+02,9.474251011471078954e+00
2.890000000000000000e+02,9.483770044856298043e+00
2.900000000000000000e+02,9.493234807156834876e+00
2.910000000000000000e+02,9.502645862707433722e+00
2.920000000000000000e+02,9.512003123293220952e+00
2.930000000000000000e+02,9.521307016707742932e+00
2.940000000000000000e+02,9.530557708472347400e+00
2.950000000000000000e+02,9.539755233022329861e+00
2.960000000000000000e+02,9.548900522021231296e+00
2.970000000000000000e+02,9.557993089350105720e+00
2.980000000000000000e+02,9.567033346692468854e+00
2.990000000000000000e+02,9.576021446160082107e+00
3.000000000000000000e+02,9.584957664993758897e+00
3.010000000000000000e+02,9.593842404410979796e+00
3.020000000000000000e+02,9.602675807639977634e+00
3.030000000000000000e+02,9.611457762304294050e+00
3.040000000000000000e+02,9.620188661662554708e+00
3.050000000000000000e+02,9.628869021260916483e+00
3.060000000000000000e+02,9.637498343578140947e+00
3.070000000000000000e+02,9.646077265804974488e+00
3.080000000000000000e+02,9.654606168330307270e+00
3.090000000000000000e+02,9.663084424849815335e+00
3.100000000000000000e+02,9.671513039250159594e+00
3.110000000000000000e+02,9.679891633110546678e+00
3.120000000000000000e+02,9.688220203683743037e+00
3.130000000000000000e+02,9.696499618661729158e+00
3.140000000000000000e+02,9.704729620120957634e+00
3.150000000000000000e+02,9.712910074893594370e+00
3.160000000000000000e+02,9.721041716745986605e+00
3.170000000000000000e+02,9.729124160452430559e+00
3.180000000000000000e+02,9.737157886526563999e+00
3.190000000000000000e+02,9.745143001460162324e+00
3.200000000000000000e+02,9.753079363863447426e+00
3.210000000000000000e+02,9.760967200789430365e+00
3.220000000000000000e+02,9.768806736760360820e+00
3.230000000000000000e+02,9.776598193801577352e+00
3.240000000000000000e+02,9.784341424642452267e+00
3.250000000000000000e+02,9.792036648142699917e+00
3.260000000000000000e+02,9.799684080733598535e+00
3.270000000000000000e+02,9.807284058155945061e+00
3.280000000000000000e+02,9.814835819367505820e+00
3.290000000000000000e+02,9.822340062939192151e+00
3.300000000000000000e+02,9.829797360977625686e+00
3.310000000000000000e+02,9.837206829497340266e+00
3.320000000000000000e+02,9.844569038210018164e+00
3.330000000000000000e+02,9.851884190556443599e+00
3.340000000000000000e+02,9.859152487735029169e+00
3.350000000000000000e+02,9.866373767972666187e+00
3.360000000000000000e+02,9.873548109562612751e+00
3.370000000000000000e+02,9.880675589305456086e+00
3.380000000000000000e+02,9.887756521987626002e+00
3.390000000000000000e+02,9.894790860877520799e+00
3.400000000000000000e+02,9.901778797268359966e+00
3.410000000000000000e+02,9.908720162668060993e+00
3.420000000000000000e+02,9.915615383801064553e+00
3.430000000000000000e+02,9.922464051720229605e+00
3.440000000000000000e+02,9.929266708571496736e+00
3.450000000000000000e+02,9.936023536791553923e+00
3.460000000000000000e+02,9.942734361575526592e+00
3.470000000000000000e+02,9.949399244550050980e+00
3.480000000000000000e+02,9.956018127892715341e+00
3.490000000000000000e+02,9.962591542766878305e+00
3.500000000000000000e+02,9.969119192018000675e+00
3.510000000000000000e+02,9.975601367197143077e+00
3.520000000000000000e+02,9.982037769918129300e+00
3.530000000000000000e+02,9.988429158294069410e+00
3.540000000000000000e+02,9.994775113731803273e+00
3.550000000000000000e+02,1.000107580392763929e+01
3.560000000000000000e+02,1.000733116094358799e+01
3.570000000000000000e+02,1.001354169988533727e+01
3.580000000000000000e+02,1.001970746590413341e+01
3.590000000000000000e+02,1.002582803710340187e+01
3.600000000000000000e+02,1.003190380685235894e+01
3.610000000000000000e+02,1.003793470090217888e+01
3.620000000000000000e+02,1.004392122454923886e+01
3.630000000000000000e+02,1.004986295247993588e+01
3.640000000000000000e+02,1.005576038651467741e+01
3.650000000000000000e+02,1.006161344697516569e+01
3.660000000000000000e+02,1.006742228455906663e+01
3.670000000000000000e+02,1.007318681755040934e+01
3.680000000000000000e+02,1.007890719408524127e+01
3.690000000000000000e+02,1.008458344553377373e+01
3.700000000000000000e+02,1.009021606204254518e+01
3.710000000000000000e+02,1.009580461180549626e+01
3.720000000000000000e+02,1.010134912283636055e+01
3.730000000000000000e+02,1.010685053882153994e+01
3.740000000000000000e+02,1.011230819573870221e+01
3.750000000000000000e+02,1.011772234627554568e+01
3.760000000000000000e+02,1.012309301260375705e+01
3.770000000000000000e+02,1.012842032994028330e+01
3.780000000000000000e+02,1.013370454595682268e+01
3.790000000000000000e+02,1.013894602020652869e+01
3.800000000000000000e+02,1.014414431351047519e+01
3.810000000000000000e+02,1.014929978302200020e+01
3.820000000000000000e+02,1.015441255643592733e+01
3.830000000000000000e+02,1.015948253315886163e+01
3.840000000000000000e+02,1.016451040516111348e+01
3.850000000000000000e+02,1.016949572884019304e+01
3.860000000000000000e+02,1.017443851371815988e+01
3.870000000000000000e+02,1.017933955913892241e+01
3.880000000000000000e+02,1.018419841894541555e+01
3.890000000000000000e+02,1.018901543705939972e+01
3.900000000000000000e+02,1.019379084252988754e+01
3.910000000000000000e+02,1.019852429990143428e+01
3.920000000000000000e+02,1.020321659848097440e+01
3.930000000000000000e+02,1.020786728801891741e+01
3.940000000000000000e+02,1.021247704139926071e+01
3.950000000000000000e+02,1.021704540679075812e+01
3.960000000000000000e+02,1.022157305348153145e+01
3.970000000000000000e+02,1.022606008779545483e+01
