# Time [s], Temperature [C]
1.000000000000000000e+00,1.102277299999999940e+02
2.000000000000000000e+00,1.615127599999999859e+02
3.000000000000000000e+00,2.000561999999999898e+02
4.000000000000000000e+00,2.318777300000000139e+02
5.000000000000000000e+00,2.592277799999999957e+02
6.000000000000000000e+00,2.833203100000000063e+02
7.000000000000000000e+00,3.049842199999999934e+02
8.000000000000000000e+00,3.248818099999999731e+02
9.000000000000000000e+00,3.432561999999999784e+02
1.000000000000000000e+01,3.599508700000000090e+02
1.100000000000000000e+01,3.935006999999999948e+02
1.200000000000000000e+01,4.148127700000000004e+02
1.300000000000000000e+01,4.325811199999999985e+02
1.400000000000000000e+01,4.460971700000000055e+02
1.500000000000000000e+01,4.566389199999999846e+02
1.600000000000000000e+01,4.655791600000000017e+02
1.700000000000000000e+01,4.745733900000000176e+02
1.800000000000000000e+01,4.848154000000000110e+02
1.900000000000000000e+01,4.971420899999999961e+02
2.000000000000000000e+01,5.124866299999999910e+02
2.100000000000000000e+01,5.251608899999999949e+02
2.200000000000000000e+01,5.343499799999999595e+02
2.300000000000000000e+01,5.419733300000000327e+02
2.400000000000000000e+01,5.486548500000000104e+02
2.500000000000000000e+01,5.550566400000000158e+02
2.600000000000000000e+01,5.616155400000000100e+02
2.700000000000000000e+01,5.686233499999999594e+02
2.800000000000000000e+01,5.761689499999999953e+02
2.900000000000000000e+01,5.840062299999999595e+02
3.000000000000000000e+01,5.910200200000000450e+02
3.100000000000000000e+01,5.967468900000000076e+02
3.200000000000000000e+01,6.018611499999999523e+02
3.300000000000000000e+01,6.064265100000000075e+02
3.400000000000000000e+01,6.107577499999999873e+02
3.500000000000000000e+01,6.150213599999999587e+02
3.600000000000000000e+01,6.193319099999999935e+02
3.700000000000000000e+01,6.237691700000000310e+02
3.800000000000000000e+01,6.283572400000000471e+02
3.900000000000000000e+01,6.329021000000000186e+02
4.000000000000000000e+01,6.372072799999999688e+02
4.100000000000000000e+01,6.410821499999999560e+02
4.200000000000000000e+01,6.445806900000000041e+02
4.300000000000000000e+01,6.478379499999999780e+02
4.400000000000000000e+01,6.509023999999999432e+02
4.500000000000000000e+01,6.538687700000000405e+02
4.600000000000000000e+01,6.567786899999999832e+02
4.700000000000000000e+01,6.597019699999999602e+02
4.800000000000000000e+01,6.626449599999999691e+02
4.900000000000000000e+01,6.655994299999999839e+02
5.000000000000000000e+01,6.685425400000000309e+02
5.100000000000000000e+01,6.713787800000000061e+02
5.200000000000000000e+01,6.740641500000000406e+02
5.300000000000000000e+01,6.765910000000000082e+02
5.400000000000000000e+01,6.789479400000000169e+02
5.500000000000000000e+01,6.811996500000000196e+02
5.600000000000000000e+01,6.833740800000000490e+02
5.700000000000000000e+01,6.854770499999999629e+02
5.800000000000000000e+01,6.875622600000000375e+02
5.900000000000000000e+01,6.896290900000000192e+02
6.000000000000000000e+01,6.916901199999999790e+02
6.100000000000000000e+01,6.937429200000000264e+02
6.200000000000000000e+01,6.957858300000000327e+02
6.300000000000000000e+01,6.977774699999999939e+02
6.400000000000000000e+01,6.997122799999999643e+02
6.500000000000000000e+01,7.015725700000000415e+02
6.600000000000000000e+01,7.033523599999999760e+02
6.700000000000000000e+01,7.050569500000000289e+02
6.800000000000000000e+01,7.067126500000000533e+02
6.900000000000000000e+01,7.083190299999999979e+02
7.000000000000000000e+01,7.098942899999999554e+02
7.100000000000000000e+01,7.114514199999999846e+02
7.200000000000000000e+01,7.129911499999999478e+02
7.300000000000000000e+01,7.145265500000000429e+02
7.400000000000000000e+01,7.160502300000000560e+02
7.500000000000000000e+01,7.175555399999999509e+02
7.600000000000000000e+01,7.190389999999999873e+02
7.700000000000000000e+01,7.205068400000000111e+02
7.800000000000000000e+01,7.219172399999999925e+02
7.900000000000000000e+01,7.232999899999999798e+02
8.000000000000000000e+01,7.246430100000000039e+02
8.100000000000000000e+01,7.259485499999999547e+02
8.200000000000000000e+01,7.272206400000000031e+02
8.300000000000000000e+01,7.284802899999999681e+02
8.400000000000000000e+01,7.297110000000000127e+02
8.500000000000000000e+01,7.309337799999999561e+02
8.600000000000000000e+01,7.321489299999999503e+02
8.700000000000000000e+01,7.333560800000000199e+02
8.800000000000000000e+01,7.345496799999999666e+02
8.900000000000000000e+01,7.357368199999999661e+02
9.000000000000000000e+01,7.369031999999999698e+02
9.100000000000000000e+01,7.380586499999999432e+02
9.200000000000000000e+01,7.391866499999999860e+02
9.300000000000000000e+01,7.402925400000000309e+02
9.400000000000000000e+01,7.413774399999999787e+02
9.500000000000000000e+01,7.424528199999999742e+02
9.600000000000000000e+01,7.434923099999999749e+02
9.700000000000000000e+01,7.445316199999999753e+02
9.800000000000000000e+01,7.455588999999999942e+02
9.900000000000000000e+01,7.465698200000000497e+02
1.000000000000000000e+02,7.475771499999999605e+02
1.010000000000000000e+02,7.485769699999999602e+02
1.020000000000000000e+02,7.495713500000000522e+02
1.030000000000000000e+02,7.505498000000000047e+02
1.040000000000000000e+02,7.515291700000000219e+02
1.050000000000000000e+02,7.524844399999999496e+02
1.060000000000000000e+02,7.534374400000000378e+02
1.070000000000000000e+02,7.543640699999999697e+02
1.080000000000000000e+02,7.552902199999999766e+02
1.090000000000000000e+02,7.561946400000000494e+02
1.100000000000000000e+02,7.570932000000000244e+02
1.110000000000000000e+02,7.579835799999999608e+02
1.120000000000000000e+02,7.588665799999999990e+02
1.130000000000000000e+02,7.597412100000000237e+02
1.140000000000000000e+02,7.606090100000000120e+02
1.150000000000000000e+02,7.614642900000000054e+02
1.160000000000000000e+02,7.623270300000000361e+02
1.170000000000000000e+02,7.631697400000000471e+02
1.180000000000000000e+02,7.640071400000000494e+02
1.190000000000000000e+02,7.648405199999999695e+02
1.200000000000000000e+02,7.656598500000000058e+02
1.210000000000000000e+02,7.664691800000000512e+02
1.220000000000000000e+02,7.672766699999999673e+02
1.230000000000000000e+02,7.680681799999999839e+02
1.240000000000000000e+02,7.688583399999999983e+02
1.250000000000000000e+02,7.696387899999999718e+02
1.260000000000000000e+02,7.704172999999999547e+02
1.270000000000000000e+02,7.711875599999999622e+02
1.280000000000000000e+02,7.719519000000000233e+02
1.290000000000000000e+02,7.727115499999999884e+02
1.300000000000000000e+02,7.734601400000000240e+02
1.310000000000000000e+02,7.742098999999999478e+02
1.320000000000000000e+02,7.749484899999999925e+02
1.330000000000000000e+02,7.756784099999999853e+02
1.340000000000000000e+02,7.764085099999999784e+02
1.350000000000000000e+02,7.771231699999999591e+02
1.360000000000000000e+02,7.778386199999999917e+02
1.370000000000000000e+02,7.785429699999999684e+02
1.380000000000000000e+02,7.792445099999999911e+02
1.390000000000000000e+02,7.799433599999999842e+02
1.400000000000000000e+02,7.806339699999999766e+02
1.410000000000000000e+02,7.813187299999999595e+02
1.420000000000000000e+02,7.819942600000000539e+02
1.430000000000000000e+02,7.826750500000000557e+02
1.440000000000000000e+02,7.833381299999999783e+02
1.450000000000000000e+02,7.840032300000000305e+02
1.460000000000000000e+02,7.846603999999999814e+02
1.470000000000000000e+02,7.853096299999999701e+02
1.480000000000000000e+02,7.859561800000000176e+02
1.490000000000000000e+02,7.866003399999999601e+02
1.500000000000000000e+02,7.872315099999999575e+02
1.510000000000000000e+02,7.878654800000000478e+02
1.520000000000000000e+02,7.884867600000000039e+02
1.530000000000000000e+02,7.891088300000000118e+02
1.540000000000000000e+02,7.897213699999999790e+02
1.550000000000000000e+02,7.903300199999999904e+02
1.560000000000000000e+02,7.909366499999999860e+02
1.570000000000000000e+02,7.915300899999999729e+02
1.580000000000000000e+02,7.921276900000000296e+02
1.590000000000000000e+02,7.927146000000000186e+02
1.600000000000000000e+02,7.933005399999999554e+02
1.610000000000000000e+02,7.938741499999999860e+02
1.620000000000000000e+02,7.944500699999999824e+02
1.630000000000000000e+02,7.950153800000000501e+02
1.640000000000000000e+02,7.955784899999999880e+02
1.650000000000000000e+02,7.961411699999999882e+02
1.660000000000000000e+02,7.966895100000000411e+02
1.670000000000000000e+02,7.972428599999999506e+02
1.680000000000000000e+02,7.977857699999999568e+02
1.690000000000000000e+02,7.983206800000000385e+02
1.700000000000000000e+02,7.988590699999999742e+02
1.710000000000000000e+02,7.993837899999999763e+02
1.720000000000000000e+02,7.999159499999999525e+02
1.730000000000000000e+02,8.004349399999999832e+02
1.740000000000000000e+02,8.009534899999999880e+02
1.750000000000000000e+02,8.014666099999999460e+02
1.760000000000000000e+02,8.019762600000000248e+02
1.770000000000000000e+02,8.024840100000000120e+02
1.780000000000000000e+02,8.029823000000000093e+02
1.790000000000000000e+02,8.034866899999999532e+02
1.800000000000000000e+02,8.039772299999999632e+02
1.810000000000000000e+02,8.044685100000000375e+02
1.820000000000000000e+02,8.049561200000000554e+02
1.830000000000000000e+02,8.054430499999999711e+02
1.840000000000000000e+02,8.059254200000000310e+02
1.850000000000000000e+02,8.064070400000000518e+02
1.860000000000000000e+02,8.068853100000000040e+02
1.870000000000000000e+02,8.073562600000000202e+02
1.880000000000000000e+02,8.078357499999999618e+02
1.890000000000000000e+02,8.083032799999999725e+02
1.900000000000000000e+02,8.087778299999999945e+02
1.910000000000000000e+02,8.092459099999999808e+02
1.920000000000000000e+02,8.097140500000000429e+02
1.930000000000000000e+02,8.101820699999999533e+02
1.940000000000000000e+02,8.106516699999999673e+02
1.950000000000000000e+02,8.111213400000000320e+02
1.960000000000000000e+02,8.115886199999999917e+02
1.970000000000000000e+02,8.120608499999999594e+02
1.980000000000000000e+02,8.125272800000000188e+02
1.990000000000000000e+02,8.130058000000000220e+02
2.000000000000000000e+02,8.134794900000000553e+02
2.010000000000000000e+02,8.139596599999999853e+02
2.020000000000000000e+02,8.144367099999999482e+02
2.030000000000000000e+02,8.149211999999999989e+02
2.040000000000000000e+02,8.154069200000000137e+02
2.050000000000000000e+02,8.158981899999999996e+02
2.060000000000000000e+02,8.163907500000000255e+02
2.070000000000000000e+02,8.168821400000000494e+02
2.080000000000000000e+02,8.173841599999999517e+02
2.090000000000000000e+02,8.178827499999999873e+02
2.100000000000000000e+02,8.183890999999999849e+02
2.110000000000000000e+02,8.188893399999999474e+02
2.120000000000000000e+02,8.194030199999999695e+02
2.130000000000000000e+02,8.199079000000000406e+02
2.140000000000000000e+02,8.204201699999999846e+02
2.150000000000000000e+02,8.209310900000000402e+02
2.160000000000000000e+02,8.214479400000000169e+02
2.170000000000000000e+02,8.219627100000000155e+02
2.180000000000000000e+02,8.224787599999999657e+02
2.190000000000000000e+02,8.229903000000000475e+02
2.200000000000000000e+02,8.235108000000000175e+02
2.210000000000000000e+02,8.240239299999999503e+02
2.220000000000000000e+02,8.245405299999999897e+02
2.230000000000000000e+02,8.250553599999999506e+02
2.240000000000000000e+02,8.255706199999999626e+02
2.250000000000000000e+02,8.260834399999999960e+02
2.260000000000000000e+02,8.265980799999999817e+02
2.270000000000000000e+02,8.271091900000000123e+02
2.280000000000000000e+02,8.276221900000000460e+02
2.290000000000000000e+02,8.281273200000000543e+02
2.300000000000000000e+02,8.286422099999999773e+02
2.310000000000000000e+02,8.291447799999999688e+02
2.320000000000000000e+02,8.296491700000000264e+02
2.330000000000000000e+02,8.301572899999999890e+02
2.340000000000000000e+02,8.306576499999999896e+02
2.350000000000000000e+02,8.311587500000000546e+02
2.360000000000000000e+02,8.316549700000000485e+02
2.370000000000000000e+02,8.321539299999999457e+02
2.380000000000000000e+02,8.326443500000000313e+02
2.390000000000000000e+02,8.331395899999999983e+02
2.400000000000000000e+02,8.336239000000000487e+02
2.410000000000000000e+02,8.341140100000000075e+02
2.420000000000000000e+02,8.345983300000000327e+02
2.430000000000000000e+02,8.350796500000000151e+02
2.440000000000000000e+02,8.355591399999999567e+02
2.450000000000000000e+02,8.360347900000000436e+02
2.460000000000000000e+02,8.365120799999999690e+02
2.470000000000000000e+02,8.369817500000000337e+02
2.480000000000000000e+02,8.374550799999999526e+02
2.490000000000000000e+02,8.379181499999999687e+02
2.500000000000000000e+02,8.383823899999999867e+02
2.510000000000000000e+02,8.388465599999999540e+02
2.520000000000000000e+02,8.393030999999999722e+02
2.530000000000000000e+02,8.397594599999999900e+02
2.540000000000000000e+02,8.402115499999999884e+02
2.550000000000000000e+02,8.406629599999999982e+02
2.560000000000000000e+02,8.411084600000000364e+02
2.570000000000000000e+02,8.415532200000000103e+02
2.580000000000000000e+02,8.419971299999999701e+02
2.590000000000000000e+02,8.424338999999999942e+02
2.600000000000000000e+02,8.428729200000000219e+02
2.610000000000000000e+02,8.433052999999999884e+02
2.620000000000000000e+02,8.437348600000000260e+02
2.630000000000000000e+02,8.441639999999999873e+02
2.640000000000000000e+02,8.445871600000000399e+02
2.650000000000000000e+02,8.450087300000000141e+02
2.660000000000000000e+02,8.454293800000000374e+02
2.670000000000000000e+02,8.458446000000000140e+02
2.680000000000000000e+02,8.462564099999999598e+02
2.690000000000000000e+02,8.466688199999999824e+02
2.700000000000000000e+02,8.470755000000000337e+02
2.710000000000000000e+02,8.474790000000000418e+02
2.720000000000000000e+02,8.478815299999999979e+02
2.730000000000000000e+02,8.482803999999999860e+02
2.740000000000000000e+02,8.486763300000000072e+02
2.750000000000000000e+02,8.490690899999999601e+02
2.760000000000000000e+02,8.494604500000000371e+02
2.770000000000000000e+02,8.498473500000000058e+02
2.780000000000000000e+02,8.502338899999999740e+02
2.790000000000000000e+02,8.506148699999999963e+02
2.800000000000000000e+02,8.509926799999999503e+02
2.810000000000000000e+02,8.513706100000000561e+02
2.820000000000000000e+02,8.517434100000000399e+02
2.830000000000000000e+02,8.521151700000000346e+02
2.840000000000000000e+02,8.524838899999999740e+02
2.850000000000000000e+02,8.528474099999999680e+02
2.860000000000000000e+02,8.532105699999999615e+02
2.870000000000000000e+02,8.535702499999999873e+02
2.880000000000000000e+02,8.539278600000000097e+02
2.890000000000000000e+02,8.542814899999999625e+02
2.900000000000000000e+02,8.546348299999999654e+02
2.910000000000000000e+02,8.549844399999999496e+02
2.920000000000000000e+02,8.553283099999999877e+02
2.930000000000000000e+02,8.556739499999999907e+02
2.940000000000000000e+02,8.560141599999999471e+02
2.950000000000000000e+02,8.563515599999999495e+02
2.960000000000000000e+02,8.566882900000000518e+02
2.970000000000000000e+02,8.570206299999999828e+02
2.980000000000000000e+02,8.573526000000000522e+02
2.990000000000000000e+02,8.576788299999999481e+02
3.000000000000000000e+02,8.580051300000000083e+02
3.010000000000000000e+02,8.583264199999999846e+02
3.020000000000000000e+02,8.586488600000000133e+02
3.030000000000000000e+02,8.589659400000000460e+02
3.040000000000000000e+02,8.592793000000000347e+02
3.050000000000000000e+02,8.595930200000000241e+02
3.060000000000000000e+02,8.599029500000000326e+02
3.070000000000000000e+02,8.602105699999999615e+02
3.080000000000000000e+02,8.605178200000000288e+02
3.090000000000000000e+02,8.608179900000000089e+02
3.100000000000000000e+02,8.611196300000000292e+02
3.110000000000000000e+02,8.614168100000000550e+02
3.120000000000000000e+02,8.617146599999999808e+02
3.130000000000000000e+02,8.620043899999999439e+02
3.140000000000000000e+02,8.622976700000000392e+02
3.150000000000000000e+02,8.625841100000000097e+02
3.160000000000000000e+02,8.628722500000000082e+02
3.170000000000000000e+02,8.631531400000000076e+02
3.180000000000000000e+02,8.634359699999999975e+02
3.190000000000000000e+02,8.637139300000000048e+02
3.200000000000000000e+02,8.639909099999999853e+02
3.210000000000000000e+02,8.642657500000000255e+02
3.220000000000000000e+02,8.645376599999999598e+02
3.230000000000000000e+02,8.648090799999999945e+02
3.240000000000000000e+02,8.650742800000000443e+02
3.250000000000000000e+02,8.653405800000000454e+02
3.260000000000000000e+02,8.656047399999999925e+02
3.270000000000000000e+02,8.658636500000000069e+02
3.280000000000000000e+02,8.661239600000000110e+02
3.290000000000000000e+02,8.663809800000000223e+02
3.300000000000000000e+02,8.666334799999999632e+02
3.310000000000000000e+02,8.668863499999999931e+02
3.320000000000000000e+02,8.671373899999999821e+02
3.330000000000000000e+02,8.673842200000000275e+02
3.340000000000000000e+02,8.676311600000000226e+02
3.350000000000000000e+02,8.678732300000000350e+02
3.360000000000000000e+02,8.681161499999999478e+02
3.370000000000000000e+02,8.683563199999999824e+02
3.380000000000000000e+02,8.685932000000000244e+02
3.390000000000000000e+02,8.688300799999999526e+02
3.400000000000000000e+02,8.690613399999999729e+02
3.410000000000000000e+02,8.692956500000000233e+02
3.420000000000000000e+02,8.695245999999999640e+02
3.430000000000000000e+02,8.697509800000000268e+02
3.440000000000000000e+02,8.699792499999999791e+02
3.450000000000000000e+02,8.701998300000000199e+02
3.460000000000000000e+02,8.704240700000000288e+02
3.470000000000000000e+02,8.706411699999999882e+02
3.480000000000000000e+02,8.708616299999999910e+02
3.490000000000000000e+02,8.710763500000000477e+02
3.500000000000000000e+02,8.712908300000000281e+02
3.510000000000000000e+02,8.715040900000000192e+02
3.520000000000000000e+02,8.717126500000000533e+02
3.530000000000000000e+02,8.719238299999999526e+02
3.540000000000000000e+02,8.721281099999999924e+02
3.550000000000000000e+02,8.723352099999999609e+02
3.560000000000000000e+02,8.725360100000000330e+02
3.570000000000000000e+02,8.727408400000000483e+02
3.580000000000000000e+02,8.729363399999999729e+02
3.590000000000000000e+02,8.731391599999999471e+02
3.600000000000000000e+02,8.733306300000000419e+02
3.610000000000000000e+02,8.735291099999999460e+02
3.620000000000000000e+02,8.737179599999999482e+02
3.630000000000000000e+02,8.739125999999999976e+02
3.640000000000000000e+02,8.740977799999999434e+02
3.650000000000000000e+02,8.742904700000000275e+02
3.660000000000000000e+02,8.744710099999999784e+02
3.670000000000000000e+02,8.746606399999999439e+02
3.680000000000000000e+02,8.748384999999999536e+02
3.690000000000000000e+02,8.750246600000000399e+02
3.700000000000000000e+02,8.751984899999999925e+02
3.710000000000000000e+02,8.753829299999999876e+02
3.720000000000000000e+02,8.755532799999999725e+02
3.730000000000000000e+02,8.757309000000000196e+02
3.740000000000000000e+02,8.759028299999999945e+02
3.750000000000000000e+02,8.760747699999999440e+02
3.760000000000000000e+02,8.762447499999999536e+02
3.770000000000000000e+02,8.764130900000000111e+02
3.780000000000000000e+02,8.765806300000000419e+02
3.790000000000000000e+02,8.767454800000000432e+02
3.800000000000000000e+02,8.769090599999999540e+02
3.810000000000000000e+02,8.770728100000000040e+02
3.820000000000000000e+02,8.772318099999999959e+02
3.830000000000000000e+02,8.773945899999999938e+02
3.840000000000000000e+02,8.775499899999999798e+02
3.850000000000000000e+02,8.777074599999999691e+02
3.860000000000000000e+02,8.778631599999999935e+02
3.870000000000000000e+02,8.780163000000000011e+02
3.880000000000000000e+02,8.781694899999999961e+02
3.890000000000000000e+02,8.783205600000000004e+02
3.900000000000000000e+02,8.784689300000000003e+02
3.910000000000000000e+02,8.786189600000000155e+02
3.920000000000000000e+02,8.787641599999999471e+02
3.930000000000000000e+02,8.789122899999999845e+02
3.940000000000000000e+02,8.790542000000000371e+02
3.950000000000000000e+02,8.791983000000000175e+02
3.960000000000000000e+02,8.793398999999999432e+02
3.970000000000000000e+02,8.794807100000000446e+02
3.980000000000000000e+02,8.796180399999999509e+02
3.990000000000000000e+02,8.797587300000000141e+02
