# Time [s], Convective Heat Transfer Coefficient [W/m2K]
1.000000000000000000e+00,0.000000000000000000e+00
2.000000000000000000e+00,0.000000000000000000e+00
3.000000000000000000e+00,0.000000000000000000e+00
4.000000000000000000e+00,0.000000000000000000e+00
5.000000000000000000e+00,2.412849599104084641e-02
6.000000000000000000e+00,4.322677809297574558e-02
7.000000000000000000e+00,6.861823301886887938e-02
8.000000000000000000e+00,1.034222001625469539e-01
9.000000000000000000e+00,1.476726380180344023e-01
1.000000000000000000e+01,2.015959644778866355e-01
1.100000000000000000e+01,2.648973127427276530e-01
1.200000000000000000e+01,3.368112220106737609e-01
1.300000000000000000e+01,4.164406917631651162e-01
1.400000000000000000e+01,5.027836144045436662e-01
1.500000000000000000e+01,5.947820571546186263e-01
1.600000000000000000e+01,6.914375176806488721e-01
1.700000000000000000e+01,7.918401750754182622e-01
1.800000000000000000e+01,8.951843744735311637e-01
1.900000000000000000e+01,1.000750251701618909e+00
2.000000000000000000e+01,1.107920295864876170e+00
2.100000000000000000e+01,1.216172558844877294e+00
2.200000000000000000e+01,1.325056184071986332e+00
2.300000000000000000e+01,1.434198319788882126e+00
2.400000000000000000e+01,1.543280648125976207e+00
2.500000000000000000e+01,1.652041651035921488e+00
2.600000000000000000e+01,1.760260003406193707e+00
2.700000000000000000e+01,1.867757251889269332e+00
2.800000000000000000e+01,1.974385742765023322e+00
2.900000000000000000e+01,2.080022277670666053e+00
3.000000000000000000e+01,2.184570097349599838e+00
3.100000000000000000e+01,2.287950330999947823e+00
3.200000000000000000e+01,2.390100168124606572e+00
3.300000000000000000e+01,2.490973071477230238e+00
3.400000000000000000e+01,2.590534538505695927e+00
3.500000000000000000e+01,2.688754903074711766e+00
3.600000000000000000e+01,2.785619653531648865e+00
3.700000000000000000e+01,2.881115672562732488e+00
3.800000000000000000e+01,2.975240429073213289e+00
3.900000000000000000e+01,3.067992924404615795e+00
4.000000000000000000e+01,3.159376499979397845e+00
4.100000000000000000e+01,3.249398383031596449e+00
4.200000000000000000e+01,3.338069654461413904e+00
4.300000000000000000e+01,3.425403209503059987e+00
4.400000000000000000e+01,3.511413151481086459e+00
4.500000000000000000e+01,3.596114451211951835e+00
4.600000000000000000e+01,3.679527118569227984e+00
4.700000000000000000e+01,3.761667145192533646e+00
4.800000000000000000e+01,3.842556436164776379e+00
4.900000000000000000e+01,3.922214017591414859e+00
5.000000000000000000e+01,4.000660554366977095e+00
5.100000000000000000e+01,4.077916101813529259e+00
5.200000000000000000e+01,4.154004734785555542e+00
5.300000000000000000e+01,4.228946957519578831e+00
5.400000000000000000e+01,4.302763660258285938e+00
5.500000000000000000e+01,4.375476986253365119e+00
5.600000000000000000e+01,4.447108734611147085e+00
5.700000000000000000e+01,4.517679815279246114e+00
5.800000000000000000e+01,4.587211703575957422e+00
5.900000000000000000e+01,4.655726082514427766e+00
6.000000000000000000e+01,4.723242822408234787e+00
6.100000000000000000e+01,4.789781414897071876e+00
6.200000000000000000e+01,4.855362381106854919e+00
6.300000000000000000e+01,4.920004354652764533e+00
6.400000000000000000e+01,4.983726234190745785e+00
6.500000000000000000e+01,5.046547641686139229e+00
6.600000000000000000e+01,5.108483846740996981e+00
6.700000000000000000e+01,5.169553500675671209e+00
6.800000000000000000e+01,5.229774737156210662e+00
6.900000000000000000e+01,5.289161843303498145e+00
7.000000000000000000e+01,5.350832233073453459e+00
7.100000000000000000e+01,5.409648404192336280e+00
7.200000000000000000e+01,5.467173575514645556e+00
7.300000000000000000e+01,5.523756536170639109e+00
7.400000000000000000e+01,5.579468546775415483e+00
7.500000000000000000e+01,5.634362564930446737e+00
7.600000000000000000e+01,5.688470596921597178e+00
7.700000000000000000e+01,5.741819817803712311e+00
7.800000000000000000e+01,5.794432135099900627e+00
7.900000000000000000e+01,5.846327630413890475e+00
8.000000000000000000e+01,5.897522691798463335e+00
8.100000000000000000e+01,5.948034919372829243e+00
8.200000000000000000e+01,5.997878234349531823e+00
8.300000000000000000e+01,6.047066149278929714e+00
8.400000000000000000e+01,6.095612266399614398e+00
8.500000000000000000e+01,6.143527814659656805e+00
8.600000000000000000e+01,6.190826468194161158e+00
8.700000000000000000e+01,6.237518110774128210e+00
8.800000000000000000e+01,6.283613764723652295e+00
8.900000000000000000e+01,6.329122435971465954e+00
9.000000000000000000e+01,6.374053845455001088e+00
9.100000000000000000e+01,6.418417949396289401e+00
9.200000000000000000e+01,6.462223518779962816e+00
9.300000000000000000e+01,6.505477690075380792e+00
9.400000000000000000e+01,6.548190682584800193e+00
9.500000000000000000e+01,6.590371124309547746e+00
9.600000000000000000e+01,6.632026683283184454e+00
9.700000000000000000e+01,6.673164913808035337e+00
9.800000000000000000e+01,6.713793521304115330e+00
9.900000000000000000e+01,6.753920865177818200e+00
1.000000000000000000e+02,6.793554144342950352e+00
1.010000000000000000e+02,6.832699212625244378e+00
1.020000000000000000e+02,6.871365364127846931e+00
1.030000000000000000e+02,6.909559502705240774e+00
1.040000000000000000e+02,6.947288698151115938e+00
1.050000000000000000e+02,6.984559697305580350e+00
1.060000000000000000e+02,7.021378941142232932e+00
1.070000000000000000e+02,7.057753990693528046e+00
1.080000000000000000e+02,7.093690446419972595e+00
1.090000000000000000e+02,7.129196883415840347e+00
1.100000000000000000e+02,7.164278776258855785e+00
1.110000000000000000e+02,7.198942941738826207e+00
1.120000000000000000e+02,7.233195014431585079e+00
1.130000000000000000e+02,7.267042827783902759e+00
1.140000000000000000e+02,7.300490823210915359e+00
1.150000000000000000e+02,7.333546952246305040e+00
1.160000000000000000e+02,7.366216480627174157e+00
1.170000000000000000e+02,7.398505743157890890e+00
1.180000000000000000e+02,7.430420402437892591e+00
1.190000000000000000e+02,7.461966529876884024e+00
1.200000000000000000e+02,7.493150381377135183e+00
1.210000000000000000e+02,7.523977564127227069e+00
1.220000000000000000e+02,7.554452654124672151e+00
1.230000000000000000e+02,7.584582494234633820e+00
1.240000000000000000e+02,7.614372472205455544e+00
1.250000000000000000e+02,7.643826779111137171e+00
1.260000000000000000e+02,7.672951836158090622e+00
1.270000000000000000e+02,7.701753251957134339e+00
1.280000000000000000e+02,7.730234679026541933e+00
1.290000000000000000e+02,7.758402553666272183e+00
1.300000000000000000e+02,7.786260976848513593e+00
1.310000000000000000e+02,7.813815249575380761e+00
1.320000000000000000e+02,7.841070118539799516e+00
1.330000000000000000e+02,7.868029796599855352e+00
1.340000000000000000e+02,7.894699672400376400e+00
1.350000000000000000e+02,7.921083660311512453e+00
1.360000000000000000e+02,7.947186289180414143e+00
1.370000000000000000e+02,7.973011762628814836e+00
1.380000000000000000e+02,7.998565251449123004e+00
1.390000000000000000e+02,8.023849773296143795e+00
1.400000000000000000e+02,8.048870236280809110e+00
1.410000000000000000e+02,8.073629789930572898e+00
1.420000000000000000e+02,8.098132735757605616e+00
1.430000000000000000e+02,8.122383606389293575e+00
1.440000000000000000e+02,8.146385219625047469e+00
1.450000000000000000e+02,8.170141886124314468e+00
1.460000000000000000e+02,8.193656577370170169e+00
1.470000000000000000e+02,8.216932871879032874e+00
1.480000000000000000e+02,8.239974938887550948e+00
1.490000000000000000e+02,8.262785122556385531e+00
1.500000000000000000e+02,8.285367403263826702e+00
1.510000000000000000e+02,8.307725318754618726e+00
1.520000000000000000e+02,8.329860795997401368e+00
1.530000000000000000e+02,8.351777215105231633e+00
1.540000000000000000e+02,8.373477869416944941e+00
1.550000000000000000e+02,8.394966300754328259e+00
1.560000000000000000e+02,8.416244971857979706e+00
1.570000000000000000e+02,8.437315623074104209e+00
1.580000000000000000e+02,8.458181581441316155e+00
1.590000000000000000e+02,8.478845605525382467e+00
1.600000000000000000e+02,8.499310224007286863e+00
1.610000000000000000e+02,8.519578386877741494e+00
1.620000000000000000e+02,8.539651850890688678e+00
1.630000000000000000e+02,8.559533125239557450e+00
1.640000000000000000e+02,8.579224659383804408e+00
1.650000000000000000e+02,8.598728369982103104e+00
1.660000000000000000e+02,8.618052115475885344e+00
1.670000000000000000e+02,8.637190107461915289e+00
1.680000000000000000e+02,8.656146177092120197e+00
1.690000000000000000e+02,8.674923142931886488e+00
1.700000000000000000e+02,8.693522988461149126e+00
1.710000000000000000e+02,8.711948422700903194e+00
1.720000000000000000e+02,8.730202097502052894e+00
1.730000000000000000e+02,8.748287832974828149e+00
1.740000000000000000e+02,8.766208156937510765e+00
1.750000000000000000e+02,8.783966911088876728e+00
1.760000000000000000e+02,8.801566505347132363e+00
1.770000000000000000e+02,8.819009602668231196e+00
1.780000000000000000e+02,8.836297765288616546e+00
1.790000000000000000e+02,8.853432521974649916e+00
1.800000000000000000e+02,8.870415517699942853e+00
1.810000000000000000e+02,8.887246733194233528e+00
1.820000000000000000e+02,8.903926878852695737e+00
1.830000000000000000e+02,8.920456792646207944e+00
1.840000000000000000e+02,8.936836998125150089e+00
1.850000000000000000e+02,8.953067856235598754e+00
1.860000000000000000e+02,8.969150004778791541e+00
1.870000000000000000e+02,8.985084498466427760e+00
1.880000000000000000e+02,9.000871067761829991e+00
1.890000000000000000e+02,9.016510877791265699e+00
1.900000000000000000e+02,9.032004494607093648e+00
1.910000000000000000e+02,9.047352896595224792e+00
1.920000000000000000e+02,9.062556042285622837e+00
1.930000000000000000e+02,9.077615018266293134e+00
1.940000000000000000e+02,9.092530321458585973e+00
1.950000000000000000e+02,9.107302856778039413e+00
1.960000000000000000e+02,9.121933227209018114e+00
1.970000000000000000e+02,9.136421598479795847e+00
1.980000000000000000e+02,9.150768544737918120e+00
1.990000000000000000e+02,9.164974763437596650e+00
2.000000000000000000e+02,9.179040656689538835e+00
2.010000000000000000e+02,9.192966335811165735e+00
2.020000000000000000e+02,9.206752868591353334e+00
2.030000000000000000e+02,9.220399648920739821e+00
2.040000000000000000e+02,9.233907441817523321e+00
2.050000000000000000e+02,9.247276173079288952e+00
2.060000000000000000e+02,9.260506442894934409e+00
2.070000000000000000e+02,9.273598155049885605e+00
2.080000000000000000e+02,9.286551476863325050e+00
2.090000000000000000e+02,9.299365752536040475e+00
2.100000000000000000e+02,9.312041809230372280e+00
2.110000000000000000e+02,9.324579378865013979e+00
2.120000000000000000e+02,9.336978052709373088e+00
2.130000000000000000e+02,9.349238488386735213e+00
2.140000000000000000e+02,9.361359590770454986e+00
2.150000000000000000e+02,9.373341998595998703e+00
2.160000000000000000e+02,9.385185138435240049e+00
2.170000000000000000e+02,9.396888565562539597e+00
2.180000000000000000e+02,9.408452623360011202e+00
2.190000000000000000e+02,9.419876850499441900e+00
2.200000000000000000e+02,9.431160911829875815e+00
2.210000000000000000e+02,9.442304334097826768e+00
2.220000000000000000e+02,9.453318820543623602e+00
2.230000000000000000e+02,9.464187858345445292e+00
2.240000000000000000e+02,9.474916721296020583e+00
2.250000000000000000e+02,9.485506982146844734e+00
2.260000000000000000e+02,9.495958761553783489e+00
2.270000000000000000e+02,9.506273334884923543e+00
2.280000000000000000e+02,9.516450793189227042e+00
2.290000000000000000e+02,9.526491216821513675e+00
2.300000000000000000e+02,9.536393774484624331e+00
2.310000000000000000e+02,9.546157888607639919e+00
2.320000000000000000e+02,9.555782719720328444e+00
2.330000000000000000e+02,9.565267552660055017e+00
2.340000000000000000e+02,9.574611284298269354e+00
2.350000000000000000e+02,9.583813956383099963e+00
2.360000000000000000e+02,9.592873818598805613e+00
2.370000000000000000e+02,9.601790773374789367e+00
2.380000000000000000e+02,9.610564712642744922e+00
2.390000000000000000e+02,9.619194885283999241e+00
2.400000000000000000e+02,9.627682049622777072e+00
2.410000000000000000e+02,9.636025434400021794e+00
2.420000000000000000e+02,9.644225269055928251e+00
2.430000000000000000e+02,9.652282272522761275e+00
2.440000000000000000e+02,9.660197022024528124e+00
2.450000000000000000e+02,9.667969453409591907e+00
2.460000000000000000e+02,9.675600491854931207e+00
2.470000000000000000e+02,9.683091170212872356e+00
2.480000000000000000e+02,9.690442129768777946e+00
2.490000000000000000e+02,9.697654245756774927e+00
2.500000000000000000e+02,9.704728501494239268e+00
2.510000000000000000e+02,9.711666484262829968e+00
2.520000000000000000e+02,9.718468894019315130e+00
2.530000000000000000e+02,9.725137530194999158e+00
2.540000000000000000e+02,9.731673677603549066e+00
2.550000000000000000e+02,9.738078727471030760e+00
2.560000000000000000e+02,9.744354053767432688e+00
2.570000000000000000e+02,9.750502368044685397e+00
2.580000000000000000e+02,9.756524268182946713e+00
2.590000000000000000e+02,9.762422059444775257e+00
2.600000000000000000e+02,9.768197536230298184e+00
2.610000000000000000e+02,9.773853333506874463e+00
2.620000000000000000e+02,9.779390841635118292e+00
2.630000000000000000e+02,9.784812292374303055e+00
2.640000000000000000e+02,9.790120143957860677e+00
2.650000000000000000e+02,9.795316836372055747e+00
2.660000000000000000e+02,9.800404304470594852e+00
2.670000000000000000e+02,9.805487104908289453e+00
2.680000000000000000e+02,9.810420027525198705e+00
2.690000000000000000e+02,9.815244470038026137e+00
2.700000000000000000e+02,9.819972646054635490e+00
2.710000000000000000e+02,9.824606407763980087e+00
2.720000000000000000e+02,9.829148079785785086e+00
2.730000000000000000e+02,9.833598399420113267e+00
2.740000000000000000e+02,9.837959184951783342e+00
2.750000000000000000e+02,9.842231880962621915e+00
2.760000000000000000e+02,9.846418405412729058e+00
2.770000000000000000e+02,9.850521027270227492e+00
2.780000000000000000e+02,9.854542003769987346e+00
2.790000000000000000e+02,9.858483942159963931e+00
2.800000000000000000e+02,9.862349557980920167e+00
2.810000000000000000e+02,9.866141795303304818e+00
2.820000000000000000e+02,9.869862864922327006e+00
2.830000000000000000e+02,9.873515088034862330e+00
2.840000000000000000e+02,9.877102096055168090e+00
2.850000000000000000e+02,9.880626188319618919e+00
2.860000000000000000e+02,9.884089894891555872e+00
2.870000000000000000e+02,9.887495976043748414e+00
2.880000000000000000e+02,9.890846464505088420e+00
2.890000000000000000e+02,9.894144581444690445e+00
2.900000000000000000e+02,9.897392462289417381e+00
2.910000000000000000e+02,9.900592235358885773e+00
2.920000000000000000e+02,9.903746618826565040e+00
2.930000000000000000e+02,9.906858322704334086e+00
2.940000000000000000e+02,9.909928261134046679e+00
2.950000000000000000e+02,9.912959370097327749e+00
2.960000000000000000e+02,9.915954339379043248e+00
2.970000000000000000e+02,9.918913828786841691e+00
2.980000000000000000e+02,9.921840636236048283e+00
2.990000000000000000e+02,9.924736839341287364e+00
3.000000000000000000e+02,9.927603678894016070e+00
3.010000000000000000e+02,9.930443579374632179e+00
3.020000000000000000e+02,9.933257891535117068e+00
3.030000000000000000e+02,9.936048199827894223e+00
3.040000000000000000e+02,9.938816321820102218e+00
3.050000000000000000e+02,9.941563715418116232e+00
3.060000000000000000e+02,9.944292308557178828e+00
3.070000000000000000e+02,9.947311860283678087e+00
3.080000000000000000e+02,9.950160268998944346e+00
3.090000000000000000e+02,9.952956944233184444e+00
3.100000000000000000e+02,9.955726892650135440e+00
3.110000000000000000e+02,9.958471810947937541e+00
3.120000000000000000e+02,9.961193745637041630e+00
3.130000000000000000e+02,9.963894974261281234e+00
3.140000000000000000e+02,9.966578947636168806e+00
3.150000000000000000e+02,9.969246753287185570e+00
3.160000000000000000e+02,9.971901359797676889e+00
3.170000000000000000e+02,9.974544317420951600e+00
3.180000000000000000e+02,9.977178113818700567e+00
3.190000000000000000e+02,9.979803350797654460e+00
3.200000000000000000e+02,9.982421803589158316e+00
3.210000000000000000e+02,9.985034891440523808e+00
3.220000000000000000e+02,9.987643443863291282e+00
3.230000000000000000e+02,9.990249578804714758e+00
3.240000000000000000e+02,9.992852830780586615e+00
3.250000000000000000e+02,9.995455547276318242e+00
3.260000000000000000e+02,9.998057962986704794e+00
3.270000000000000000e+02,1.000066113143195956e+01
3.280000000000000000e+02,1.000326610393930160e+01
3.290000000000000000e+02,1.000587311118442102e+01
3.300000000000000000e+02,1.000848320139204262e+01
3.310000000000000000e+02,1.001109707019188733e+01
3.320000000000000000e+02,1.001371517827146818e+01
3.330000000000000000e+02,1.001633833537805707e+01
3.340000000000000000e+02,1.001896723292838765e+01
3.350000000000000000e+02,1.002160232775371362e+01
3.360000000000000000e+02,1.002424372621389104e+01
3.370000000000000000e+02,1.002689269874799294e+01
3.380000000000000000e+02,1.002954911661704784e+01
3.390000000000000000e+02,1.003221331655377035e+01
3.400000000000000000e+02,1.003488609952540145e+01
3.410000000000000000e+02,1.003756780000255056e+01
3.420000000000000000e+02,1.004025886781097654e+01
3.430000000000000000e+02,1.004295998387574862e+01
3.440000000000000000e+02,1.004567124760026608e+01
3.450000000000000000e+02,1.004839206249075190e+01
3.460000000000000000e+02,1.005112449834650157e+01
3.470000000000000000e+02,1.005386784096623032e+01
3.480000000000000000e+02,1.005662265082642826e+01
3.490000000000000000e+02,1.005938983413653531e+01
3.500000000000000000e+02,1.006285505497972466e+01
3.510000000000000000e+02,1.006595120775143037e+01
3.520000000000000000e+02,1.006894234986605774e+01
3.530000000000000000e+02,1.007189536659874562e+01
3.540000000000000000e+02,1.007482231858717547e+01
3.550000000000000000e+02,1.007773881103126179e+01
3.560000000000000000e+02,1.008065257963733963e+01
3.570000000000000000e+02,1.008356880940214140e+01
3.580000000000000000e+02,1.008649152271741301e+01
3.590000000000000000e+02,1.008942300771792056e+01
3.600000000000000000e+02,1.009236508746725747e+01
3.610000000000000000e+02,1.009531808752856108e+01
3.620000000000000000e+02,1.009828439889242269e+01
3.630000000000000000e+02,1.010126330925376692e+01
3.640000000000000000e+02,1.010425697430252079e+01
3.650000000000000000e+02,1.010726525271519627e+01
3.660000000000000000e+02,1.011028891952386033e+01
3.670000000000000000e+02,1.011332886220713867e+01
3.680000000000000000e+02,1.011638585156017989e+01
3.690000000000000000e+02,1.011945951320287307e+01
3.700000000000000000e+02,1.012255084439459552e+01
3.710000000000000000e+02,1.012566118228122036e+01
3.720000000000000000e+02,1.012878946435233907e+01
3.730000000000000000e+02,1.013193634097351925e+01
3.740000000000000000e+02,1.013510314443578331e+01
3.750000000000000000e+02,1.013828949512683586e+01
3.760000000000000000e+02,1.014149546940237379e+01
3.770000000000000000e+02,1.014472262184924034e+01
3.780000000000000000e+02,1.014797091142485108e+01
3.790000000000000000e+02,1.015124006970525450e+01
3.800000000000000000e+02,1.015453141801596360e+01
3.810000000000000000e+02,1.015784513944771561e+01
3.820000000000000000e+02,1.016118198317168542e+01
3.830000000000000000e+02,1.016454054333459922e+01
3.840000000000000000e+02,1.016792338037764765e+01
3.850000000000000000e+02,1.017132965308284476e+01
3.860000000000000000e+02,1.017475976593045850e+01
3.870000000000000000e+02,1.017821446093821081e+01
3.880000000000000000e+02,1.018169447772850233e+01
3.890000000000000000e+02,1.018520021497232619e+01
3.900000000000000000e+02,1.018873263364079484e+01
3.910000000000000000e+02,1.019229032521185552e+01
3.920000000000000000e+02,1.019587582586752461e+01
3.930000000000000000e+02,1.019948761325953157e+01
3.940000000000000000e+02,1.020312776715002023e+01
3.950000000000000000e+02,1.020679645067551355e+01
3.960000000000000000e+02,1.021201941876674368e+01
3.970000000000000000e+02,1.021623838674731033e+01
3.980000000000000000e+02,1.022017672929811205e+01
