# Time [s], Convective Heat Transfer Coefficient [W/m2K]
1.000000000000000000e+00,0.000000000000000000e+00
2.000000000000000000e+00,0.000000000000000000e+00
3.000000000000000000e+00,0.000000000000000000e+00
4.000000000000000000e+00,1.915079995362458862e-02
5.000000000000000000e+00,3.040000000141642594e-02
6.000000000000000000e+00,5.018929418388579089e-02
7.000000000000000000e+00,8.129691486700800496e-02
8.000000000000000000e+00,1.226205770978392312e-01
9.000000000000000000e+00,1.751488935816441217e-01
1.000000000000000000e+01,2.391958955757500505e-01
1.100000000000000000e+01,3.142997615042182891e-01
1.200000000000000000e+01,3.996541469169750393e-01
1.300000000000000000e+01,4.941959932358266916e-01
1.400000000000000000e+01,5.966918165042049971e-01
1.500000000000000000e+01,7.059257700126250201e-01
1.600000000000000000e+01,8.206992103035624098e-01
1.700000000000000000e+01,9.399287316059526942e-01
1.800000000000000000e+01,1.062645787352706206e+00
1.900000000000000000e+01,1.187998563047383493e+00
2.000000000000000000e+01,1.315244319520471272e+00
2.100000000000000000e+01,1.443752378592203955e+00
2.200000000000000000e+01,1.572981985705298014e+00
2.300000000000000000e+01,1.702479566859373961e+00
2.400000000000000000e+01,1.831859878301109523e+00
2.500000000000000000e+01,1.960799695531070919e+00
2.600000000000000000e+01,2.089033352212436245e+00
2.700000000000000000e+01,2.223617995565881245e+00
2.800000000000000000e+01,2.352417837592766237e+00
2.900000000000000000e+01,2.478781957032269556e+00
3.000000000000000000e+01,2.603306309807349006e+00
3.100000000000000000e+01,2.726043465605140437e+00
3.200000000000000000e+01,2.847009159464231054e+00
3.300000000000000000e+01,2.966196791765866703e+00
3.400000000000000000e+01,3.083600020827204524e+00
3.500000000000000000e+01,3.199212708636398173e+00
3.600000000000000000e+01,3.313024937380052215e+00
3.700000000000000000e+01,3.425035928477025315e+00
3.800000000000000000e+01,3.535246994477916793e+00
3.900000000000000000e+01,3.643657907877894342e+00
4.000000000000000000e+01,3.750272137121290150e+00
4.100000000000000000e+01,3.855094596375105098e+00
4.200000000000000000e+01,3.958133359953845964e+00
4.300000000000000000e+01,4.059396471964021202e+00
4.400000000000000000e+01,4.158899271565873690e+00
4.500000000000000000e+01,4.256653654705812251e+00
4.600000000000000000e+01,4.352677071263548747e+00
4.700000000000000000e+01,4.446988159737210289e+00
4.800000000000000000e+01,4.539607425137007546e+00
4.900000000000000000e+01,4.630559089290668950e+00
5.000000000000000000e+01,4.719868446158184128e+00
5.100000000000000000e+01,4.807564065019370503e+00
5.200000000000000000e+01,4.893676327813471616e+00
5.300000000000000000e+01,4.978230898910499747e+00
5.400000000000000000e+01,5.061262364189420104e+00
5.500000000000000000e+01,5.142800702156066883e+00
5.600000000000000000e+01,5.222880634638517705e+00
5.700000000000000000e+01,5.301532760404593425e+00
5.800000000000000000e+01,5.378791683510227628e+00
5.900000000000000000e+01,5.454690094516640997e+00
6.000000000000000000e+01,5.529262130626677596e+00
6.100000000000000000e+01,5.602540179232573081e+00
6.200000000000000000e+01,5.674554904828357671e+00
6.300000000000000000e+01,5.745340917556183591e+00
6.400000000000000000e+01,5.814928898473471719e+00
6.500000000000000000e+01,5.883348335332649448e+00
6.600000000000000000e+01,5.950630088114971628e+00
6.700000000000000000e+01,6.016803286872016265e+00
6.800000000000000000e+01,6.081896431749894028e+00
6.900000000000000000e+01,6.145937397743218789e+00
7.000000000000000000e+01,6.208953472891249881e+00
7.100000000000000000e+01,6.270970591441142439e+00
7.200000000000000000e+01,6.332013942771499870e+00
7.300000000000000000e+01,6.392109487188689876e+00
7.400000000000000000e+01,6.451291832868552234e+00
7.500000000000000000e+01,6.509570444379650489e+00
7.600000000000000000e+01,6.566968777891848852e+00
7.700000000000000000e+01,6.623510849703372116e+00
7.800000000000000000e+01,6.679219952372572600e+00
7.900000000000000000e+01,6.734118711898607224e+00
8.000000000000000000e+01,6.788226599630609037e+00
8.100000000000000000e+01,6.841567930268487530e+00
8.200000000000000000e+01,6.894166566420610209e+00
8.300000000000000000e+01,6.946042074489148455e+00
8.400000000000000000e+01,6.997216019674161736e+00
8.500000000000000000e+01,7.047708996914860968e+00
8.600000000000000000e+01,7.097535823095604712e+00
8.700000000000000000e+01,7.146713500664593433e+00
8.800000000000000000e+01,7.195257678972635240e+00
8.900000000000000000e+01,7.243180737718199147e+00
9.000000000000000000e+01,7.290495303872304156e+00
9.100000000000000000e+01,7.337215975283200464e+00
9.200000000000000000e+01,7.383352326845527891e+00
9.300000000000000000e+01,7.428916431753789240e+00
9.400000000000000000e+01,7.473920195785678011e+00
9.500000000000000000e+01,7.518373297546230738e+00
9.600000000000000000e+01,7.562285775249315556e+00
9.700000000000000000e+01,7.605668208836127597e+00
9.800000000000000000e+01,7.648531890582883186e+00
9.900000000000000000e+01,7.690883246080023383e+00
1.000000000000000000e+02,7.732732908691796858e+00
1.010000000000000000e+02,7.774089684618320284e+00
1.020000000000000000e+02,7.814960842044526679e+00
1.030000000000000000e+02,7.855355226428228477e+00
1.040000000000000000e+02,7.895282054491715940e+00
1.050000000000000000e+02,7.934747550626973123e+00
1.060000000000000000e+02,7.973758592991720739e+00
1.070000000000000000e+02,8.012323411636574022e+00
1.080000000000000000e+02,8.050450080372138828e+00
1.090000000000000000e+02,8.088143483714969051e+00
1.100000000000000000e+02,8.125410429057630779e+00
1.110000000000000000e+02,8.162257451443982958e+00
1.120000000000000000e+02,8.198691523395542191e+00
1.130000000000000000e+02,8.234716929595869317e+00
1.140000000000000000e+02,8.270340175906349955e+00
1.150000000000000000e+02,8.305583131546692144e+00
1.160000000000000000e+02,8.340427025672996209e+00
1.170000000000000000e+02,8.374883222263516558e+00
1.180000000000000000e+02,8.408957719913949802e+00
1.190000000000000000e+02,8.442657446375001484e+00
1.200000000000000000e+02,8.475990549293447529e+00
1.210000000000000000e+02,8.508964410759938701e+00
1.220000000000000000e+02,8.541585679057302372e+00
1.230000000000000000e+02,8.573859820685933997e+00
1.240000000000000000e+02,8.605790059522291813e+00
1.250000000000000000e+02,8.637379499753500056e+00
1.260000000000000000e+02,8.668629728328960837e+00
1.270000000000000000e+02,8.699542260983719189e+00
1.280000000000000000e+02,8.730119004908839742e+00
1.290000000000000000e+02,8.760361481999458633e+00
1.300000000000000000e+02,8.790271447579829811e+00
1.310000000000000000e+02,8.819849678210964328e+00
1.320000000000000000e+02,8.849097797508541419e+00
1.330000000000000000e+02,8.878016614070675772e+00
1.340000000000000000e+02,8.906608803419288733e+00
1.350000000000000000e+02,8.934875622346572399e+00
1.360000000000000000e+02,8.962818556255633951e+00
1.370000000000000000e+02,8.990438442735481317e+00
1.380000000000000000e+02,9.017736066640260617e+00
1.390000000000000000e+02,9.044713305790359925e+00
1.400000000000000000e+02,9.071370964475338639e+00
1.410000000000000000e+02,9.097709087333559097e+00
1.420000000000000000e+02,9.123729371065556037e+00
1.430000000000000000e+02,9.149430922048869874e+00
1.440000000000000000e+02,9.174815056046501383e+00
1.450000000000000000e+02,9.199881087471220908e+00
1.460000000000000000e+02,9.224627620905270220e+00
1.470000000000000000e+02,9.249055305373781621e+00
1.480000000000000000e+02,9.273162423463606530e+00
1.490000000000000000e+02,9.296947524538566654e+00
1.500000000000000000e+02,9.320409281471977891e+00
1.510000000000000000e+02,9.343545010977887699e+00
1.520000000000000000e+02,9.366360712596444316e+00
1.530000000000000000e+02,9.388847353719729227e+00
1.540000000000000000e+02,9.411009378297331196e+00
1.550000000000000000e+02,9.432849128241542758e+00
1.560000000000000000e+02,9.454367940669403225e+00
1.570000000000000000e+02,9.475563302652389552e+00
1.580000000000000000e+02,9.496427897339144053e+00
1.590000000000000000e+02,9.516952548675115864e+00
1.600000000000000000e+02,9.537127928606331295e+00
1.610000000000000000e+02,9.556944938189564809e+00
1.620000000000000000e+02,9.576394951376528297e+00
1.630000000000000000e+02,9.595470688669982096e+00
1.640000000000000000e+02,9.614165044373555347e+00
1.650000000000000000e+02,9.632472212770064601e+00
1.660000000000000000e+02,9.650386149666093871e+00
1.670000000000000000e+02,9.667901823973249265e+00
1.680000000000000000e+02,9.685015319213498231e+00
1.690000000000000000e+02,9.701721944101787898e+00
1.700000000000000000e+02,9.718018348826436892e+00
1.710000000000000000e+02,9.733902127998911524e+00
1.720000000000000000e+02,9.749370447459476452e+00
1.730000000000000000e+02,9.764422258105103225e+00
1.740000000000000000e+02,9.779057531633499778e+00
1.750000000000000000e+02,9.793275657367374265e+00
1.760000000000000000e+02,9.807078614118994508e+00
1.770000000000000000e+02,9.820467535028562622e+00
1.780000000000000000e+02,9.833446593463017749e+00
1.790000000000000000e+02,9.846019341917768841e+00
1.800000000000000000e+02,9.858191251805999755e+00
1.810000000000000000e+02,9.869969212074197529e+00
1.820000000000000000e+02,9.881359358523631897e+00
1.830000000000000000e+02,9.892552137785347810e+00
1.840000000000000000e+02,9.903327813495389265e+00
1.850000000000000000e+02,9.913758396086175040e+00
1.860000000000000000e+02,9.923861963123695062e+00
1.870000000000000000e+02,9.933637639240565420e+00
1.880000000000000000e+02,9.943086626514022086e+00
1.890000000000000000e+02,9.952215139233796748e+00
1.900000000000000000e+02,9.961033534209697393e+00
1.910000000000000000e+02,9.969556278973318086e+00
1.920000000000000000e+02,9.977798631473525859e+00
1.930000000000000000e+02,9.985777228650196236e+00
1.940000000000000000e+02,9.993508559930520008e+00
1.950000000000000000e+02,1.000101002977788234e+01
1.960000000000000000e+02,1.000829808870294713e+01
1.970000000000000000e+02,1.001538824738295297e+01
1.980000000000000000e+02,1.002229800309556751e+01
1.990000000000000000e+02,1.002904229305626416e+01
2.000000000000000000e+02,1.003563677143970700e+01
2.010000000000000000e+02,1.004209571982066151e+01
2.020000000000000000e+02,1.004843379909030432e+01
2.030000000000000000e+02,1.005466466110741131e+01
2.040000000000000000e+02,1.006080037976733621e+01
2.050000000000000000e+02,1.006685377329752207e+01
2.060000000000000000e+02,1.007283690201155579e+01
2.070000000000000000e+02,1.007875980697228435e+01
2.080000000000000000e+02,1.008463432161589068e+01
2.090000000000000000e+02,1.009046900370655564e+01
2.100000000000000000e+02,1.009713278187830099e+01
2.110000000000000000e+02,1.010338114788167019e+01
2.120000000000000000e+02,1.010947976903589485e+01
2.130000000000000000e+02,1.011549324789693216e+01
2.140000000000000000e+02,1.012144279455439921e+01
2.150000000000000000e+02,1.012735499522351823e+01
2.160000000000000000e+02,1.013324639280963702e+01
2.170000000000000000e+02,1.013913368078747190e+01
2.180000000000000000e+02,1.014503051797905009e+01
2.190000000000000000e+02,1.015094504669956166e+01
2.200000000000000000e+02,1.015688571157998688e+01
2.210000000000000000e+02,1.016286080403187775e+01
2.220000000000000000e+02,1.016887563247966497e+01
2.230000000000000000e+02,1.017493604460330481e+01
2.240000000000000000e+02,1.018104650374322873e+01
2.250000000000000000e+02,1.018721201423062617e+01
2.260000000000000000e+02,1.019343631503700998e+01
2.270000000000000000e+02,1.019972244957033602e+01
2.280000000000000000e+02,1.020607636570917442e+01
2.290000000000000000e+02,1.021249960157200398e+01
2.300000000000000000e+02,1.021899738364424515e+01
2.310000000000000000e+02,1.022557188568891640e+01
2.320000000000000000e+02,1.023222873256966992e+01
2.330000000000000000e+02,1.023896826771460589e+01
2.340000000000000000e+02,1.024579629238172096e+01
2.350000000000000000e+02,1.025271578809943485e+01
2.360000000000000000e+02,1.025973015988994952e+01
2.370000000000000000e+02,1.026684312169906299e+01
2.380000000000000000e+02,1.027661448846466996e+01
2.390000000000000000e+02,1.028478423582780010e+01
2.400000000000000000e+02,1.029249517021637139e+01
2.410000000000000000e+02,1.030019269240589530e+01
2.420000000000000000e+02,1.030793469379143623e+01
2.430000000000000000e+02,1.031576760727103093e+01
2.440000000000000000e+02,1.032371737068909212e+01
2.450000000000000000e+02,1.033179736294241735e+01
2.460000000000000000e+02,1.034001824158045402e+01
2.470000000000000000e+02,1.034838774245938353e+01
2.480000000000000000e+02,1.035691430193444162e+01
2.490000000000000000e+02,1.036560247273598101e+01
2.500000000000000000e+02,1.037445719605712746e+01
2.510000000000000000e+02,1.038348944242800620e+01
2.520000000000000000e+02,1.039270271732812390e+01
2.530000000000000000e+02,1.040210545765484973e+01
2.540000000000000000e+02,1.041170407385267715e+01
2.550000000000000000e+02,1.042151298937755044e+01
2.560000000000000000e+02,1.043153627328171140e+01
2.570000000000000000e+02,1.044178738314971078e+01
2.580000000000000000e+02,1.045227246103359420e+01
2.590000000000000000e+02,1.046300505135382863e+01
2.600000000000000000e+02,1.047399481622519879e+01
2.610000000000000000e+02,1.048525693999007657e+01
2.620000000000000000e+02,1.049680590127427493e+01
2.630000000000000000e+02,1.050865165620024300e+01
2.640000000000000000e+02,1.052081353616431159e+01
2.650000000000000000e+02,1.053330609814603314e+01
2.660000000000000000e+02,1.054614874779134226e+01
2.670000000000000000e+02,1.055936356899047723e+01
2.680000000000000000e+02,1.057295380832323417e+01
2.690000000000000000e+02,1.058695288041550775e+01
2.700000000000000000e+02,1.060138302203887939e+01
2.710000000000000000e+02,1.062256662423642339e+01
2.720000000000000000e+02,1.063906206698199597e+01
2.730000000000000000e+02,1.065511513231454188e+01
2.740000000000000000e+02,1.067165542542917755e+01
2.750000000000000000e+02,1.068869710437872200e+01
2.760000000000000000e+02,1.070634386460061371e+01
2.770000000000000000e+02,1.072462120233788063e+01
2.780000000000000000e+02,1.074356610006792145e+01
2.790000000000000000e+02,1.076321041366352560e+01
2.800000000000000000e+02,1.078359994362791952e+01
2.810000000000000000e+02,1.080476333214017792e+01
2.820000000000000000e+02,1.082674699336273605e+01
2.830000000000000000e+02,1.084958078220068423e+01
2.840000000000000000e+02,1.087331550433262706e+01
2.850000000000000000e+02,1.089797458519802298e+01
2.860000000000000000e+02,1.092358826532057314e+01
2.870000000000000000e+02,1.095019075149911458e+01
2.880000000000000000e+02,1.097781228390118002e+01
2.890000000000000000e+02,1.100646573485106927e+01
2.900000000000000000e+02,1.103617199734583565e+01
2.910000000000000000e+02,1.106692656378212725e+01
2.920000000000000000e+02,1.109875085359125535e+01
2.930000000000000000e+02,1.113163920794642436e+01
2.940000000000000000e+02,1.116556867289541621e+01
2.950000000000000000e+02,1.120054759635544350e+01
2.960000000000000000e+02,1.123653474531484520e+01
2.970000000000000000e+02,1.127349801092046455e+01
2.980000000000000000e+02,1.131136147608150111e+01
2.990000000000000000e+02,1.135000750583498430e+01
3.000000000000000000e+02,1.138923499337214373e+01
3.010000000000000000e+02,1.142879172992711467e+01
3.020000000000000000e+02,1.146835386408185542e+01
3.030000000000000000e+02,1.150755801734038286e+01
3.040000000000000000e+02,1.154606027981626504e+01
3.050000000000000000e+02,1.158355547885714643e+01
3.060000000000000000e+02,1.161984194203674825e+01
3.070000000000000000e+02,1.165481027900829503e+01
3.080000000000000000e+02,1.168844212032977659e+01
3.090000000000000000e+02,1.172076681163133749e+01
3.100000000000000000e+02,1.175185815515610166e+01
3.110000000000000000e+02,1.178181773018136624e+01
3.120000000000000000e+02,1.181075680406069317e+01
3.130000000000000000e+02,1.183878181786373140e+01
3.140000000000000000e+02,1.186598235329996420e+01
3.150000000000000000e+02,1.189242808556815589e+01
3.160000000000000000e+02,1.191818176137276808e+01
3.170000000000000000e+02,1.194328653405861296e+01
3.180000000000000000e+02,1.196778456944662139e+01
3.190000000000000000e+02,1.199171995373317223e+01
3.200000000000000000e+02,1.201511420337682878e+01
3.210000000000000000e+02,1.203800219071127309e+01
3.220000000000000000e+02,1.206040648044603536e+01
3.230000000000000000e+02,1.208234912457804455e+01
3.240000000000000000e+02,1.210385096732747812e+01
3.250000000000000000e+02,1.212492913207330858e+01
3.260000000000000000e+02,1.214560162043510516e+01
3.270000000000000000e+02,1.216588050576296531e+01
3.280000000000000000e+02,1.218577984424081073e+01
3.290000000000000000e+02,1.220531407793810530e+01
3.300000000000000000e+02,1.222449200431004002e+01
3.310000000000000000e+02,1.224332538226066802e+01
3.320000000000000000e+02,1.226182204018609667e+01
3.330000000000000000e+02,1.227999300364096769e+01
3.340000000000000000e+02,1.229784765350642139e+01
3.350000000000000000e+02,1.231539020392542838e+01
3.360000000000000000e+02,1.233263155425095370e+01
3.370000000000000000e+02,1.234957791605198629e+01
3.380000000000000000e+02,1.236623355989500261e+01
3.390000000000000000e+02,1.238260779086601637e+01
3.400000000000000000e+02,1.239870551864637349e+01
3.410000000000000000e+02,1.241453248194448022e+01
3.420000000000000000e+02,1.243009592175457279e+01
3.430000000000000000e+02,1.244539995473162008e+01
3.440000000000000000e+02,1.246044832771005950e+01
3.450000000000000000e+02,1.247524743210879095e+01
3.460000000000000000e+02,1.248980222214576941e+01
3.470000000000000000e+02,1.250411660778751965e+01
3.480000000000000000e+02,1.251819533562241027e+01
3.490000000000000000e+02,1.253204144662568709e+01
3.500000000000000000e+02,1.254566276671691050e+01
3.510000000000000000e+02,1.255905842362330560e+01
3.520000000000000000e+02,1.257223619646940804e+01
3.530000000000000000e+02,1.258519734917248378e+01
3.540000000000000000e+02,1.259794820498930257e+01
3.550000000000000000e+02,1.261048957007999327e+01
3.560000000000000000e+02,1.262282751553424376e+01
3.570000000000000000e+02,1.263496599432308543e+01
3.580000000000000000e+02,1.264690788764010243e+01
3.590000000000000000e+02,1.265865508896615310e+01
3.600000000000000000e+02,1.267021194102473913e+01
3.610000000000000000e+02,1.268158062862463709e+01
3.620000000000000000e+02,1.269276715694684299e+01
3.630000000000000000e+02,1.270377109164617124e+01
3.640000000000000000e+02,1.271459821471125196e+01
3.650000000000000000e+02,1.272524890591995295e+01
3.660000000000000000e+02,1.273572814829486610e+01
3.670000000000000000e+02,1.274603886194987901e+01
3.680000000000000000e+02,1.275618184974874758e+01
3.690000000000000000e+02,1.276616321272126164e+01
3.700000000000000000e+02,1.277598240452342715e+01
3.710000000000000000e+02,1.278564352558588979e+01
3.720000000000000000e+02,1.279514871024695388e+01
3.730000000000000000e+02,1.280450206889057618e+01
3.740000000000000000e+02,1.281370561038536415e+01
3.750000000000000000e+02,1.282275947138414196e+01
3.760000000000000000e+02,1.283166825724077320e+01
3.770000000000000000e+02,1.284043376965573557e+01
3.780000000000000000e+02,1.284905885522097435e+01
3.790000000000000000e+02,1.285754569943989978e+01
3.800000000000000000e+02,1.286589625588298524e+01
3.810000000000000000e+02,1.287411309561657013e+01
3.820000000000000000e+02,1.288219756967924923e+01
3.830000000000000000e+02,1.289015200110194570e+01
3.840000000000000000e+02,1.289797848302064232e+01
3.850000000000000000e+02,1.290568056725168589e+01
3.860000000000000000e+02,1.291325855269901091e+01
3.870000000000000000e+02,1.292071560511578454e+01
3.880000000000000000e+02,1.292805290814825625e+01
3.890000000000000000e+02,1.293527338289393747e+01
3.900000000000000000e+02,1.294237748548404277e+01
3.910000000000000000e+02,1.294936901503259818e+01
3.920000000000000000e+02,1.295624742510300820e+01
3.930000000000000000e+02,1.296301690309982746e+01
3.940000000000000000e+02,1.296967702071167849e+01
3.950000000000000000e+02,1.297623179553324135e+01
3.960000000000000000e+02,1.298268036242593126e+01
3.970000000000000000e+02,1.298902678105711317e+01
3.980000000000000000e+02,1.299527141681133635e+01
