# Time [s], Convective Heat Transfer Coefficient [W/m2K]
1.000000000000000000e+00,0.000000000000000000e+00
2.000000000000000000e+00,0.000000000000000000e+00
3.000000000000000000e+00,0.000000000000000000e+00
4.000000000000000000e+00,0.000000000000000000e+00
5.000000000000000000e+00,1.915079995362458862e-02
6.000000000000000000e+00,3.040000000141642594e-02
7.000000000000000000e+00,4.825699198029582276e-02
8.000000000000000000e+00,7.413038420798434558e-02
9.000000000000000000e+00,1.072208617599073044e-01
1.000000000000000000e+01,1.482074946900517609e-01
1.100000000000000000e+01,1.970287247488810012e-01
1.200000000000000000e+01,2.532488607251064949e-01
1.300000000000000000e+01,3.164301537075934756e-01
1.400000000000000000e+01,3.858044335291617166e-01
1.500000000000000000e+01,4.606034446558557871e-01
1.600000000000000000e+01,5.400664616871376777e-01
1.700000000000000000e+01,6.234440448123240719e-01
1.800000000000000000e+01,7.100407545686312494e-01
1.900000000000000000e+01,7.992423279762516097e-01
2.000000000000000000e+01,8.904911624665201586e-01
2.100000000000000000e+01,9.833007613022717308e-01
2.200000000000000000e+01,1.077255667265422989e+00
2.300000000000000000e+01,1.171992435164938673e+00
2.400000000000000000e+01,1.267194892932517636e+00
2.500000000000000000e+01,1.362600543701807165e+00
2.600000000000000000e+01,1.457987302627951731e+00
2.700000000000000000e+01,1.553163621415712514e+00
2.800000000000000000e+01,1.647968970980803638e+00
2.900000000000000000e+01,1.742268633622866991e+00
3.000000000000000000e+01,1.835951335438792853e+00
3.100000000000000000e+01,1.928923383565540828e+00
3.200000000000000000e+01,2.021104067393346693e+00
3.300000000000000000e+01,2.112432018448624493e+00
3.400000000000000000e+01,2.202853771010165662e+00
3.500000000000000000e+01,2.292325861629127548e+00
3.600000000000000000e+01,2.380812133205017389e+00
3.700000000000000000e+01,2.468283527925235088e+00
3.800000000000000000e+01,2.554719152300733320e+00
3.900000000000000000e+01,2.640102535007488260e+00
4.000000000000000000e+01,2.724415596230715053e+00
4.100000000000000000e+01,2.807648891005408043e+00
4.200000000000000000e+01,2.889796916812197303e+00
4.300000000000000000e+01,2.970851631371448143e+00
4.400000000000000000e+01,3.050811140140790911e+00
4.500000000000000000e+01,3.129671349854374895e+00
4.600000000000000000e+01,3.207433736325042251e+00
4.700000000000000000e+01,3.284100124712032720e+00
4.800000000000000000e+01,3.359669348777500897e+00
4.900000000000000000e+01,3.434147577469913504e+00
5.000000000000000000e+01,3.507539156545195436e+00
5.100000000000000000e+01,3.579849671927405552e+00
5.200000000000000000e+01,3.651085944333598121e+00
5.300000000000000000e+01,3.721255436052280263e+00
5.400000000000000000e+01,3.790367093720834468e+00
5.500000000000000000e+01,3.858432570131222761e+00
5.600000000000000000e+01,3.925464391760688621e+00
5.700000000000000000e+01,3.991477063174424522e+00
5.800000000000000000e+01,4.056481565101500486e+00
5.900000000000000000e+01,4.120496045110893846e+00
6.000000000000000000e+01,4.183538745657496172e+00
6.100000000000000000e+01,4.245624963567558474e+00
6.200000000000000000e+01,4.306773492959546701e+00
6.300000000000000000e+01,4.367004894328291975e+00
6.400000000000000000e+01,4.426335387515849540e+00
6.500000000000000000e+01,4.484783864493913974e+00
6.600000000000000000e+01,4.542367008336932521e+00
6.700000000000000000e+01,4.599102553165051788e+00
6.800000000000000000e+01,4.655005543150416258e+00
6.900000000000000000e+01,4.710092189161645848e+00
7.000000000000000000e+01,4.764377065371546038e+00
7.100000000000000000e+01,4.817876128498252086e+00
7.200000000000000000e+01,4.870605598065047559e+00
7.300000000000000000e+01,4.922577020915662516e+00
7.400000000000000000e+01,4.973807377827181853e+00
7.500000000000000000e+01,5.024312253875824474e+00
7.600000000000000000e+01,5.074104273609679083e+00
7.700000000000000000e+01,5.123198985454574306e+00
7.800000000000000000e+01,5.171610588778797535e+00
7.900000000000000000e+01,5.219354106234716184e+00
8.000000000000000000e+01,5.266442639176948326e+00
8.100000000000000000e+01,5.312889557102169036e+00
8.200000000000000000e+01,5.358707771900968808e+00
8.300000000000000000e+01,5.403908525055872047e+00
8.400000000000000000e+01,5.448503882438672008e+00
8.500000000000000000e+01,5.492504410415206095e+00
8.600000000000000000e+01,5.535921197097393609e+00
8.700000000000000000e+01,5.578764452377148686e+00
8.800000000000000000e+01,5.621042642869797490e+00
8.900000000000000000e+01,5.662766411875745476e+00
9.000000000000000000e+01,5.703945431262086530e+00
9.100000000000000000e+01,5.744588112536378688e+00
9.200000000000000000e+01,5.784705574140732054e+00
9.300000000000000000e+01,5.824307141250733899e+00
9.400000000000000000e+01,5.863401519989603905e+00
9.500000000000000000e+01,5.901998046152104216e+00
9.600000000000000000e+01,5.940105913621544609e+00
9.700000000000000000e+01,5.977733494815664628e+00
9.800000000000000000e+01,6.014891270732048767e+00
9.900000000000000000e+01,6.051586748452296938e+00
1.000000000000000000e+02,6.087827829231295951e+00
1.010000000000000000e+02,6.123621754868782574e+00
1.020000000000000000e+02,6.158976163927239789e+00
1.030000000000000000e+02,6.193897604690652869e+00
1.040000000000000000e+02,6.228392350197569982e+00
1.050000000000000000e+02,6.262468203926178312e+00
1.060000000000000000e+02,6.296130815414605841e+00
1.070000000000000000e+02,6.329386424154432866e+00
1.080000000000000000e+02,6.362240354141723842e+00
1.090000000000000000e+02,6.394699493911160992e+00
1.100000000000000000e+02,6.426769441130796956e+00
1.110000000000000000e+02,6.458456980487153665e+00
1.120000000000000000e+02,6.489767664502744005e+00
1.130000000000000000e+02,6.520707249782406123e+00
1.140000000000000000e+02,6.551281797275064100e+00
1.150000000000000000e+02,6.581497389002713305e+00
1.160000000000000000e+02,6.611359057085702595e+00
1.170000000000000000e+02,6.640872955107829156e+00
1.180000000000000000e+02,6.670044468084038947e+00
1.190000000000000000e+02,6.698877725284122064e+00
1.200000000000000000e+02,6.727377982321633532e+00
1.210000000000000000e+02,6.755550035699193323e+00
1.220000000000000000e+02,6.783398497198926513e+00
1.230000000000000000e+02,6.810926792914419714e+00
1.240000000000000000e+02,6.838138963651512192e+00
1.250000000000000000e+02,6.865039889540712537e+00
1.260000000000000000e+02,6.891632547226047123e+00
1.270000000000000000e+02,6.917920529305424893e+00
1.280000000000000000e+02,6.943908264271194675e+00
1.290000000000000000e+02,6.969598576464751893e+00
1.300000000000000000e+02,6.994996094682286447e+00
1.310000000000000000e+02,7.020104575134451963e+00
1.320000000000000000e+02,7.044926461700919518e+00
1.330000000000000000e+02,7.069465977185621419e+00
1.340000000000000000e+02,7.093726736457721671e+00
1.350000000000000000e+02,7.117711074869180088e+00
1.360000000000000000e+02,7.141423764004343866e+00
1.370000000000000000e+02,7.164866459558736800e+00
1.380000000000000000e+02,7.188042787536366163e+00
1.390000000000000000e+02,7.210955355017127033e+00
1.400000000000000000e+02,7.233606901558547797e+00
1.410000000000000000e+02,7.255999628549540503e+00
1.420000000000000000e+02,7.278136100050998536e+00
1.430000000000000000e+02,7.300017914239392169e+00
1.440000000000000000e+02,7.321648134461430146e+00
1.450000000000000000e+02,7.343027990170715391e+00
1.460000000000000000e+02,7.364159736389410682e+00
1.470000000000000000e+02,7.385044692905609942e+00
1.480000000000000000e+02,7.405685832023372939e+00
1.490000000000000000e+02,7.426084336876654923e+00
1.500000000000000000e+02,7.446241550715912538e+00
1.510000000000000000e+02,7.466159812576244725e+00
1.520000000000000000e+02,7.485840968904659221e+00
1.530000000000000000e+02,7.505285971221438146e+00
1.540000000000000000e+02,7.524497380308663885e+00
1.550000000000000000e+02,7.543476239941120376e+00
1.560000000000000000e+02,7.562223752711970448e+00
1.570000000000000000e+02,7.580741887221914332e+00
1.580000000000000000e+02,7.599030927105830280e+00
1.590000000000000000e+02,7.617092739512414390e+00
1.600000000000000000e+02,7.634927926368903606e+00
1.610000000000000000e+02,7.652538452494598076e+00
1.620000000000000000e+02,7.669924629741776023e+00
1.630000000000000000e+02,7.687086937251804031e+00
1.640000000000000000e+02,7.704027003640286253e+00
1.650000000000000000e+02,7.720745225404638035e+00
1.660000000000000000e+02,7.737242944470761330e+00
1.670000000000000000e+02,7.753521065101541154e+00
1.680000000000000000e+02,7.769580257088541053e+00
1.690000000000000000e+02,7.785421733070450934e+00
1.700000000000000000e+02,7.801046275834294441e+00
1.710000000000000000e+02,7.816454821777425899e+00
1.720000000000000000e+02,7.831649030504874709e+00
1.730000000000000000e+02,7.846628989605371807e+00
1.740000000000000000e+02,7.861396275201935957e+00
1.750000000000000000e+02,7.875952225755302294e+00
1.760000000000000000e+02,7.890297946793833894e+00
1.770000000000000000e+02,7.904434690097195571e+00
1.780000000000000000e+02,7.918363664636907551e+00
1.790000000000000000e+02,7.932086409703118512e+00
1.800000000000000000e+02,7.945603677041391144e+00
1.810000000000000000e+02,7.958917107639577715e+00
1.820000000000000000e+02,7.972028296227226640e+00
1.830000000000000000e+02,7.984939159699062650e+00
1.840000000000000000e+02,7.997651749449027569e+00
1.850000000000000000e+02,8.010167337668061549e+00
1.860000000000000000e+02,8.022488066917293992e+00
1.870000000000000000e+02,8.034617118668304414e+00
1.880000000000000000e+02,8.046555444280627967e+00
1.890000000000000000e+02,8.058306485653085716e+00
1.900000000000000000e+02,8.069873083964889560e+00
1.910000000000000000e+02,8.081257310129741356e+00
1.920000000000000000e+02,8.092462442700259828e+00
1.930000000000000000e+02,8.103491882527681156e+00
1.940000000000000000e+02,8.114348085542433253e+00
1.950000000000000000e+02,8.125034881516116414e+00
1.960000000000000000e+02,8.135555334763999724e+00
1.970000000000000000e+02,8.145913872127474420e+00
1.980000000000000000e+02,8.156113099458268678e+00
1.990000000000000000e+02,8.166158389487051750e+00
2.000000000000000000e+02,8.176052420623278749e+00
2.010000000000000000e+02,8.185800276973145273e+00
2.020000000000000000e+02,8.195406109484080659e+00
2.030000000000000000e+02,8.204874017681454745e+00
2.040000000000000000e+02,8.214209786379910838e+00
2.050000000000000000e+02,8.223416886618556632e+00
2.060000000000000000e+02,8.232500820806993858e+00
2.070000000000000000e+02,8.241466516371108497e+00
2.080000000000000000e+02,8.250318849258071907e+00
2.090000000000000000e+02,8.259063160526064706e+00
2.100000000000000000e+02,8.267704738870179426e+00
2.110000000000000000e+02,8.276248651456921124e+00
2.120000000000000000e+02,8.284700429511067554e+00
2.130000000000000000e+02,8.293065554032347464e+00
2.140000000000000000e+02,8.301349457340146287e+00
2.150000000000000000e+02,8.309557694054337418e+00
2.160000000000000000e+02,8.317696109993374165e+00
2.170000000000000000e+02,8.325769489209502439e+00
2.180000000000000000e+02,8.333784093232239343e+00
2.190000000000000000e+02,8.341745965319626421e+00
2.200000000000000000e+02,8.349660429508269033e+00
2.210000000000000000e+02,8.357533438720585295e+00
2.220000000000000000e+02,8.365370231117166711e+00
2.230000000000000000e+02,8.373176839890582812e+00
2.240000000000000000e+02,8.380958919615657976e+00
2.250000000000000000e+02,8.388722748123351280e+00
2.260000000000000000e+02,8.396473062408329469e+00
2.270000000000000000e+02,8.404215890437532366e+00
2.280000000000000000e+02,8.411957215878144822e+00
2.290000000000000000e+02,8.419702317961897720e+00
2.300000000000000000e+02,8.427457426066895962e+00
2.310000000000000000e+02,8.435227901091890246e+00
2.320000000000000000e+02,8.443018900030645923e+00
2.330000000000000000e+02,8.450836688831120824e+00
2.340000000000000000e+02,8.458686832054878479e+00
2.350000000000000000e+02,8.466575015372221458e+00
2.360000000000000000e+02,8.474507043869177636e+00
2.370000000000000000e+02,8.482487864128959387e+00
2.380000000000000000e+02,8.490523682586065490e+00
2.390000000000000000e+02,8.498620494175957774e+00
2.400000000000000000e+02,8.506783436344635518e+00
2.410000000000000000e+02,8.515018572267900154e+00
2.420000000000000000e+02,8.523331752944052653e+00
2.430000000000000000e+02,8.531728457263998422e+00
2.440000000000000000e+02,8.540215078457626063e+00
2.450000000000000000e+02,8.548797952624843433e+00
2.460000000000000000e+02,8.557482078957104221e+00
2.470000000000000000e+02,8.566274481823748843e+00
2.480000000000000000e+02,8.575180845359497539e+00
2.490000000000000000e+02,8.584208067262627750e+00
2.500000000000000000e+02,8.593363134524473423e+00
2.510000000000000000e+02,8.602652329381383467e+00
2.520000000000000000e+02,8.612082970824779693e+00
2.530000000000000000e+02,8.621660723704904328e+00
2.540000000000000000e+02,8.631394799817382335e+00
2.550000000000000000e+02,8.641291487714457986e+00
2.560000000000000000e+02,8.651358718599597708e+00
2.570000000000000000e+02,8.661605420111813558e+00
2.580000000000000000e+02,8.672039788604815058e+00
2.590000000000000000e+02,8.682669915039186392e+00
2.600000000000000000e+02,8.693505795854262530e+00
2.610000000000000000e+02,8.704556523761915798e+00
2.620000000000000000e+02,8.715832297362101855e+00
2.630000000000000000e+02,8.727343633059806649e+00
2.640000000000000000e+02,8.739101048310343955e+00
2.650000000000000000e+02,8.751116278058733045e+00
2.660000000000000000e+02,8.763401946149059540e+00
2.670000000000000000e+02,8.775971088836284295e+00
2.680000000000000000e+02,8.788836533784980531e+00
2.690000000000000000e+02,8.802012102436163943e+00
2.700000000000000000e+02,8.815514091332174118e+00
2.710000000000000000e+02,8.829359420422834503e+00
2.720000000000000000e+02,8.843563214605659084e+00
2.730000000000000000e+02,8.858144487394193689e+00
2.740000000000000000e+02,8.873122047026136272e+00
2.750000000000000000e+02,8.888517889510380243e+00
2.760000000000000000e+02,8.904352693725474666e+00
2.770000000000000000e+02,8.920649205330114739e+00
2.780000000000000000e+02,8.937433347194138733e+00
2.790000000000000000e+02,8.954732233511698780e+00
2.800000000000000000e+02,8.972574550175925978e+00
2.810000000000000000e+02,8.990988604599925438e+00
2.820000000000000000e+02,9.010007629379886751e+00
2.830000000000000000e+02,9.029667336858141269e+00
2.840000000000000000e+02,9.050003954388593286e+00
2.850000000000000000e+02,9.071057284160012557e+00
2.860000000000000000e+02,9.092871404794397705e+00
2.870000000000000000e+02,9.115488857852914961e+00
2.880000000000000000e+02,9.138957049603430249e+00
2.890000000000000000e+02,9.163328453321970102e+00
2.900000000000000000e+02,9.188653712650006966e+00
2.910000000000000000e+02,9.214992464343572109e+00
2.920000000000000000e+02,9.242401712247396262e+00
2.930000000000000000e+02,9.270942428871109087e+00
2.940000000000000000e+02,9.300677785037793299e+00
2.950000000000000000e+02,9.331666852347602514e+00
2.960000000000000000e+02,9.363975098874876224e+00
2.970000000000000000e+02,9.397664029101377992e+00
2.980000000000000000e+02,9.432786899969970662e+00
2.990000000000000000e+02,9.469399393716820157e+00
3.000000000000000000e+02,9.507538210585732230e+00
3.010000000000000000e+02,9.547230370498256846e+00
3.020000000000000000e+02,9.588487486350599553e+00
3.030000000000000000e+02,9.631296603288541647e+00
3.040000000000000000e+02,9.675625375019555108e+00
3.050000000000000000e+02,9.721400074098365707e+00
3.060000000000000000e+02,9.768523736620831954e+00
3.070000000000000000e+02,9.816860147869302722e+00
3.080000000000000000e+02,9.866242690925542291e+00
3.090000000000000000e+02,9.916482668599664763e+00
3.100000000000000000e+02,9.967356792744928029e+00
3.110000000000000000e+02,1.001863731125578560e+01
3.120000000000000000e+02,1.007008980311512580e+01
3.130000000000000000e+02,1.012149364356283598e+01
3.140000000000000000e+02,1.017264779135746622e+01
3.150000000000000000e+02,1.022337221509645211e+01
3.160000000000000000e+02,1.027351836793836348e+01
3.170000000000000000e+02,1.032296978549700839e+01
3.180000000000000000e+02,1.037164111725271098e+01
3.190000000000000000e+02,1.041947162149239325e+01
3.200000000000000000e+02,1.046642577673859620e+01
3.210000000000000000e+02,1.051248457522470758e+01
3.220000000000000000e+02,1.055764402782654265e+01
3.230000000000000000e+02,1.060191158758591712e+01
3.240000000000000000e+02,1.064530215737381624e+01
3.250000000000000000e+02,1.068783779462378725e+01
3.260000000000000000e+02,1.072954164841680758e+01
3.270000000000000000e+02,1.077043783670660559e+01
3.280000000000000000e+02,1.081055503705122156e+01
3.290000000000000000e+02,1.084991858684690769e+01
3.300000000000000000e+02,1.088855408353588849e+01
3.310000000000000000e+02,1.092649063329324477e+01
3.320000000000000000e+02,1.096375043100601054e+01
3.330000000000000000e+02,1.100035897848118438e+01
3.340000000000000000e+02,1.103633855500053862e+01
3.350000000000000000e+02,1.107171215985474788e+01
3.360000000000000000e+02,1.110649876151519244e+01
3.370000000000000000e+02,1.114071749352186025e+01
3.380000000000000000e+02,1.117438710001727564e+01
3.390000000000000000e+02,1.120752474851642866e+01
3.400000000000000000e+02,1.124014673635431905e+01
3.410000000000000000e+02,1.127226981593934596e+01
3.420000000000000000e+02,1.130391000091792542e+01
3.430000000000000000e+02,1.133507849646820986e+01
3.440000000000000000e+02,1.136579008437205829e+01
3.450000000000000000e+02,1.139605789624252274e+01
3.460000000000000000e+02,1.142589238855617495e+01
3.470000000000000000e+02,1.145530730568174071e+01
3.480000000000000000e+02,1.148431196898962270e+01
3.490000000000000000e+02,1.151291660412241846e+01
3.500000000000000000e+02,1.154113153221254784e+01
3.510000000000000000e+02,1.156896542303092090e+01
3.520000000000000000e+02,1.159642803720179316e+01
3.530000000000000000e+02,1.162352777850957430e+01
3.540000000000000000e+02,1.165027319539310291e+01
3.550000000000000000e+02,1.167667289528293928e+01
3.560000000000000000e+02,1.170273366633138856e+01
3.570000000000000000e+02,1.172846349920539666e+01
3.580000000000000000e+02,1.175386766599722144e+01
3.590000000000000000e+02,1.177895468712767979e+01
3.600000000000000000e+02,1.180373021577490000e+01
3.610000000000000000e+02,1.182820019613465412e+01
3.620000000000000000e+02,1.185237069276354838e+01
3.630000000000000000e+02,1.187624730922980021e+01
3.640000000000000000e+02,1.189983627395763577e+01
3.650000000000000000e+02,1.192314237128954879e+01
3.660000000000000000e+02,1.194617118606812767e+01
3.670000000000000000e+02,1.196892778248379230e+01
3.680000000000000000e+02,1.199141736686712001e+01
3.690000000000000000e+02,1.201364415111457973e+01
3.700000000000000000e+02,1.203561193809196794e+01
3.710000000000000000e+02,1.205732533801923978e+01
3.720000000000000000e+02,1.207878943425955853e+01
3.730000000000000000e+02,1.210000865701122130e+01
3.740000000000000000e+02,1.212098552124409423e+01
3.750000000000000000e+02,1.214172518671896661e+01
3.760000000000000000e+02,1.216223098232566890e+01
3.770000000000000000e+02,1.218250664646478221e+01
3.780000000000000000e+02,1.220255616394483056e+01
3.790000000000000000e+02,1.222238125542161313e+01
3.800000000000000000e+02,1.224198774156437963e+01
3.810000000000000000e+02,1.226137722513866279e+01
3.820000000000000000e+02,1.228055391132643237e+01
3.830000000000000000e+02,1.229952077627317486e+01
3.840000000000000000e+02,1.231828004972483548e+01
3.850000000000000000e+02,1.233683584199931893e+01
3.860000000000000000e+02,1.235519005224662692e+01
3.870000000000000000e+02,1.237334607196138592e+01
3.880000000000000000e+02,1.239130662907142799e+01
3.890000000000000000e+02,1.240907463444647796e+01
3.900000000000000000e+02,1.242665264927675928e+01
3.910000000000000000e+02,1.244404175669490797e+01
3.920000000000000000e+02,1.246124670891739150e+01
3.930000000000000000e+02,1.247826978783762897e+01
3.940000000000000000e+02,1.249511151419186206e+01
3.950000000000000000e+02,1.251177657889740225e+01
3.960000000000000000e+02,1.252826580807845858e+01
3.970000000000000000e+02,1.254458142143776378e+01
3.980000000000000000e+02,1.256072604991620345e+01
