# Time [s], Convective Heat Transfer Coefficient [W/m2K]
1.000000000000000000e+00,0.000000000000000000e+00
2.000000000000000000e+00,0.000000000000000000e+00
3.000000000000000000e+00,0.000000000000000000e+00
4.000000000000000000e+00,0.000000000000000000e+00
5.000000000000000000e+00,1.915079995362458862e-02
6.000000000000000000e+00,3.748642353082986406e-02
7.000000000000000000e+00,5.983475718274645916e-02
8.000000000000000000e+00,9.034761368187844977e-02
9.000000000000000000e+00,1.289100765451444419e-01
1.000000000000000000e+01,1.760599575334635680e-01
1.100000000000000000e+01,2.313289367530153018e-01
1.200000000000000000e+01,2.941054473588986529e-01
1.300000000000000000e+01,3.636440260174493844e-01
1.400000000000000000e+01,4.390155365080443128e-01
1.500000000000000000e+01,5.193166749894995160e-01
1.600000000000000000e+01,6.036913721129498756e-01
1.700000000000000000e+01,6.913395630106425882e-01
1.800000000000000000e+01,7.815412200648252927e-01
1.900000000000000000e+01,8.736836258820886991e-01
2.000000000000000000e+01,9.672264614110744896e-01
2.100000000000000000e+01,1.061714058291613361e+00
2.200000000000000000e+01,1.156755798480313846e+00
2.300000000000000000e+01,1.252023725150685829e+00
2.400000000000000000e+01,1.347243598170043910e+00
2.500000000000000000e+01,1.442187761657038658e+00
2.600000000000000000e+01,1.536662828151101445e+00
2.700000000000000000e+01,1.630514518856284178e+00
2.800000000000000000e+01,1.723611794324791058e+00
2.900000000000000000e+01,1.815853484268940887e+00
3.000000000000000000e+01,1.907151340758906466e+00
3.100000000000000000e+01,1.997437820459676994e+00
3.200000000000000000e+01,2.086661859713170308e+00
3.300000000000000000e+01,2.174782957551858242e+00
3.400000000000000000e+01,2.261768862165144611e+00
3.500000000000000000e+01,2.347597042928759592e+00
3.600000000000000000e+01,2.432253109073564179e+00
3.700000000000000000e+01,2.515729595402156793e+00
3.800000000000000000e+01,2.598023639216196834e+00
3.900000000000000000e+01,2.679134551329405145e+00
4.000000000000000000e+01,2.759068151326481200e+00
4.100000000000000000e+01,2.837832388690493257e+00
4.200000000000000000e+01,2.915434697842463674e+00
4.300000000000000000e+01,2.991887994358214176e+00
4.400000000000000000e+01,3.067209468846336051e+00
4.500000000000000000e+01,3.141409612669644691e+00
4.600000000000000000e+01,3.214508099811131281e+00
4.700000000000000000e+01,3.286520012686481529e+00
4.800000000000000000e+01,3.357463046932191553e+00
4.900000000000000000e+01,3.427356029065412368e+00
5.000000000000000000e+01,3.496218073353267730e+00
5.100000000000000000e+01,3.564066465427389030e+00
5.200000000000000000e+01,3.630918484378408806e+00
5.300000000000000000e+01,3.696795852118800241e+00
5.400000000000000000e+01,3.761716119108736933e+00
5.500000000000000000e+01,3.825698165497244396e+00
5.600000000000000000e+01,3.888759610765845753e+00
5.700000000000000000e+01,3.950919815237855293e+00
5.800000000000000000e+01,4.012196308786490029e+00
5.900000000000000000e+01,4.072607361909863499e+00
6.000000000000000000e+01,4.132170009209163553e+00
6.100000000000000000e+01,4.190902474462642857e+00
6.200000000000000000e+01,4.248820306533649394e+00
6.300000000000000000e+01,4.305940076422126950e+00
6.400000000000000000e+01,4.362278756843535277e+00
6.500000000000000000e+01,4.417853739121988532e+00
6.600000000000000000e+01,4.472678111921527311e+00
6.700000000000000000e+01,4.526767756337373605e+00
6.800000000000000000e+01,4.580139420286527319e+00
6.900000000000000000e+01,4.632805349742547207e+00
7.000000000000000000e+01,4.684780528366842667e+00
7.100000000000000000e+01,4.736080161102104391e+00
7.200000000000000000e+01,4.786715589300113649e+00
7.300000000000000000e+01,4.836701971011289736e+00
7.400000000000000000e+01,4.886050471211082602e+00
7.500000000000000000e+01,4.934775365904957134e+00
7.600000000000000000e+01,4.982887548929610944e+00
7.700000000000000000e+01,5.030400710307185719e+00
7.800000000000000000e+01,5.077324752432309296e+00
7.900000000000000000e+01,5.123673254032179436e+00
8.000000000000000000e+01,5.169455905842498922e+00
8.100000000000000000e+01,5.214683400437655436e+00
8.200000000000000000e+01,5.259367337386679608e+00
8.300000000000000000e+01,5.303516726944413229e+00
8.400000000000000000e+01,5.347143925372030537e+00
8.500000000000000000e+01,5.390257189337642529e+00
8.600000000000000000e+01,5.432865592006066890e+00
8.700000000000000000e+01,5.474979500825864598e+00
8.800000000000000000e+01,5.516607936343578267e+00
8.900000000000000000e+01,5.557758516186456887e+00
9.000000000000000000e+01,5.598442221241474392e+00
9.100000000000000000e+01,5.638666377871963675e+00
9.200000000000000000e+01,5.678439630691356932e+00
9.300000000000000000e+01,5.717768339762162810e+00
9.400000000000000000e+01,5.756662207369421580e+00
9.500000000000000000e+01,5.795128720702552805e+00
9.600000000000000000e+01,5.833174705501634527e+00
9.700000000000000000e+01,5.870807996765093684e+00
9.800000000000000000e+01,5.908035495419392547e+00
9.900000000000000000e+01,5.944864384287384951e+00
1.000000000000000000e+02,5.981301684342112956e+00
1.010000000000000000e+02,6.017352905680326103e+00
1.020000000000000000e+02,6.053026225127123183e+00
1.030000000000000000e+02,6.088326835814521942e+00
1.040000000000000000e+02,6.123261613024798322e+00
1.050000000000000000e+02,6.157835468737973272e+00
1.060000000000000000e+02,6.192055673067841326e+00
1.070000000000000000e+02,6.225927769282500357e+00
1.080000000000000000e+02,6.259456712218228525e+00
1.090000000000000000e+02,6.292648524907603402e+00
1.100000000000000000e+02,6.325508107091769361e+00
1.110000000000000000e+02,6.358041956866709477e+00
1.120000000000000000e+02,6.390254506791008815e+00
1.130000000000000000e+02,6.422150979959443617e+00
1.140000000000000000e+02,6.453735945904691462e+00
1.150000000000000000e+02,6.485014465659132199e+00
1.160000000000000000e+02,6.515991654886614803e+00
1.170000000000000000e+02,6.546671889562871272e+00
1.180000000000000000e+02,6.577060193534845389e+00
1.190000000000000000e+02,6.607160600305406639e+00
1.200000000000000000e+02,6.636976729411813380e+00
1.210000000000000000e+02,6.666514175420434007e+00
1.220000000000000000e+02,6.695777027490192879e+00
1.230000000000000000e+02,6.724768711589828030e+00
1.240000000000000000e+02,6.753493558884969161e+00
1.250000000000000000e+02,6.781955495363573228e+00
1.260000000000000000e+02,6.810158816279204608e+00
1.270000000000000000e+02,6.838107170073557839e+00
1.280000000000000000e+02,6.865804329948581142e+00
1.290000000000000000e+02,6.893253450166127116e+00
1.300000000000000000e+02,6.920458801687496830e+00
1.310000000000000000e+02,6.947423788886632146e+00
1.320000000000000000e+02,6.974151946040594297e+00
1.330000000000000000e+02,7.000645738498968207e+00
1.340000000000000000e+02,7.026909447850868240e+00
1.350000000000000000e+02,7.052946281151474928e+00
1.360000000000000000e+02,7.078759578832016786e+00
1.370000000000000000e+02,7.104351650612247937e+00
1.380000000000000000e+02,7.129726115392934105e+00
1.390000000000000000e+02,7.154886483388656515e+00
1.400000000000000000e+02,7.179835252139110224e+00
1.410000000000000000e+02,7.204574618336131664e+00
1.420000000000000000e+02,7.229108952183254999e+00
1.430000000000000000e+02,7.253440274826577827e+00
1.440000000000000000e+02,7.277571431288386350e+00
1.450000000000000000e+02,7.301504746152231107e+00
1.460000000000000000e+02,7.325243349712579288e+00
1.470000000000000000e+02,7.348789851871241119e+00
1.480000000000000000e+02,7.372146143700033960e+00
1.490000000000000000e+02,7.395315774709050771e+00
1.500000000000000000e+02,7.418300285492911428e+00
1.510000000000000000e+02,7.441102652466178746e+00
1.520000000000000000e+02,7.463724932969906689e+00
1.530000000000000000e+02,7.486170173152356888e+00
1.540000000000000000e+02,7.508439887224676035e+00
1.550000000000000000e+02,7.530535547809972918e+00
1.560000000000000000e+02,7.552460844710837229e+00
1.570000000000000000e+02,7.574216928265941284e+00
1.580000000000000000e+02,7.595807148600443703e+00
1.590000000000000000e+02,7.617232555323221632e+00
1.600000000000000000e+02,7.638495172141375633e+00
1.610000000000000000e+02,7.659597970049626170e+00
1.620000000000000000e+02,7.680541865210889441e+00
1.630000000000000000e+02,7.701328932746023703e+00
1.640000000000000000e+02,7.721961786838894781e+00
1.650000000000000000e+02,7.742441809270709463e+00
1.660000000000000000e+02,7.762770347606855914e+00
1.670000000000000000e+02,7.782950262199026525e+00
1.680000000000000000e+02,7.802982234571322451e+00
1.690000000000000000e+02,7.822868840167987337e+00
1.700000000000000000e+02,7.842611265225358785e+00
1.710000000000000000e+02,7.862211614257345715e+00
1.720000000000000000e+02,7.881671191536875121e+00
1.730000000000000000e+02,7.900991646057937245e+00
1.740000000000000000e+02,7.920175149927182190e+00
1.750000000000000000e+02,7.939222157414654646e+00
1.760000000000000000e+02,7.958135142771588733e+00
1.770000000000000000e+02,7.976915425232403045e+00
1.780000000000000000e+02,7.995564294966327701e+00
1.790000000000000000e+02,8.014083560675734574e+00
1.800000000000000000e+02,8.032474086422229931e+00
1.810000000000000000e+02,8.050737799967464525e+00
1.820000000000000000e+02,8.068875691162251229e+00
1.830000000000000000e+02,8.086889623056425336e+00
1.840000000000000000e+02,8.104780174225158618e+00
1.850000000000000000e+02,8.122549328528666734e+00
1.860000000000000000e+02,8.140197971426463397e+00
1.870000000000000000e+02,8.157727672855248358e+00
1.880000000000000000e+02,8.175139446652886832e+00
1.890000000000000000e+02,8.192435157802448131e+00
1.900000000000000000e+02,8.209615246816314382e+00
1.910000000000000000e+02,8.226681181030610190e+00
1.920000000000000000e+02,8.243634227709254247e+00
1.930000000000000000e+02,8.260475115191082907e+00
1.940000000000000000e+02,8.277205752520446325e+00
1.950000000000000000e+02,8.293826483029386409e+00
1.960000000000000000e+02,8.310339166692983781e+00
1.970000000000000000e+02,8.326743942415980371e+00
1.980000000000000000e+02,8.343042793539570567e+00
1.990000000000000000e+02,8.359235994092797384e+00
2.000000000000000000e+02,8.375324978838834866e+00
2.010000000000000000e+02,8.391311323683257939e+00
2.020000000000000000e+02,8.407194424532788091e+00
2.030000000000000000e+02,8.422977148227911215e+00
2.040000000000000000e+02,8.438659192523978447e+00
2.050000000000000000e+02,8.454241566913911043e+00
2.060000000000000000e+02,8.469726079010063913e+00
2.070000000000000000e+02,8.485112881334771373e+00
2.080000000000000000e+02,8.500402769377640055e+00
2.090000000000000000e+02,8.515597492954734449e+00
2.100000000000000000e+02,8.530697165686046191e+00
2.110000000000000000e+02,8.545702858605466190e+00
2.120000000000000000e+02,8.560615465316864459e+00
2.130000000000000000e+02,8.575435705171230438e+00
2.140000000000000000e+02,8.590164284975646325e+00
2.150000000000000000e+02,8.604802689758589196e+00
2.160000000000000000e+02,8.619351121355972367e+00
2.170000000000000000e+02,8.633810247475345534e+00
2.180000000000000000e+02,8.648181350460932393e+00
2.190000000000000000e+02,8.662464601213301307e+00
2.200000000000000000e+02,8.676660943391064862e+00
2.210000000000000000e+02,8.690771305926036305e+00
2.220000000000000000e+02,8.704796757841865684e+00
2.230000000000000000e+02,8.718737274160190509e+00
2.240000000000000000e+02,8.732593902430293653e+00
2.250000000000000000e+02,8.746367062567946604e+00
2.260000000000000000e+02,8.760057929662851350e+00
2.270000000000000000e+02,8.773666749511644269e+00
2.280000000000000000e+02,8.787194672280026708e+00
2.290000000000000000e+02,8.800641773867207363e+00
2.300000000000000000e+02,8.814008880496167819e+00
2.310000000000000000e+02,8.827296956488215329e+00
2.320000000000000000e+02,8.840506203596065760e+00
2.330000000000000000e+02,8.853637267093654728e+00
2.340000000000000000e+02,8.866690782555723516e+00
2.350000000000000000e+02,8.879667821440484943e+00
2.360000000000000000e+02,8.892568256473783350e+00
2.370000000000000000e+02,8.905393140701033161e+00
2.380000000000000000e+02,8.918142924372736147e+00
2.390000000000000000e+02,8.930817903899360033e+00
2.400000000000000000e+02,8.943419102166846102e+00
2.410000000000000000e+02,8.955946944896080453e+00
2.420000000000000000e+02,8.968401705648670230e+00
2.430000000000000000e+02,8.980783653088925789e+00
2.440000000000000000e+02,8.993094064246355046e+00
2.450000000000000000e+02,9.005333045613751253e+00
2.460000000000000000e+02,9.017500988646826698e+00
2.470000000000000000e+02,9.029598565939014776e+00
2.480000000000000000e+02,9.041626154743806154e+00
2.490000000000000000e+02,9.053584412183985464e+00
2.500000000000000000e+02,9.065473701851376020e+00
2.510000000000000000e+02,9.077294665955449204e+00
2.520000000000000000e+02,9.089047513240144482e+00
2.530000000000000000e+02,9.100733155298636134e+00
2.540000000000000000e+02,9.112351646874071065e+00
2.550000000000000000e+02,9.123903462369259643e+00
2.560000000000000000e+02,9.135389069760487146e+00
2.570000000000000000e+02,9.146808930712980512e+00
2.580000000000000000e+02,9.158163221553298428e+00
2.590000000000000000e+02,9.169452950628196319e+00
2.600000000000000000e+02,9.180678142616024218e+00
2.610000000000000000e+02,9.191839236051700723e+00
2.620000000000000000e+02,9.202936663679157192e+00
2.630000000000000000e+02,9.213971128321549742e+00
2.640000000000000000e+02,9.224942774361098330e+00
2.650000000000000000e+02,9.235851880551681603e+00
2.660000000000000000e+02,9.246698995354119432e+00
2.670000000000000000e+02,9.257484524036327045e+00
2.680000000000000000e+02,9.268208730372641924e+00
2.690000000000000000e+02,9.278872282147299089e+00
2.700000000000000000e+02,9.289475432645613040e+00
2.710000000000000000e+02,9.300018431440557620e+00
2.720000000000000000e+02,9.310501794527912267e+00
2.730000000000000000e+02,9.320925762407359372e+00
2.740000000000000000e+02,9.331290572059195654e+00
2.750000000000000000e+02,9.341596859423324517e+00
2.760000000000000000e+02,9.351844851947813453e+00
2.770000000000000000e+02,9.362034506642032738e+00
2.780000000000000000e+02,9.372166712431607039e+00
2.790000000000000000e+02,9.382241817327429345e+00
2.800000000000000000e+02,9.392260032366863243e+00
2.810000000000000000e+02,9.402221300668696102e+00
2.820000000000000000e+02,9.412126489520003858e+00
2.830000000000000000e+02,9.421975930202721727e+00
2.840000000000000000e+02,9.431769423629569715e+00
2.850000000000000000e+02,9.441507296383219838e+00
2.860000000000000000e+02,9.451190002154826075e+00
2.870000000000000000e+02,9.460817728122620451e+00
2.880000000000000000e+02,9.470391311310775606e+00
2.890000000000000000e+02,9.479910538734539927e+00
2.900000000000000000e+02,9.489375847901950323e+00
2.910000000000000000e+02,9.498786633725433859e+00
2.920000000000000000e+02,9.508144366438612494e+00
2.930000000000000000e+02,9.517449082002002569e+00
2.940000000000000000e+02,9.526700685957811388e+00
2.950000000000000000e+02,9.535899212145872994e+00
2.960000000000000000e+02,9.545044821457668860e+00
2.970000000000000000e+02,9.554138570067589598e+00
2.980000000000000000e+02,9.563180225004670021e+00
2.990000000000000000e+02,9.572170064956004865e+00
3.000000000000000000e+02,9.581107727787506079e+00
3.010000000000000000e+02,9.589994125752033582e+00
3.020000000000000000e+02,9.598828765685111009e+00
3.030000000000000000e+02,9.607612805537637968e+00
3.040000000000000000e+02,9.616345621485766770e+00
3.050000000000000000e+02,9.625027477626646899e+00
3.060000000000000000e+02,9.633659013433822693e+00
3.070000000000000000e+02,9.642239855445335905e+00
3.080000000000000000e+02,9.650770511546953756e+00
3.090000000000000000e+02,9.659251359477631027e+00
3.100000000000000000e+02,9.667681646031569542e+00
3.110000000000000000e+02,9.676062622611027564e+00
3.120000000000000000e+02,9.684393658670268579e+00
3.130000000000000000e+02,9.692675497522067474e+00
3.140000000000000000e+02,9.700907383657032312e+00
3.150000000000000000e+02,9.709090552474915370e+00
3.160000000000000000e+02,9.717224246437385915e+00
3.170000000000000000e+02,9.725309320954675485e+00
3.180000000000000000e+02,9.733345636198539097e+00
3.190000000000000000e+02,9.741332805484439916e+00
3.200000000000000000e+02,9.749271552008657693e+00
3.210000000000000000e+02,9.757162224322074806e+00
3.220000000000000000e+02,9.765003694534129863e+00
3.230000000000000000e+02,9.772797537366857412e+00
3.240000000000000000e+02,9.780542991388616159e+00
3.250000000000000000e+02,9.788240887268651491e+00
3.260000000000000000e+02,9.795890585546418450e+00
3.270000000000000000e+02,9.803492180495307906e+00
3.280000000000000000e+02,9.811046494415339936e+00
3.290000000000000000e+02,9.818553250670051469e+00
3.300000000000000000e+02,9.826012173272681949e+00
3.310000000000000000e+02,9.833424076390787860e+00
3.320000000000000000e+02,9.840788559467485541e+00
3.330000000000000000e+02,9.848105706095090284e+00
3.340000000000000000e+02,9.855375839363777146e+00
3.350000000000000000e+02,9.862599279420951603e+00
3.360000000000000000e+02,9.869775502327044592e+00
3.370000000000000000e+02,9.876904706119837840e+00
3.380000000000000000e+02,9.883987446120739762e+00
3.390000000000000000e+02,9.891023555520430222e+00
3.400000000000000000e+02,9.898013106398469318e+00
3.410000000000000000e+02,9.904956050077970531e+00
3.420000000000000000e+02,9.911852932876472622e+00
3.430000000000000000e+02,9.918703226170583420e+00
3.440000000000000000e+02,9.925507472635120010e+00
3.450000000000000000e+02,9.932265380310459690e+00
3.460000000000000000e+02,9.938977605809654392e+00
3.470000000000000000e+02,9.945643617754425847e+00
3.480000000000000000e+02,9.952263832071945870e+00
3.490000000000000000e+02,9.958838189335601498e+00
3.500000000000000000e+02,9.965366865160495635e+00
3.510000000000000000e+02,9.971849915500447636e+00
3.520000000000000000e+02,9.978287277430181845e+00
3.530000000000000000e+02,9.984679474425380619e+00
3.540000000000000000e+02,9.991026205381849934e+00
3.550000000000000000e+02,9.997327403956271397e+00
3.560000000000000000e+02,1.000358347102255507e+01
3.570000000000000000e+02,1.000979480443921332e+01
3.580000000000000000e+02,1.001596051553468492e+01
3.590000000000000000e+02,1.002208170025130052e+01
3.600000000000000000e+02,1.002815781852928190e+01
3.610000000000000000e+02,1.003418891323796558e+01
3.620000000000000000e+02,1.004017560665321085e+01
3.630000000000000000e+02,1.004611770517551328e+01
3.640000000000000000e+02,1.005201478342216426e+01
3.650000000000000000e+02,1.005786803703043120e+01
3.660000000000000000e+02,1.006367634342392670e+01
3.670000000000000000e+02,1.006944054687118495e+01
3.680000000000000000e+02,1.007516056422176653e+01
3.690000000000000000e+02,1.008083677247667787e+01
3.700000000000000000e+02,1.008646874052976905e+01
3.710000000000000000e+02,1.009205649794698267e+01
3.720000000000000000e+02,1.009760053239969224e+01
3.730000000000000000e+02,1.010310109907090492e+01
3.740000000000000000e+02,1.010855799282700929e+01
3.750000000000000000e+02,1.011397112288280020e+01
3.760000000000000000e+02,1.011934096943727823e+01
3.770000000000000000e+02,1.012466732451274076e+01
3.780000000000000000e+02,1.012995055041605674e+01
3.790000000000000000e+02,1.013519077906389754e+01
3.800000000000000000e+02,1.014038802703062814e+01
3.810000000000000000e+02,1.014554208241595568e+01
3.820000000000000000e+02,1.015065386932916525e+01
3.830000000000000000e+02,1.015572237775760200e+01
3.840000000000000000e+02,1.016074875508533459e+01
3.850000000000000000e+02,1.016573255737843162e+01
3.860000000000000000e+02,1.017067379416223005e+01
3.870000000000000000e+02,1.017557303925672763e+01
3.880000000000000000e+02,1.018043029860657711e+01
3.890000000000000000e+02,1.018524569005267999e+01
3.900000000000000000e+02,1.019001910460055704e+01
3.910000000000000000e+02,1.019475088326303513e+01
3.920000000000000000e+02,1.019944125234552956e+01
3.930000000000000000e+02,1.020409021156796214e+01
3.940000000000000000e+02,1.020869787207136881e+01
3.950000000000000000e+02,1.021326445591751941e+01
3.960000000000000000e+02,1.021779029560401675e+01
3.970000000000000000e+02,1.022227493739574378e+01
3.980000000000000000e+02,1.022671938331406061e+01
