# Time [s], Convective Heat Transfer Coefficient [W/m2K]
1.000000000000000000e+00,0.000000000000000000e+00
2.000000000000000000e+00,0.000000000000000000e+00
3.000000000000000000e+00,0.000000000000000000e+00
4.000000000000000000e+00,0.000000000000000000e+00
5.000000000000000000e+00,2.762023300960968902e-02
6.000000000000000000e+00,4.669921575117047530e-02
7.000000000000000000e+00,7.538707009062249609e-02
8.000000000000000000e+00,1.138308602855686996e-01
9.000000000000000000e+00,1.625495383041330455e-01
1.000000000000000000e+01,2.219880544393698918e-01
1.100000000000000000e+01,2.916627569602099901e-01
1.200000000000000000e+01,3.708477943906260399e-01
1.300000000000000000e+01,4.585527933162047431e-01
1.400000000000000000e+01,5.536486035489759372e-01
1.500000000000000000e+01,6.549727054041970531e-01
1.600000000000000000e+01,7.614422745547184679e-01
1.700000000000000000e+01,8.720427025071711968e-01
1.800000000000000000e+01,9.858788418043238355e-01
1.900000000000000000e+01,1.102162759947292736e+00
2.000000000000000000e+01,1.220216032233717218e+00
2.100000000000000000e+01,1.339457508837729405e+00
2.200000000000000000e+01,1.459395691347516344e+00
2.300000000000000000e+01,1.579610199387146308e+00
2.400000000000000000e+01,1.699755929520358588e+00
2.500000000000000000e+01,1.819540643586476492e+00
2.600000000000000000e+01,1.938720986642826549e+00
2.700000000000000000e+01,2.057095703063757774e+00
2.800000000000000000e+01,2.174501016903178208e+00
2.900000000000000000e+01,2.290800208241027924e+00
3.000000000000000000e+01,2.405883313706793203e+00
3.100000000000000000e+01,2.519663677228925813e+00
3.200000000000000000e+01,2.632068124978550916e+00
3.300000000000000000e+01,2.743044374046498479e+00
3.400000000000000000e+01,2.852548923696682337e+00
3.500000000000000000e+01,2.960549719163334093e+00
3.600000000000000000e+01,3.067025675766245740e+00
3.700000000000000000e+01,3.171964922566045786e+00
3.800000000000000000e+01,3.275359428789249794e+00
3.900000000000000000e+01,3.377211033165226084e+00
4.000000000000000000e+01,3.477520645376753095e+00
4.100000000000000000e+01,3.576297800742570754e+00
4.200000000000000000e+01,3.673553533572057717e+00
4.300000000000000000e+01,3.769305140828413059e+00
4.400000000000000000e+01,3.863569302948373529e+00
4.500000000000000000e+01,3.956366522810909725e+00
4.600000000000000000e+01,4.047716756853648512e+00
4.700000000000000000e+01,4.137643220048712323e+00
4.800000000000000000e+01,4.226168320641376930e+00
4.900000000000000000e+01,4.313316243043435527e+00
5.000000000000000000e+01,4.399112655539120453e+00
5.100000000000000000e+01,4.483579548051510599e+00
5.200000000000000000e+01,4.566743607409181394e+00
5.300000000000000000e+01,4.648628666888959593e+00
5.400000000000000000e+01,4.729258960467651818e+00
5.500000000000000000e+01,4.808660235514367720e+00
5.600000000000000000e+01,4.886856156220463099e+00
5.700000000000000000e+01,4.963869610851237013e+00
5.800000000000000000e+01,5.039723289015631380e+00
5.900000000000000000e+01,5.114441421240300656e+00
6.000000000000000000e+01,5.188046144818840411e+00
6.100000000000000000e+01,5.260559762897036862e+00
6.200000000000000000e+01,5.332002532106693060e+00
6.300000000000000000e+01,5.402395774281384178e+00
6.400000000000000000e+01,5.471761003965011305e+00
6.500000000000000000e+01,5.540116787952741539e+00
6.600000000000000000e+01,5.607484920687067387e+00
6.700000000000000000e+01,5.673881958599482189e+00
6.800000000000000000e+01,5.739329753476282825e+00
6.900000000000000000e+01,5.803843006691560724e+00
7.000000000000000000e+01,5.867441870347897215e+00
7.100000000000000000e+01,5.930142182619641211e+00
7.200000000000000000e+01,5.991961619202251121e+00
7.300000000000000000e+01,6.052916284816737047e+00
7.400000000000000000e+01,6.113022095192761185e+00
7.500000000000000000e+01,6.172293327929540219e+00
7.600000000000000000e+01,6.230745951118312753e+00
7.700000000000000000e+01,6.288394134117667456e+00
7.800000000000000000e+01,6.345252514585398629e+00
7.900000000000000000e+01,6.401335570969703070e+00
8.000000000000000000e+01,6.456657005275346251e+00
8.100000000000000000e+01,6.511228360616415856e+00
8.200000000000000000e+01,6.565064863434996845e+00
8.300000000000000000e+01,6.618177715039892384e+00
8.400000000000000000e+01,6.670579872074532624e+00
8.500000000000000000e+01,6.722282794775721548e+00
8.600000000000000000e+01,6.773298849595382976e+00
8.700000000000000000e+01,6.823639727821865897e+00
8.800000000000000000e+01,6.873316241817318151e+00
8.900000000000000000e+01,6.922340092775648657e+00
9.000000000000000000e+01,6.970721877745823747e+00
9.100000000000000000e+01,7.018472587634467352e+00
9.200000000000000000e+01,7.065603109102056578e+00
9.300000000000000000e+01,7.112123303675090824e+00
9.400000000000000000e+01,7.158044128013153262e+00
9.500000000000000000e+01,7.203375307441480579e+00
9.600000000000000000e+01,7.248126971121568118e+00
9.700000000000000000e+01,7.292308966360756983e+00
9.800000000000000000e+01,7.335931527731468726e+00
9.900000000000000000e+01,7.379003104674688451e+00
1.000000000000000000e+02,7.421534077225675041e+00
1.010000000000000000e+02,7.463533495134885065e+00
1.020000000000000000e+02,7.505010191771663841e+00
1.030000000000000000e+02,7.545973002129035656e+00
1.040000000000000000e+02,7.586432390690996286e+00
1.050000000000000000e+02,7.626396543273750162e+00
1.060000000000000000e+02,7.665874275320208930e+00
1.070000000000000000e+02,7.704873423638477270e+00
1.080000000000000000e+02,7.743404020312779856e+00
1.090000000000000000e+02,7.781473933589682979e+00
1.100000000000000000e+02,7.819090697762458575e+00
1.110000000000000000e+02,7.856262858042082797e+00
1.120000000000000000e+02,7.892998233918494755e+00
1.130000000000000000e+02,7.929304699228925557e+00
1.140000000000000000e+02,7.965190181534137714e+00
1.150000000000000000e+02,8.000661747313134953e+00
1.160000000000000000e+02,8.035727273085717215e+00
1.170000000000000000e+02,8.070393974479204147e+00
1.180000000000000000e+02,8.104668436311655455e+00
1.190000000000000000e+02,8.138557877788993977e+00
1.200000000000000000e+02,8.172068375247597771e+00
1.210000000000000000e+02,8.205206822796689892e+00
1.220000000000000000e+02,8.237979693793473501e+00
1.230000000000000000e+02,8.270392888053985203e+00
1.240000000000000000e+02,8.302452434954291860e+00
1.250000000000000000e+02,8.334164489944992482e+00
1.260000000000000000e+02,8.365534662291068457e+00
1.270000000000000000e+02,8.396567538754947435e+00
1.280000000000000000e+02,8.427269524280394108e+00
1.290000000000000000e+02,8.457645995700390884e+00
1.300000000000000000e+02,8.487700689968530554e+00
1.310000000000000000e+02,8.517440119353787864e+00
1.320000000000000000e+02,8.546867547421081568e+00
1.330000000000000000e+02,8.575989308458304095e+00
1.340000000000000000e+02,8.604808539398129952e+00
1.350000000000000000e+02,8.633330784106792777e+00
1.360000000000000000e+02,8.661560014661867868e+00
1.370000000000000000e+02,8.689500698770322273e+00
1.380000000000000000e+02,8.717157014676196525e+00
1.390000000000000000e+02,8.744533014386197678e+00
1.400000000000000000e+02,8.771632476399869205e+00
1.410000000000000000e+02,8.798459066188815569e+00
1.420000000000000000e+02,8.825017392573789365e+00
1.430000000000000000e+02,8.851311038147862575e+00
1.440000000000000000e+02,8.877342293447867405e+00
1.450000000000000000e+02,8.903115887123238537e+00
1.460000000000000000e+02,8.928635686185465659e+00
1.470000000000000000e+02,8.953904137514030026e+00
1.480000000000000000e+02,8.978925067065924637e+00
1.490000000000000000e+02,9.003701331958513521e+00
1.500000000000000000e+02,9.028236714699044541e+00
1.510000000000000000e+02,9.052533613398946244e+00
1.520000000000000000e+02,9.076594784421764928e+00
1.530000000000000000e+02,9.100423898807637357e+00
1.540000000000000000e+02,9.124023972409611716e+00
1.550000000000000000e+02,9.147396823903440222e+00
1.560000000000000000e+02,9.170545471911919932e+00
1.570000000000000000e+02,9.193472997346979980e+00
1.580000000000000000e+02,9.216181577810694137e+00
1.590000000000000000e+02,9.238674430323596809e+00
1.600000000000000000e+02,9.260953739392048689e+00
1.610000000000000000e+02,9.283021768991691403e+00
1.620000000000000000e+02,9.304881537112759560e+00
1.630000000000000000e+02,9.326535049206084338e+00
1.640000000000000000e+02,9.347985197500079835e+00
1.650000000000000000e+02,9.369233874324210731e+00
1.660000000000000000e+02,9.390284119221950832e+00
1.670000000000000000e+02,9.411137714860336345e+00
1.680000000000000000e+02,9.431797057465908907e+00
1.690000000000000000e+02,9.452264488746001447e+00
1.700000000000000000e+02,9.472542167080845843e+00
1.710000000000000000e+02,9.492631422329241175e+00
1.720000000000000000e+02,9.512535360863235923e+00
1.730000000000000000e+02,9.532256123587480090e+00
1.740000000000000000e+02,9.551794906368396454e+00
1.750000000000000000e+02,9.571153512968054500e+00
1.760000000000000000e+02,9.590334724864202798e+00
1.770000000000000000e+02,9.609339366503849789e+00
1.780000000000000000e+02,9.628169248497689736e+00
1.790000000000000000e+02,9.646826268093976253e+00
1.800000000000000000e+02,9.665311656004840657e+00
1.810000000000000000e+02,9.683626488691086109e+00
1.820000000000000000e+02,9.701772437620434175e+00
1.830000000000000000e+02,9.719750891046714969e+00
1.840000000000000000e+02,9.737562589116635081e+00
1.850000000000000000e+02,9.755208619874405684e+00
1.860000000000000000e+02,9.772690167952692519e+00
1.870000000000000000e+02,9.790008635145511562e+00
1.880000000000000000e+02,9.807164054568460188e+00
1.890000000000000000e+02,9.824158146753688925e+00
1.900000000000000000e+02,9.840990785342974334e+00
1.910000000000000000e+02,9.857663040250034925e+00
1.920000000000000000e+02,9.874175476627655712e+00
1.930000000000000000e+02,9.890528761689431292e+00
1.940000000000000000e+02,9.906723305239115263e+00
1.950000000000000000e+02,9.922759501657711922e+00
1.960000000000000000e+02,9.938637967154928532e+00
1.970000000000000000e+02,9.954359299979135045e+00
1.980000000000000000e+02,9.969922903065254971e+00
1.990000000000000000e+02,9.985330172426172268e+00
2.000000000000000000e+02,1.000058036987482701e+01
2.010000000000000000e+02,1.001567462302158695e+01
2.020000000000000000e+02,1.003061229044909552e+01
2.030000000000000000e+02,1.004539377202691952e+01
2.040000000000000000e+02,1.006001887415799700e+01
2.050000000000000000e+02,1.007448762564544609e+01
2.060000000000000000e+02,1.008880038939118506e+01
2.070000000000000000e+02,1.010295659606936347e+01
2.080000000000000000e+02,1.011695658692307376e+01
2.090000000000000000e+02,1.013080000427713756e+01
2.100000000000000000e+02,1.014448659720027557e+01
2.110000000000000000e+02,1.015801656022868649e+01
2.120000000000000000e+02,1.017138928271334208e+01
2.130000000000000000e+02,1.018460482633462227e+01
2.140000000000000000e+02,1.019766312827237975e+01
2.150000000000000000e+02,1.021056299216310848e+01
2.160000000000000000e+02,1.022330523817334402e+01
2.170000000000000000e+02,1.023588899080713510e+01
2.180000000000000000e+02,1.024831359434679889e+01
2.190000000000000000e+02,1.026057961060291923e+01
2.200000000000000000e+02,1.027268636388317091e+01
2.210000000000000000e+02,1.028463361548752353e+01
2.220000000000000000e+02,1.029642067509310621e+01
2.230000000000000000e+02,1.030804805821676062e+01
2.240000000000000000e+02,1.031951505422292747e+01
2.250000000000000000e+02,1.033082149472934574e+01
2.260000000000000000e+02,1.034196752858693813e+01
2.270000000000000000e+02,1.035295230780952380e+01
2.280000000000000000e+02,1.036377650463585987e+01
2.290000000000000000e+02,1.037444001157103024e+01
2.300000000000000000e+02,1.038494249209820985e+01
2.310000000000000000e+02,1.039528435779167204e+01
2.320000000000000000e+02,1.040546567967697378e+01
2.330000000000000000e+02,1.041548694690103005e+01
2.340000000000000000e+02,1.042534820110199334e+01
2.350000000000000000e+02,1.043504979315869896e+01
2.360000000000000000e+02,1.044459291684242963e+01
2.370000000000000000e+02,1.045397745900599951e+01
2.380000000000000000e+02,1.046320382910735347e+01
2.390000000000000000e+02,1.047227391525001572e+01
2.400000000000000000e+02,1.048118776835099375e+01
2.410000000000000000e+02,1.048994670298762877e+01
2.420000000000000000e+02,1.049855222493683016e+01
2.430000000000000000e+02,1.050700518166312314e+01
2.440000000000000000e+02,1.051530682655806359e+01
2.450000000000000000e+02,1.052345934449913223e+01
2.460000000000000000e+02,1.053146405082257964e+01
2.470000000000000000e+02,1.053932245220630293e+01
2.480000000000000000e+02,1.054703677173641019e+01
2.490000000000000000e+02,1.055460899839176037e+01
2.500000000000000000e+02,1.056204036455826056e+01
2.510000000000000000e+02,1.056933407622220145e+01
2.520000000000000000e+02,1.057649247442965468e+01
2.530000000000000000e+02,1.058351819137078564e+01
2.540000000000000000e+02,1.059041289655799289e+01
2.550000000000000000e+02,1.059717959681819899e+01
2.560000000000000000e+02,1.060382169131168872e+01
2.570000000000000000e+02,1.061034130610079451e+01
2.580000000000000000e+02,1.061674231434790094e+01
2.590000000000000000e+02,1.062302659207385958e+01
2.600000000000000000e+02,1.062919827862637234e+01
2.610000000000000000e+02,1.063526014188463442e+01
2.620000000000000000e+02,1.064121534416634596e+01
2.630000000000000000e+02,1.064706754385091614e+01
2.640000000000000000e+02,1.065281975860843566e+01
2.650000000000000000e+02,1.065847529684326567e+01
2.660000000000000000e+02,1.066403775670237764e+01
2.670000000000000000e+02,1.066951123080631980e+01
2.680000000000000000e+02,1.067489794163026495e+01
2.690000000000000000e+02,1.068020245902349075e+01
2.700000000000000000e+02,1.068542820325337139e+01
2.710000000000000000e+02,1.069057816817146289e+01
2.720000000000000000e+02,1.069565615164173877e+01
2.730000000000000000e+02,1.070066583208156707e+01
2.740000000000000000e+02,1.070561076948635915e+01
2.750000000000000000e+02,1.071049440640353545e+01
2.760000000000000000e+02,1.071531986495332411e+01
2.770000000000000000e+02,1.072009055979040326e+01
2.780000000000000000e+02,1.072481009535714236e+01
2.790000000000000000e+02,1.072948236706155889e+01
2.800000000000000000e+02,1.073411054437539569e+01
2.810000000000000000e+02,1.073869697273665835e+01
2.820000000000000000e+02,1.074324540859086419e+01
2.830000000000000000e+02,1.074775908820655523e+01
2.840000000000000000e+02,1.075224154011132605e+01
2.850000000000000000e+02,1.075669547119837510e+01
2.860000000000000000e+02,1.076112479202224925e+01
2.870000000000000000e+02,1.076553107685943367e+01
2.880000000000000000e+02,1.076991761024510197e+01
2.890000000000000000e+02,1.077428716162215139e+01
2.900000000000000000e+02,1.077864329738083882e+01
2.910000000000000000e+02,1.078298826349710637e+01
2.920000000000000000e+02,1.078732510342821094e+01
2.930000000000000000e+02,1.079165594618288360e+01
2.940000000000000000e+02,1.079598432001891339e+01
2.950000000000000000e+02,1.080031193550608037e+01
2.960000000000000000e+02,1.080464160075278457e+01
2.970000000000000000e+02,1.080897541351454727e+01
2.980000000000000000e+02,1.081331586526434307e+01
2.990000000000000000e+02,1.081766503932070123e+01
3.000000000000000000e+02,1.082202601177855605e+01
3.010000000000000000e+02,1.082640075015410730e+01
3.020000000000000000e+02,1.083079151485996228e+01
3.030000000000000000e+02,1.083520006027912963e+01
3.040000000000000000e+02,1.083962903154257162e+01
3.050000000000000000e+02,1.084408136353102847e+01
3.060000000000000000e+02,1.084855799189466552e+01
3.070000000000000000e+02,1.085306094202681315e+01
3.080000000000000000e+02,1.085759233148721314e+01
3.090000000000000000e+02,1.086215436950537061e+01
3.100000000000000000e+02,1.086674925733864683e+01
3.110000000000000000e+02,1.087138007958898633e+01
3.120000000000000000e+02,1.087604723764355441e+01
3.130000000000000000e+02,1.088075291048289372e+01
3.140000000000000000e+02,1.088549936747576830e+01
3.150000000000000000e+02,1.089028877040724197e+01
3.160000000000000000e+02,1.089512415992581928e+01
3.170000000000000000e+02,1.090000491917248304e+01
3.180000000000000000e+02,1.090493535415335913e+01
3.190000000000000000e+02,1.090991719686559058e+01
3.200000000000000000e+02,1.091495168015366701e+01
3.210000000000000000e+02,1.092004120868042527e+01
3.220000000000000000e+02,1.092518856869229893e+01
3.230000000000000000e+02,1.093039535825912978e+01
3.240000000000000000e+02,1.093566316730785992e+01
3.250000000000000000e+02,1.094099484874884531e+01
3.260000000000000000e+02,1.094639441436459748e+01
3.270000000000000000e+02,1.095186107528859765e+01
3.280000000000000000e+02,1.095740018547961192e+01
3.290000000000000000e+02,1.096301152264487122e+01
3.300000000000000000e+02,1.096869972716948460e+01
3.310000000000000000e+02,1.097446514030441023e+01
3.320000000000000000e+02,1.098031159365907072e+01
3.330000000000000000e+02,1.098624144400646152e+01
3.340000000000000000e+02,1.099225809963439282e+01
3.350000000000000000e+02,1.099836494962278088e+01
3.360000000000000000e+02,1.100456420340693597e+01
3.370000000000000000e+02,1.101085670381464610e+01
3.380000000000000000e+02,1.101725032498561063e+01
3.390000000000000000e+02,1.102374528900040040e+01
3.400000000000000000e+02,1.103034469728239308e+01
3.410000000000000000e+02,1.103704951608554552e+01
3.420000000000000000e+02,1.104386655512552551e+01
3.430000000000000000e+02,1.105079865336695377e+01
3.440000000000000000e+02,1.105785054265154876e+01
3.450000000000000000e+02,1.106502481915513236e+01
3.460000000000000000e+02,1.107232319765570594e+01
3.470000000000000000e+02,1.107975290568615456e+01
3.480000000000000000e+02,1.108731674199635719e+01
3.490000000000000000e+02,1.109501862090507629e+01
3.500000000000000000e+02,1.110286251912361166e+01
3.510000000000000000e+02,1.111085446553574663e+01
3.520000000000000000e+02,1.111899504500241065e+01
3.530000000000000000e+02,1.112728936424571202e+01
3.540000000000000000e+02,1.113574248615939588e+01
3.550000000000000000e+02,1.114436103092826436e+01
3.560000000000000000e+02,1.115314723354955362e+01
3.570000000000000000e+02,1.116210207738459737e+01
3.580000000000000000e+02,1.117123365190821538e+01
3.590000000000000000e+02,1.118054388929402876e+01
3.600000000000000000e+02,1.119003431651187164e+01
3.610000000000000000e+02,1.119971352407388032e+01
3.620000000000000000e+02,1.120957809860962229e+01
3.630000000000000000e+02,1.121963541770020711e+01
3.640000000000000000e+02,1.122988545195811483e+01
3.650000000000000000e+02,1.124032462978179048e+01
3.660000000000000000e+02,1.125095863246609795e+01
3.670000000000000000e+02,1.126178643113301803e+01
3.680000000000000000e+02,1.127280228463674128e+01
3.690000000000000000e+02,1.128400488821597492e+01
3.700000000000000000e+02,1.129539099994482676e+01
3.710000000000000000e+02,1.130695326340210727e+01
3.720000000000000000e+02,1.131868399761701482e+01
3.730000000000000000e+02,1.133057109962192754e+01
3.740000000000000000e+02,1.134260710147502316e+01
3.750000000000000000e+02,1.135477577744013544e+01
3.760000000000000000e+02,1.136706175334187741e+01
3.770000000000000000e+02,1.137944335959062059e+01
3.780000000000000000e+02,1.139190551200140078e+01
3.790000000000000000e+02,1.140442362250775155e+01
3.800000000000000000e+02,1.141697735650448031e+01
3.810000000000000000e+02,1.142953938744560283e+01
3.820000000000000000e+02,1.144208235966550546e+01
3.830000000000000000e+02,1.145458665103515017e+01
3.840000000000000000e+02,1.146702221632507168e+01
3.850000000000000000e+02,1.147936930731256844e+01
3.860000000000000000e+02,1.149160382202090602e+01
3.870000000000000000e+02,1.150371008542168560e+01
3.880000000000000000e+02,1.151567263613426384e+01
3.890000000000000000e+02,1.152747648512119483e+01
3.900000000000000000e+02,1.153911317331352215e+01
3.910000000000000000e+02,1.155057982541436701e+01
3.920000000000000000e+02,1.156187217501136288e+01
3.930000000000000000e+02,1.157298990854954468e+01
3.940000000000000000e+02,1.158393566712845058e+01
3.950000000000000000e+02,1.159471519304512910e+01
3.960000000000000000e+02,1.160533356475630029e+01
3.970000000000000000e+02,1.161579746002211522e+01
3.980000000000000000e+02,1.162611341087268180e+01
