# Time [s], Convective Heat Transfer Coefficient [W/m2K]
1.000000000000000000e+00,0.000000000000000000e+00
2.000000000000000000e+00,0.000000000000000000e+00
3.000000000000000000e+00,0.000000000000000000e+00
4.000000000000000000e+00,0.000000000000000000e+00
5.000000000000000000e+00,2.762023300960968902e-02
6.000000000000000000e+00,5.110202618333640340e-02
7.000000000000000000e+00,8.353714283346275193e-02
8.000000000000000000e+00,1.275575242773482887e-01
9.000000000000000000e+00,1.837966853187263105e-01
1.000000000000000000e+01,2.521673707981507695e-01
1.100000000000000000e+01,3.323566859928276385e-01
1.200000000000000000e+01,4.234173975323883288e-01
1.300000000000000000e+01,5.242057111241454903e-01
1.400000000000000000e+01,6.334122283937697606e-01
1.500000000000000000e+01,7.497388833472656833e-01
1.600000000000000000e+01,8.719226176036317666e-01
1.700000000000000000e+01,9.988202703104962499e-01
1.800000000000000000e+01,1.129397254739265888e+00
1.900000000000000000e+01,1.262752167561632222e+00
2.000000000000000000e+01,1.398095239194736106e+00
2.100000000000000000e+01,1.534756830549766304e+00
2.200000000000000000e+01,1.672162033883530352e+00
2.300000000000000000e+01,1.809823416323917522e+00
2.400000000000000000e+01,1.947332083844879769e+00
2.500000000000000000e+01,2.084349363621520013e+00
2.600000000000000000e+01,2.220592957967505665e+00
2.700000000000000000e+01,2.355835071354415611e+00
2.800000000000000000e+01,2.489884048259052296e+00
2.900000000000000000e+01,2.622587456972746089e+00
3.000000000000000000e+01,2.753823701015222447e+00
3.100000000000000000e+01,2.883491773245722811e+00
3.200000000000000000e+01,3.011517323998833096e+00
3.300000000000000000e+01,3.137836729114231282e+00
3.400000000000000000e+01,3.262404101461398476e+00
3.500000000000000000e+01,3.385183520570985483e+00
3.600000000000000000e+01,3.506148858526224821e+00
3.700000000000000000e+01,3.625282691162444060e+00
3.800000000000000000e+01,3.742572223867225656e+00
3.900000000000000000e+01,3.858014135099458564e+00
4.000000000000000000e+01,3.971606356587746856e+00
4.100000000000000000e+01,4.083349577294987931e+00
4.200000000000000000e+01,4.193252670406732996e+00
4.300000000000000000e+01,4.301324662003714216e+00
4.400000000000000000e+01,4.407574322746546258e+00
4.500000000000000000e+01,4.512017250139438218e+00
4.600000000000000000e+01,4.614673679474741164e+00
4.700000000000000000e+01,4.715562004532409368e+00
4.800000000000000000e+01,4.814703437802108965e+00
4.900000000000000000e+01,4.912123318940987637e+00
5.000000000000000000e+01,5.007847989002988776e+00
5.100000000000000000e+01,5.101906325217275828e+00
5.200000000000000000e+01,5.194329366908662315e+00
5.300000000000000000e+01,5.285145889344223136e+00
5.400000000000000000e+01,5.374391638860077869e+00
5.500000000000000000e+01,5.462100380829610025e+00
5.600000000000000000e+01,5.548303317876080776e+00
5.700000000000000000e+01,5.633036633607305887e+00
5.800000000000000000e+01,5.716335416486617582e+00
5.900000000000000000e+01,5.798229983242381813e+00
6.000000000000000000e+01,5.878752264885632961e+00
6.100000000000000000e+01,5.957935646861458601e+00
6.200000000000000000e+01,6.035809351735399453e+00
6.300000000000000000e+01,6.112401850633342626e+00
6.400000000000000000e+01,6.187742926147508982e+00
6.500000000000000000e+01,6.261862196565615157e+00
6.600000000000000000e+01,6.334786626761273354e+00
6.700000000000000000e+01,6.406542741811798614e+00
6.800000000000000000e+01,6.477157494095165724e+00
6.900000000000000000e+01,6.546657959936782234e+00
7.000000000000000000e+01,6.615071239782723822e+00
7.100000000000000000e+01,6.682419918599537212e+00
7.200000000000000000e+01,6.748731016798877214e+00
7.300000000000000000e+01,6.814026970966082786e+00
7.400000000000000000e+01,6.878330745671283886e+00
7.500000000000000000e+01,6.941665525272142645e+00
7.600000000000000000e+01,7.004051817247056277e+00
7.700000000000000000e+01,7.065511425128967460e+00
7.800000000000000000e+01,7.126062717359859633e+00
7.900000000000000000e+01,7.185726798291139694e+00
8.000000000000000000e+01,7.244520809769653624e+00
8.100000000000000000e+01,7.302464386487124592e+00
8.200000000000000000e+01,7.359574053452936582e+00
8.300000000000000000e+01,7.415868141319556628e+00
8.400000000000000000e+01,7.471364131886540250e+00
8.500000000000000000e+01,7.526077684894288744e+00
8.600000000000000000e+01,7.580026025965410419e+00
8.700000000000000000e+01,7.633223817944936762e+00
8.800000000000000000e+01,7.685688290224143238e+00
8.900000000000000000e+01,7.737433396370303917e+00
9.000000000000000000e+01,7.788474082877424820e+00
9.100000000000000000e+01,7.838824511003503304e+00
9.200000000000000000e+01,7.888497355120413168e+00
9.300000000000000000e+01,7.937507240005782450e+00
9.400000000000000000e+01,7.985865300645768272e+00
9.500000000000000000e+01,8.033584107643100936e+00
9.600000000000000000e+01,8.080674715724782686e+00
9.700000000000000000e+01,8.127149765001728809e+00
9.800000000000000000e+01,8.173020063656812439e+00
9.900000000000000000e+01,8.218296944469116738e+00
1.000000000000000000e+02,8.262990523584702984e+00
1.010000000000000000e+02,8.307112481370667822e+00
1.020000000000000000e+02,8.350672457413084615e+00
1.030000000000000000e+02,8.393680650164412782e+00
1.040000000000000000e+02,8.436146968194108808e+00
1.050000000000000000e+02,8.478080721142461584e+00
1.060000000000000000e+02,8.519492263917298303e+00
1.070000000000000000e+02,8.560389754099595905e+00
1.080000000000000000e+02,8.600781473356800433e+00
1.090000000000000000e+02,8.640676764043575986e+00
1.100000000000000000e+02,8.680082564886728136e+00
1.110000000000000000e+02,8.719006754416966487e+00
1.120000000000000000e+02,8.757457958326645198e+00
1.130000000000000000e+02,8.795442492819431024e+00
1.140000000000000000e+02,8.832967915891407173e+00
1.150000000000000000e+02,8.870040744870490101e+00
1.160000000000000000e+02,8.906668271907790313e+00
1.170000000000000000e+02,8.942856338545517758e+00
1.180000000000000000e+02,8.978612009132980631e+00
1.190000000000000000e+02,9.013941507156140176e+00
1.200000000000000000e+02,9.048851107405837979e+00
1.210000000000000000e+02,9.083347419349296459e+00
1.220000000000000000e+02,9.117436390554356507e+00
1.230000000000000000e+02,9.151123472706943929e+00
1.240000000000000000e+02,9.184414473761348674e+00
1.250000000000000000e+02,9.217314719865594697e+00
1.260000000000000000e+02,9.249829073852010808e+00
1.270000000000000000e+02,9.281963583063387091e+00
1.280000000000000000e+02,9.313722471329910491e+00
1.290000000000000000e+02,9.345110346624823094e+00
1.300000000000000000e+02,9.376132455544318844e+00
1.310000000000000000e+02,9.406794399055732114e+00
1.320000000000000000e+02,9.437100151006310611e+00
1.330000000000000000e+02,9.467055115288205869e+00
1.340000000000000000e+02,9.496662707446587248e+00
1.350000000000000000e+02,9.525929448382964182e+00
1.360000000000000000e+02,9.554858972923655713e+00
1.370000000000000000e+02,9.583454922135555165e+00
1.380000000000000000e+02,9.611722971287498751e+00
1.390000000000000000e+02,9.639665984737774806e+00
1.400000000000000000e+02,9.667288732489872416e+00
1.410000000000000000e+02,9.694593477769052114e+00
1.420000000000000000e+02,9.721584135388983583e+00
1.430000000000000000e+02,9.748263024065403570e+00
1.440000000000000000e+02,9.774632993327641017e+00
1.450000000000000000e+02,9.800695825427794716e+00
1.460000000000000000e+02,9.826452870025653041e+00
1.470000000000000000e+02,9.851905899688532031e+00
1.480000000000000000e+02,9.877057099043808464e+00
1.490000000000000000e+02,9.901907024931078993e+00
1.500000000000000000e+02,9.926456666575964150e+00
1.510000000000000000e+02,9.950705779528073336e+00
1.520000000000000000e+02,9.974656091762252430e+00
1.530000000000000000e+02,9.998306689405573877e+00
1.540000000000000000e+02,1.002165850750111531e+01
1.550000000000000000e+02,1.004471115399808134e+01
1.560000000000000000e+02,1.006746397901785528e+01
1.570000000000000000e+02,1.008991676968489948e+01
1.580000000000000000e+02,1.011206859484526532e+01
1.590000000000000000e+02,1.013391850376302017e+01
1.600000000000000000e+02,1.015546427694831522e+01
1.610000000000000000e+02,1.017670561640881921e+01
1.620000000000000000e+02,1.019764084010677507e+01
1.630000000000000000e+02,1.021826735760598304e+01
1.640000000000000000e+02,1.023858425502199054e+01
1.650000000000000000e+02,1.025858836728773049e+01
1.660000000000000000e+02,1.027827875250435596e+01
1.670000000000000000e+02,1.029765278423362673e+01
1.680000000000000000e+02,1.031670882113766474e+01
1.690000000000000000e+02,1.033544366671113224e+01
1.700000000000000000e+02,1.035385543456232149e+01
1.710000000000000000e+02,1.037194232630581325e+01
1.720000000000000000e+02,1.038970165247816979e+01
1.730000000000000000e+02,1.040713125095219915e+01
1.740000000000000000e+02,1.042422926077814260e+01
1.750000000000000000e+02,1.044099336391874999e+01
1.760000000000000000e+02,1.045742228943548469e+01
1.770000000000000000e+02,1.047351483510708192e+01
1.780000000000000000e+02,1.048926975875031076e+01
1.790000000000000000e+02,1.050468609584443236e+01
1.800000000000000000e+02,1.051976421211129420e+01
1.810000000000000000e+02,1.053450430710252839e+01
1.820000000000000000e+02,1.054890641622085745e+01
1.830000000000000000e+02,1.056297188138024090e+01
1.840000000000000000e+02,1.057670364756612358e+01
1.850000000000000000e+02,1.059010321597939175e+01
1.860000000000000000e+02,1.060317420326915361e+01
1.870000000000000000e+02,1.061592003148673413e+01
1.880000000000000000e+02,1.062834507200718370e+01
1.890000000000000000e+02,1.064045473974841194e+01
1.900000000000000000e+02,1.065225496795609850e+01
1.910000000000000000e+02,1.066375251415690961e+01
1.920000000000000000e+02,1.067495464629887181e+01
1.930000000000000000e+02,1.068586934592044102e+01
1.940000000000000000e+02,1.069650509998107069e+01
1.950000000000000000e+02,1.070687212515582942e+01
1.960000000000000000e+02,1.071697919593617065e+01
1.970000000000000000e+02,1.072683752840061011e+01
1.980000000000000000e+02,1.073645802029457563e+01
1.990000000000000000e+02,1.074585217090399958e+01
2.000000000000000000e+02,1.075503106830029765e+01
2.010000000000000000e+02,1.076400721576405495e+01
2.020000000000000000e+02,1.077279321300967396e+01
2.030000000000000000e+02,1.078140236394190943e+01
2.040000000000000000e+02,1.078984616145604747e+01
2.050000000000000000e+02,1.079813761832469332e+01
2.060000000000000000e+02,1.080628985552196397e+01
2.070000000000000000e+02,1.081431540406168423e+01
2.080000000000000000e+02,1.082222881099411538e+01
2.090000000000000000e+02,1.083004263530973610e+01
2.100000000000000000e+02,1.083776856102661768e+01
2.110000000000000000e+02,1.084541969436377862e+01
2.120000000000000000e+02,1.085300817025709996e+01
2.130000000000000000e+02,1.086054635153718806e+01
2.140000000000000000e+02,1.086804663027900553e+01
2.150000000000000000e+02,1.087552024082344637e+01
2.160000000000000000e+02,1.088297845433969790e+01
2.170000000000000000e+02,1.089043277630089612e+01
2.180000000000000000e+02,1.089789405788776300e+01
2.190000000000000000e+02,1.090537328776954595e+01
2.200000000000000000e+02,1.091288080445199959e+01
2.210000000000000000e+02,1.092042767442008078e+01
2.220000000000000000e+02,1.092802362787297277e+01
2.230000000000000000e+02,1.093567902476857157e+01
2.240000000000000000e+02,1.094340357860818536e+01
2.250000000000000000e+02,1.095120870230411114e+01
2.260000000000000000e+02,1.095910184141490795e+01
2.270000000000000000e+02,1.096709253530749706e+01
2.280000000000000000e+02,1.097519152574524348e+01
2.290000000000000000e+02,1.098340734972186006e+01
2.300000000000000000e+02,1.099175100451784282e+01
2.310000000000000000e+02,1.100023234736372402e+01
2.320000000000000000e+02,1.100886241967185164e+01
2.330000000000000000e+02,1.101764764882958758e+01
2.340000000000000000e+02,1.102660105060856388e+01
2.350000000000000000e+02,1.103573554054404937e+01
2.360000000000000000e+02,1.104505817305906490e+01
2.370000000000000000e+02,1.105458474755730336e+01
2.380000000000000000e+02,1.106432395119344037e+01
2.390000000000000000e+02,1.107429011140595421e+01
2.400000000000000000e+02,1.108449389874813207e+01
2.410000000000000000e+02,1.109495015275172491e+01
2.420000000000000000e+02,1.110567479954922376e+01
2.430000000000000000e+02,1.111668265511625719e+01
2.440000000000000000e+02,1.112798960238271384e+01
2.450000000000000000e+02,1.113961436423239526e+01
2.460000000000000000e+02,1.115157215691626291e+01
2.470000000000000000e+02,1.116388345203038668e+01
2.480000000000000000e+02,1.117656472327653105e+01
2.490000000000000000e+02,1.118964119398561152e+01
2.500000000000000000e+02,1.120313207690465873e+01
2.510000000000000000e+02,1.121705621147562226e+01
2.520000000000000000e+02,1.123144207520531346e+01
2.530000000000000000e+02,1.124631542339467671e+01
2.540000000000000000e+02,1.126169800841635293e+01
2.550000000000000000e+02,1.127760890017610862e+01
2.560000000000000000e+02,1.129407459831086946e+01
2.570000000000000000e+02,1.131112048289175753e+01
2.580000000000000000e+02,1.132876432707864467e+01
2.590000000000000000e+02,1.134702039087434500e+01
2.600000000000000000e+02,1.136589873325840294e+01
2.610000000000000000e+02,1.138540806578488507e+01
2.620000000000000000e+02,1.140554361491394175e+01
2.630000000000000000e+02,1.142627767165604880e+01
2.640000000000000000e+02,1.144758154997545674e+01
2.650000000000000000e+02,1.146940650147476148e+01
2.660000000000000000e+02,1.149168040972787708e+01
2.670000000000000000e+02,1.151430370280913706e+01
2.680000000000000000e+02,1.153716314537054899e+01
2.690000000000000000e+02,1.156012761366608643e+01
2.700000000000000000e+02,1.158305198323968987e+01
2.710000000000000000e+02,1.160579002387750336e+01
2.720000000000000000e+02,1.162820704374533420e+01
2.730000000000000000e+02,1.165020109356847300e+01
2.740000000000000000e+02,1.167169154456748537e+01
2.750000000000000000e+02,1.169264585957115798e+01
2.760000000000000000e+02,1.171306631631395767e+01
2.770000000000000000e+02,1.173297884477694986e+01
2.780000000000000000e+02,1.175241941615170838e+01
2.790000000000000000e+02,1.177143068989899355e+01
2.800000000000000000e+02,1.179005123796209809e+01
2.810000000000000000e+02,1.180830984170431819e+01
2.820000000000000000e+02,1.182623528725171269e+01
2.830000000000000000e+02,1.184384728441436430e+01
2.840000000000000000e+02,1.186116376861355981e+01
2.850000000000000000e+02,1.187820052030654061e+01
2.860000000000000000e+02,1.189497136837022317e+01
2.870000000000000000e+02,1.191148838842346080e+01
2.880000000000000000e+02,1.192776431804075088e+01
2.890000000000000000e+02,1.194380762867048595e+01
2.900000000000000000e+02,1.195962594187215622e+01
2.910000000000000000e+02,1.197523012454889013e+01
2.920000000000000000e+02,1.199062578210418195e+01
2.930000000000000000e+02,1.200582136835735803e+01
2.940000000000000000e+02,1.202082191380945808e+01
2.950000000000000000e+02,1.203563311066714547e+01
2.960000000000000000e+02,1.205026187045318053e+01
2.970000000000000000e+02,1.206471237020290665e+01
2.980000000000000000e+02,1.207899122137049375e+01
2.990000000000000000e+02,1.209310055857484656e+01
3.000000000000000000e+02,1.210704543989593063e+01
3.010000000000000000e+02,1.212083325634924513e+01
3.020000000000000000e+02,1.213446368980311796e+01
3.030000000000000000e+02,1.214794149192277395e+01
3.040000000000000000e+02,1.216127215440515918e+01
3.050000000000000000e+02,1.217445645242578145e+01
3.060000000000000000e+02,1.218749869242651052e+01
3.070000000000000000e+02,1.220040179902808575e+01
3.080000000000000000e+02,1.221316842900772670e+01
3.090000000000000000e+02,1.222580230599328388e+01
3.100000000000000000e+02,1.223830477114968218e+01
3.110000000000000000e+02,1.225067933184893754e+01
3.120000000000000000e+02,1.226292774809685859e+01
3.130000000000000000e+02,1.227505308028847786e+01
3.140000000000000000e+02,1.228705704050836545e+01
3.150000000000000000e+02,1.229894077994363855e+01
3.160000000000000000e+02,1.231070543519088112e+01
3.170000000000000000e+02,1.232235582908735694e+01
3.180000000000000000e+02,1.233389320310588744e+01
3.190000000000000000e+02,1.234531993652471726e+01
3.200000000000000000e+02,1.235663516616285484e+01
3.210000000000000000e+02,1.236784338726379673e+01
3.220000000000000000e+02,1.237894455086552448e+01
3.230000000000000000e+02,1.238993982394690896e+01
3.240000000000000000e+02,1.240083233993852474e+01
3.250000000000000000e+02,1.241162330633673427e+01
3.260000000000000000e+02,1.242231399403605607e+01
3.270000000000000000e+02,1.243290543402802584e+01
3.280000000000000000e+02,1.244339993162078528e+01
3.290000000000000000e+02,1.245379660287894374e+01
3.300000000000000000e+02,1.246410014196756499e+01
3.310000000000000000e+02,1.247430761057323778e+01
3.320000000000000000e+02,1.248442277041458404e+01
3.330000000000000000e+02,1.249444793070295390e+01
3.340000000000000000e+02,1.250438066605371290e+01
3.350000000000000000e+02,1.251422558949273345e+01
3.360000000000000000e+02,1.252398355032370247e+01
3.370000000000000000e+02,1.253365173824606060e+01
3.380000000000000000e+02,1.254323464863524151e+01
3.390000000000000000e+02,1.255273258619653021e+01
3.400000000000000000e+02,1.256214829884284434e+01
3.410000000000000000e+02,1.257148036744597164e+01
3.420000000000000000e+02,1.258073033695621668e+01
3.430000000000000000e+02,1.258989870661042332e+01
3.440000000000000000e+02,1.259898670754684602e+01
3.450000000000000000e+02,1.260799548757858446e+01
3.460000000000000000e+02,1.261692633252409479e+01
3.470000000000000000e+02,1.262577919669418947e+01
3.480000000000000000e+02,1.263455513220643311e+01
3.490000000000000000e+02,1.264325496327117904e+01
3.500000000000000000e+02,1.265187994602762522e+01
3.510000000000000000e+02,1.266043081629428713e+01
3.520000000000000000e+02,1.266890779317621174e+01
3.530000000000000000e+02,1.267731203930980222e+01
3.540000000000000000e+02,1.268564441807115273e+01
3.550000000000000000e+02,1.269390505975339600e+01
3.560000000000000000e+02,1.270209430957001295e+01
3.570000000000000000e+02,1.271021504503742605e+01
3.580000000000000000e+02,1.271826629148976728e+01
3.590000000000000000e+02,1.272624823372694891e+01
3.600000000000000000e+02,1.273416285840432849e+01
3.610000000000000000e+02,1.274201048216472998e+01
3.620000000000000000e+02,1.274979127426081860e+01
3.630000000000000000e+02,1.275750691173798934e+01
3.640000000000000000e+02,1.276515705032537973e+01
3.650000000000000000e+02,1.277274242197619536e+01
3.660000000000000000e+02,1.278026454182284866e+01
3.670000000000000000e+02,1.278772226758469266e+01
3.680000000000000000e+02,1.279511774976014316e+01
3.690000000000000000e+02,1.280245141322314417e+01
3.700000000000000000e+02,1.280972317997652254e+01
3.710000000000000000e+02,1.281693446727208929e+01
3.720000000000000000e+02,1.282408469145413754e+01
3.730000000000000000e+02,1.283117526079745829e+01
3.740000000000000000e+02,1.283820693668425328e+01
3.750000000000000000e+02,1.284517976628527336e+01
3.760000000000000000e+02,1.285209436211967393e+01
3.770000000000000000e+02,1.285895147427514473e+01
3.780000000000000000e+02,1.286575121181382819e+01
3.790000000000000000e+02,1.287249460038716187e+01
3.800000000000000000e+02,1.287918096631602616e+01
3.810000000000000000e+02,1.288581309187508595e+01
3.820000000000000000e+02,1.289238938015101965e+01
3.830000000000000000e+02,1.289891084267741661e+01
3.840000000000000000e+02,1.290537897765983821e+01
3.850000000000000000e+02,1.291179352072147424e+01
3.860000000000000000e+02,1.291815497898232401e+01
3.870000000000000000e+02,1.292446357609405716e+01
3.880000000000000000e+02,1.293071988374281744e+01
3.890000000000000000e+02,1.293692488993802314e+01
3.900000000000000000e+02,1.294307915854943936e+01
3.910000000000000000e+02,1.294918199364238376e+01
3.920000000000000000e+02,1.295523479320596927e+01
3.930000000000000000e+02,1.296123727661140990e+01
3.940000000000000000e+02,1.296719006825878218e+01
3.950000000000000000e+02,1.297309399789633488e+01
3.960000000000000000e+02,1.297894982177129819e+01
3.970000000000000000e+02,1.298475752872314182e+01
3.980000000000000000e+02,1.299051731478212268e+01
