# Time [s], Convective Heat Transfer Coefficient [W/m2K]
1.000000000000000000e+00,0.000000000000000000e+00
2.000000000000000000e+00,0.000000000000000000e+00
3.000000000000000000e+00,0.000000000000000000e+00
4.000000000000000000e+00,1.915079995362458862e-02
5.000000000000000000e+00,3.040000000141642594e-02
6.000000000000000000e+00,5.599727877995352293e-02
7.000000000000000000e+00,9.189834265936315527e-02
8.000000000000000000e+00,1.405138990736344573e-01
9.000000000000000000e+00,2.023992584349129376e-01
1.000000000000000000e+01,2.777586903107194249e-01
1.100000000000000000e+01,3.660710293231828616e-01
1.200000000000000000e+01,4.664171029958674719e-01
1.300000000000000000e+01,5.774596150051688470e-01
1.400000000000000000e+01,6.977844075231020016e-01
1.500000000000000000e+01,8.259266687474577928e-01
1.600000000000000000e+01,9.604801838501445532e-01
1.700000000000000000e+01,1.100164389210185112e+00
1.800000000000000000e+01,1.243834261960061527e+00
1.900000000000000000e+01,1.390476232278478275e+00
2.000000000000000000e+01,1.539232401422565566e+00
2.100000000000000000e+01,1.689363952283984949e+00
2.200000000000000000e+01,1.840247619352957553e+00
2.300000000000000000e+01,1.991350857789352169e+00
2.400000000000000000e+01,2.142227307045877716e+00
2.500000000000000000e+01,2.292501168250941745e+00
2.600000000000000000e+01,2.441850537243239305e+00
2.700000000000000000e+01,2.590001009956325539e+00
2.800000000000000000e+01,2.736723216220350530e+00
2.900000000000000000e+01,2.881823008302043299e+00
3.000000000000000000e+01,3.025140801478544805e+00
3.100000000000000000e+01,3.166541360744785205e+00
3.200000000000000000e+01,3.305921022643198093e+00
3.300000000000000000e+01,3.443201651570841459e+00
3.400000000000000000e+01,3.578330067924726965e+00
3.500000000000000000e+01,3.711264209356319732e+00
3.600000000000000000e+01,3.841989334918075816e+00
3.700000000000000000e+01,3.970500579210243242e+00
3.800000000000000000e+01,4.096797844702757985e+00
3.900000000000000000e+01,4.220892271011536856e+00
4.000000000000000000e+01,4.342804189392423631e+00
4.100000000000000000e+01,4.462552721767586661e+00
4.200000000000000000e+01,4.580162801331574940e+00
4.300000000000000000e+01,4.695666902331914194e+00
4.400000000000000000e+01,4.809095314304274282e+00
4.500000000000000000e+01,4.920486157902570490e+00
4.600000000000000000e+01,5.029873200029056690e+00
4.700000000000000000e+01,5.137300667643704521e+00
4.800000000000000000e+01,5.242807694764851867e+00
4.900000000000000000e+01,5.346436318397924659e+00
5.000000000000000000e+01,5.448221096869668933e+00
5.100000000000000000e+01,5.548202355038776901e+00
5.200000000000000000e+01,5.646420269764734989e+00
5.300000000000000000e+01,5.742910234706205763e+00
5.400000000000000000e+01,5.837707561061083794e+00
5.500000000000000000e+01,5.930854479757928566e+00
5.600000000000000000e+01,6.022387078642889691e+00
5.700000000000000000e+01,6.112342100256261901e+00
5.800000000000000000e+01,6.200755805888804595e+00
5.900000000000000000e+01,6.287666121662273788e+00
6.000000000000000000e+01,6.373106269459902329e+00
6.100000000000000000e+01,6.457109619991557636e+00
6.200000000000000000e+01,6.539709522160658040e+00
6.300000000000000000e+01,6.620935482421299589e+00
6.400000000000000000e+01,6.700818995198577710e+00
6.500000000000000000e+01,6.779388839612226825e+00
6.600000000000000000e+01,6.856675808729904453e+00
6.700000000000000000e+01,6.932706836134242323e+00
6.800000000000000000e+01,7.007510130996692510e+00
6.900000000000000000e+01,7.081113371622623553e+00
7.000000000000000000e+01,7.153546013376944401e+00
7.100000000000000000e+01,7.224833703522086203e+00
7.200000000000000000e+01,7.295002143624397029e+00
7.300000000000000000e+01,7.364076631086038383e+00
7.400000000000000000e+01,7.432080382766289794e+00
7.500000000000000000e+01,7.499035537815720076e+00
7.600000000000000000e+01,7.564964055412583654e+00
7.700000000000000000e+01,7.629885907915411103e+00
7.800000000000000000e+01,7.693822794869672244e+00
7.900000000000000000e+01,7.756794102346137976e+00
8.000000000000000000e+01,7.818820143614363616e+00
8.100000000000000000e+01,7.879920761390670769e+00
8.200000000000000000e+01,7.940115545357942395e+00
8.300000000000000000e+01,7.999424214106485742e+00
8.400000000000000000e+01,8.057865522638312683e+00
8.500000000000000000e+01,8.115457152761543114e+00
8.600000000000000000e+01,8.172215962814764367e+00
8.700000000000000000e+01,8.228158216503047129e+00
8.800000000000000000e+01,8.283299281414002735e+00
8.900000000000000000e+01,8.337653519441735384e+00
9.000000000000000000e+01,8.391235016314938733e+00
9.100000000000000000e+01,8.444057599108269585e+00
9.200000000000000000e+01,8.496135177111609593e+00
9.300000000000000000e+01,8.547480776674477809e+00
9.400000000000000000e+01,8.598108178289004755e+00
9.500000000000000000e+01,8.648030152946352800e+00
9.600000000000000000e+01,8.697260069380067904e+00
9.700000000000000000e+01,8.745811098000622508e+00
9.800000000000000000e+01,8.793694862445791571e+00
9.900000000000000000e+01,8.840924071407098239e+00
1.000000000000000000e+02,8.887509500258586215e+00
1.010000000000000000e+02,8.933460680604953907e+00
1.020000000000000000e+02,8.978788143207040662e+00
1.030000000000000000e+02,9.023500207196249789e+00
1.040000000000000000e+02,9.067605937427009266e+00
1.050000000000000000e+02,9.111114122825011208e+00
1.060000000000000000e+02,9.154033011749003634e+00
1.070000000000000000e+02,9.196371999613567993e+00
1.080000000000000000e+02,9.238139521285820166e+00
1.090000000000000000e+02,9.279344048007244439e+00
1.100000000000000000e+02,9.319994896525045647e+00
1.110000000000000000e+02,9.360100191062336705e+00
1.120000000000000000e+02,9.399669566341403382e+00
1.130000000000000000e+02,9.438710034268986249e+00
1.140000000000000000e+02,9.477229352193655032e+00
1.150000000000000000e+02,9.515236512089952470e+00
1.160000000000000000e+02,9.552736435172903384e+00
1.170000000000000000e+02,9.589737260344415759e+00
1.180000000000000000e+02,9.626245422503117766e+00
1.190000000000000000e+02,9.662267599715281818e+00
1.200000000000000000e+02,9.697807967814943808e+00
1.210000000000000000e+02,9.732872741135153660e+00
1.220000000000000000e+02,9.767467892221063153e+00
1.230000000000000000e+02,9.801598065512305169e+00
1.240000000000000000e+02,9.835266866565232746e+00
1.250000000000000000e+02,9.868477859523528295e+00
1.260000000000000000e+02,9.901232180648557701e+00
1.270000000000000000e+02,9.933533006875661542e+00
1.280000000000000000e+02,9.965379831430063007e+00
1.290000000000000000e+02,9.996771625075959733e+00
1.300000000000000000e+02,1.002770778121027462e+01
1.310000000000000000e+02,1.005818648048165365e+01
1.320000000000000000e+02,1.008820656485528211e+01
1.330000000000000000e+02,1.011776557116976960e+01
1.340000000000000000e+02,1.014686010691548113e+01
1.350000000000000000e+02,1.017548779468340392e+01
1.360000000000000000e+02,1.020364487872364734e+01
1.370000000000000000e+02,1.023132726504588064e+01
1.380000000000000000e+02,1.025853141559018589e+01
1.390000000000000000e+02,1.028525156241190786e+01
1.400000000000000000e+02,1.031148229197368416e+01
1.410000000000000000e+02,1.033721644852550625e+01
1.420000000000000000e+02,1.036244854973868001e+01
1.430000000000000000e+02,1.038717029081573706e+01
1.440000000000000000e+02,1.041137524729171560e+01
1.450000000000000000e+02,1.043505667334416209e+01
1.460000000000000000e+02,1.045820857171394458e+01
1.470000000000000000e+02,1.048082460405863259e+01
1.480000000000000000e+02,1.050289968263993146e+01
1.490000000000000000e+02,1.052442866889865236e+01
1.500000000000000000e+02,1.054540731531664299e+01
1.510000000000000000e+02,1.056583224158526590e+01
1.520000000000000000e+02,1.058570049469315677e+01
1.530000000000000000e+02,1.060501078521748752e+01
1.540000000000000000e+02,1.062376417948635066e+01
1.550000000000000000e+02,1.064196240266523041e+01
1.560000000000000000e+02,1.065961029988119435e+01
1.570000000000000000e+02,1.067671373267841162e+01
1.580000000000000000e+02,1.069328222828806041e+01
1.590000000000000000e+02,1.070932586705334089e+01
1.600000000000000000e+02,1.072485823351633627e+01
1.610000000000000000e+02,1.073989475176473540e+01
1.620000000000000000e+02,1.075445348135776236e+01
1.630000000000000000e+02,1.076855307630954250e+01
1.640000000000000000e+02,1.078221450348760868e+01
1.650000000000000000e+02,1.079546163105153056e+01
1.660000000000000000e+02,1.080832010693368339e+01
1.670000000000000000e+02,1.082081705480828937e+01
1.680000000000000000e+02,1.083297947808624251e+01
1.690000000000000000e+02,1.084483776110305087e+01
1.700000000000000000e+02,1.085641998676747555e+01
1.710000000000000000e+02,1.086775841802476350e+01
1.720000000000000000e+02,1.087888293972601339e+01
1.730000000000000000e+02,1.088982366161693172e+01
1.740000000000000000e+02,1.090061289658386912e+01
1.750000000000000000e+02,1.091127964160456720e+01
1.760000000000000000e+02,1.092185364061889175e+01
1.770000000000000000e+02,1.093236665576227118e+01
1.780000000000000000e+02,1.094284629299053258e+01
1.790000000000000000e+02,1.095332238591075935e+01
1.800000000000000000e+02,1.096382356651140988e+01
1.810000000000000000e+02,1.097437737274821323e+01
1.820000000000000000e+02,1.098500880142876035e+01
1.830000000000000000e+02,1.099574478284649715e+01
1.840000000000000000e+02,1.100661435038589531e+01
1.850000000000000000e+02,1.101764147702782992e+01
1.860000000000000000e+02,1.102885031525621251e+01
1.870000000000000000e+02,1.104026739621194153e+01
1.880000000000000000e+02,1.105192063721181484e+01
1.890000000000000000e+02,1.106383625534078341e+01
1.900000000000000000e+02,1.107604020410860990e+01
1.910000000000000000e+02,1.108855987629258522e+01
1.920000000000000000e+02,1.110142492718416918e+01
1.930000000000000000e+02,1.111466135543115641e+01
1.940000000000000000e+02,1.112830920386465117e+01
1.950000000000000000e+02,1.114240077129793072e+01
1.960000000000000000e+02,1.115696839230380988e+01
1.970000000000000000e+02,1.117205059844114245e+01
1.980000000000000000e+02,1.118769125323869496e+01
1.990000000000000000e+02,1.120393617205877668e+01
2.000000000000000000e+02,1.122083713538719252e+01
2.010000000000000000e+02,1.123843783873410906e+01
2.020000000000000000e+02,1.125679723754398154e+01
2.030000000000000000e+02,1.127597412922090392e+01
2.040000000000000000e+02,1.129603358171742045e+01
2.050000000000000000e+02,1.131704919083249905e+01
2.060000000000000000e+02,1.133908204397322450e+01
2.070000000000000000e+02,1.136220722283625761e+01
2.080000000000000000e+02,1.138649017932542939e+01
2.090000000000000000e+02,1.141199434005619651e+01
2.100000000000000000e+02,1.143876794261174368e+01
2.110000000000000000e+02,1.146682876342068980e+01
2.120000000000000000e+02,1.149616432948033662e+01
2.130000000000000000e+02,1.152671830756292337e+01
2.140000000000000000e+02,1.155836377437723961e+01
2.150000000000000000e+02,1.159087090013958132e+01
2.160000000000000000e+02,1.162392225080293962e+01
2.170000000000000000e+02,1.165713603198384618e+01
2.180000000000000000e+02,1.169005839819419812e+01
2.190000000000000000e+02,1.172228661465712030e+01
2.200000000000000000e+02,1.175353177839652119e+01
2.210000000000000000e+02,1.178367582935830704e+01
2.220000000000000000e+02,1.181275505212531307e+01
2.230000000000000000e+02,1.184090562540799851e+01
2.240000000000000000e+02,1.186825168308389244e+01
2.250000000000000000e+02,1.189489409454618318e+01
2.260000000000000000e+02,1.192090064868375698e+01
2.270000000000000000e+02,1.194632490099396449e+01
2.280000000000000000e+02,1.197120914272442782e+01
2.290000000000000000e+02,1.199559362130657192e+01
2.300000000000000000e+02,1.201950308059802808e+01
2.310000000000000000e+02,1.204297041625875941e+01
2.320000000000000000e+02,1.206601450518873264e+01
2.330000000000000000e+02,1.208865843097319193e+01
2.340000000000000000e+02,1.211092023918974903e+01
2.350000000000000000e+02,1.213281805056159257e+01
2.360000000000000000e+02,1.215436333340725739e+01
2.370000000000000000e+02,1.217557374147746074e+01
2.380000000000000000e+02,1.219646215360604202e+01
2.390000000000000000e+02,1.221703754624865113e+01
2.400000000000000000e+02,1.223731194245302589e+01
2.410000000000000000e+02,1.225729304184175206e+01
2.420000000000000000e+02,1.227699547844690819e+01
2.430000000000000000e+02,1.229642221078545639e+01
2.440000000000000000e+02,1.231558330898431031e+01
2.450000000000000000e+02,1.233448776780274869e+01
2.460000000000000000e+02,1.235314245240746800e+01
2.470000000000000000e+02,1.237155427454754530e+01
2.480000000000000000e+02,1.238972851638089345e+01
2.490000000000000000e+02,1.240767090918930649e+01
2.500000000000000000e+02,1.242538846257990492e+01
2.510000000000000000e+02,1.244288498733564552e+01
2.520000000000000000e+02,1.246016528869430928e+01
2.530000000000000000e+02,1.247723447704661304e+01
2.540000000000000000e+02,1.249409871501739744e+01
2.550000000000000000e+02,1.251076370903048485e+01
2.560000000000000000e+02,1.252723098726814044e+01
2.570000000000000000e+02,1.254350346089382739e+01
2.580000000000000000e+02,1.255958933975863623e+01
2.590000000000000000e+02,1.257548903829288633e+01
2.600000000000000000e+02,1.259120575966664646e+01
2.610000000000000000e+02,1.260674450393475077e+01
2.620000000000000000e+02,1.262210822614631311e+01
2.630000000000000000e+02,1.263730174693284170e+01
2.640000000000000000e+02,1.265232544221034061e+01
2.650000000000000000e+02,1.266718521809555398e+01
2.660000000000000000e+02,1.268188138354961403e+01
2.670000000000000000e+02,1.269641728467922626e+01
2.680000000000000000e+02,1.271079572014540382e+01
2.690000000000000000e+02,1.272501815273965065e+01
2.700000000000000000e+02,1.273908825918549681e+01
2.710000000000000000e+02,1.275300780364524833e+01
2.720000000000000000e+02,1.276678132737313121e+01
2.730000000000000000e+02,1.278040974105812921e+01
2.740000000000000000e+02,1.279389215184307460e+01
2.750000000000000000e+02,1.280723466040321235e+01
2.760000000000000000e+02,1.282043818129297286e+01
2.770000000000000000e+02,1.283350311675895128e+01
2.780000000000000000e+02,1.284643404356054219e+01
2.790000000000000000e+02,1.285923103495388986e+01
2.800000000000000000e+02,1.287189698295089357e+01
2.810000000000000000e+02,1.288443298743613319e+01
2.820000000000000000e+02,1.289684196321470289e+01
2.830000000000000000e+02,1.290912300330739626e+01
2.840000000000000000e+02,1.292128053005769672e+01
2.850000000000000000e+02,1.293331528761100735e+01
2.860000000000000000e+02,1.294522919638843206e+01
2.870000000000000000e+02,1.295702241395952825e+01
2.880000000000000000e+02,1.296869912809721015e+01
2.890000000000000000e+02,1.298025855833317443e+01
2.900000000000000000e+02,1.299170179714042739e+01
2.910000000000000000e+02,1.300303110112781724e+01
2.920000000000000000e+02,1.301424704745229732e+01
2.930000000000000000e+02,1.302535234330058778e+01
2.940000000000000000e+02,1.303634870836664561e+01
2.950000000000000000e+02,1.304723633335417965e+01
2.960000000000000000e+02,1.305801698218570017e+01
2.970000000000000000e+02,1.306869034653527173e+01
2.980000000000000000e+02,1.307925898972984946e+01
2.990000000000000000e+02,1.308972593253261074e+01
3.000000000000000000e+02,1.310008919291446361e+01
3.010000000000000000e+02,1.311035129224609186e+01
3.020000000000000000e+02,1.312051384814759381e+01
3.030000000000000000e+02,1.313057866807805674e+01
3.040000000000000000e+02,1.314054456184695319e+01
3.050000000000000000e+02,1.315041433650180380e+01
3.060000000000000000e+02,1.316018848056533663e+01
3.070000000000000000e+02,1.316986774609245714e+01
3.080000000000000000e+02,1.317945388812708885e+01
3.090000000000000000e+02,1.318894763868999043e+01
3.100000000000000000e+02,1.319835019268034060e+01
3.110000000000000000e+02,1.320766199679628450e+01
3.120000000000000000e+02,1.321688536835255157e+01
3.130000000000000000e+02,1.322601919578742624e+01
3.140000000000000000e+02,1.323506571197624027e+01
3.150000000000000000e+02,1.324402620027075805e+01
3.160000000000000000e+02,1.325290093446647255e+01
3.170000000000000000e+02,1.326169064994897084e+01
3.180000000000000000e+02,1.327039693952346333e+01
3.190000000000000000e+02,1.327902005718240019e+01
3.200000000000000000e+02,1.328756124741224021e+01
3.210000000000000000e+02,1.329602108350106526e+01
3.220000000000000000e+02,1.330440158815600782e+01
3.230000000000000000e+02,1.331270259173887638e+01
3.240000000000000000e+02,1.332092445074396103e+01
3.250000000000000000e+02,1.332906811044570539e+01
3.260000000000000000e+02,1.333713483813437328e+01
3.270000000000000000e+02,1.334512602409287396e+01
3.280000000000000000e+02,1.335304108012582169e+01
3.290000000000000000e+02,1.336088118908886457e+01
3.300000000000000000e+02,1.336864772255912648e+01
3.310000000000000000e+02,1.337634132393477238e+01
3.320000000000000000e+02,1.338396269690382390e+01
3.330000000000000000e+02,1.339151240933650477e+01
3.340000000000000000e+02,1.339899122012063692e+01
3.350000000000000000e+02,1.340640001302612205e+01
3.360000000000000000e+02,1.341373869008144304e+01
3.370000000000000000e+02,1.342100864654866932e+01
3.380000000000000000e+02,1.342821094516466118e+01
3.390000000000000000e+02,1.343534612348331869e+01
3.400000000000000000e+02,1.344241322499974167e+01
3.410000000000000000e+02,1.344941524300292457e+01
3.420000000000000000e+02,1.345635237674034812e+01
3.430000000000000000e+02,1.346322398340384296e+01
3.440000000000000000e+02,1.347003116306609272e+01
3.450000000000000000e+02,1.347677558976038270e+01
3.460000000000000000e+02,1.348345667564551320e+01
3.470000000000000000e+02,1.349007614932878951e+01
3.480000000000000000e+02,1.349663386748706451e+01
3.490000000000000000e+02,1.350313032784781342e+01
3.500000000000000000e+02,1.350956660198011861e+01
3.510000000000000000e+02,1.351594228209363280e+01
3.520000000000000000e+02,1.352226003340480887e+01
3.530000000000000000e+02,1.352851841635751740e+01
3.540000000000000000e+02,1.353471874309845369e+01
3.550000000000000000e+02,1.354086193654353565e+01
3.560000000000000000e+02,1.354694738407753185e+01
3.570000000000000000e+02,1.355297797907991253e+01
3.580000000000000000e+02,1.355895157320939681e+01
3.590000000000000000e+02,1.356487015957427111e+01
3.600000000000000000e+02,1.357073470608792043e+01
3.610000000000000000e+02,1.357654458842971401e+01
3.620000000000000000e+02,1.358230032540807919e+01
3.630000000000000000e+02,1.358800357411437965e+01
3.640000000000000000e+02,1.359365408449570189e+01
3.650000000000000000e+02,1.359925236577525531e+01
3.660000000000000000e+02,1.360479860817418896e+01
3.670000000000000000e+02,1.361029439046668266e+01
3.680000000000000000e+02,1.361573913841692907e+01
3.690000000000000000e+02,1.362113448684928052e+01
3.700000000000000000e+02,1.362647973179083216e+01
3.710000000000000000e+02,1.363177549336557171e+01
3.720000000000000000e+02,1.363702289234790221e+01
3.730000000000000000e+02,1.364222210163354987e+01
3.740000000000000000e+02,1.364737366975905175e+01
3.750000000000000000e+02,1.365247801707629982e+01
3.760000000000000000e+02,1.365753524798957486e+01
3.770000000000000000e+02,1.366254590467634067e+01
3.780000000000000000e+02,1.366751077750516963e+01
3.790000000000000000e+02,1.367243002748626246e+01
3.800000000000000000e+02,1.367730444008478763e+01
3.810000000000000000e+02,1.368213385972752683e+01
3.820000000000000000e+02,1.368691938022751664e+01
3.830000000000000000e+02,1.369166078020468724e+01
3.840000000000000000e+02,1.369635933575699127e+01
3.850000000000000000e+02,1.370101469737324251e+01
3.860000000000000000e+02,1.370562651573988155e+01
3.870000000000000000e+02,1.371019649683274899e+01
3.880000000000000000e+02,1.371472547006173137e+01
3.890000000000000000e+02,1.371921276929197475e+01
3.900000000000000000e+02,1.372365909682310203e+01
3.910000000000000000e+02,1.372806434496204986e+01
3.920000000000000000e+02,1.373242958502731881e+01
3.930000000000000000e+02,1.373675576088196593e+01
3.940000000000000000e+02,1.374104207746960071e+01
3.950000000000000000e+02,1.374528867045848202e+01
3.960000000000000000e+02,1.374949709871434322e+01
3.970000000000000000e+02,1.375366749336745187e+01
3.980000000000000000e+02,1.375779868587480337e+01
