# Time [s], Temperature [C]
1.000000000000000000e+00,2.500000000000000000e+01
2.000000000000000000e+00,2.500000000000000000e+01
3.000000000000000000e+00,2.500000000000000000e+01
4.000000000000000000e+00,2.500000000000000000e+01
5.000000000000000000e+00,2.500000199999999850e+01
6.000000000000000000e+00,2.500000599999999906e+01
7.000000000000000000e+00,2.500002500000000083e+01
8.000000000000000000e+00,2.500008400000000108e+01
9.000000000000000000e+00,2.500024399999999858e+01
1.000000000000000000e+01,2.500062199999999990e+01
1.100000000000000000e+01,2.500140800000000141e+01
1.200000000000000000e+01,2.500289300000000026e+01
1.300000000000000000e+01,2.500546800000000047e+01
1.400000000000000000e+01,2.500962099999999921e+01
1.500000000000000000e+01,2.501592399999999827e+01
1.600000000000000000e+01,2.502501099999999923e+01
1.700000000000000000e+01,2.503755999999999915e+01
1.800000000000000000e+01,2.505425599999999875e+01
1.900000000000000000e+01,2.507579000000000136e+01
2.000000000000000000e+01,2.510282700000000133e+01
2.100000000000000000e+01,2.513599200000000167e+01
2.200000000000000000e+01,2.517587100000000078e+01
2.300000000000000000e+01,2.522298999999999936e+01
2.400000000000000000e+01,2.527782600000000102e+01
2.500000000000000000e+01,2.534079399999999893e+01
2.600000000000000000e+01,2.541224700000000070e+01
2.700000000000000000e+01,2.549248899999999907e+01
2.800000000000000000e+01,2.558176200000000122e+01
2.900000000000000000e+01,2.568026400000000109e+01
3.000000000000000000e+01,2.578813699999999898e+01
3.100000000000000000e+01,2.590549100000000138e+01
3.200000000000000000e+01,2.603238500000000144e+01
3.300000000000000000e+01,2.616884399999999999e+01
3.400000000000000000e+01,2.631486500000000106e+01
3.500000000000000000e+01,2.647041099999999858e+01
3.600000000000000000e+01,2.663542400000000043e+01
3.700000000000000000e+01,2.680981799999999993e+01
3.800000000000000000e+01,2.699348799999999926e+01
3.900000000000000000e+01,2.718632099999999951e+01
4.000000000000000000e+01,2.738817399999999935e+01
4.100000000000000000e+01,2.759890400000000099e+01
4.200000000000000000e+01,2.781834800000000030e+01
4.300000000000000000e+01,2.804634499999999875e+01
4.400000000000000000e+01,2.828272099999999867e+01
4.500000000000000000e+01,2.852728799999999865e+01
4.600000000000000000e+01,2.877986699999999942e+01
4.700000000000000000e+01,2.904027400000000014e+01
4.800000000000000000e+01,2.930830600000000175e+01
4.900000000000000000e+01,2.958378199999999936e+01
5.000000000000000000e+01,2.986651399999999867e+01
5.100000000000000000e+01,3.015630000000000166e+01
5.200000000000000000e+01,3.045294799999999924e+01
5.300000000000000000e+01,3.075627100000000169e+01
5.400000000000000000e+01,3.106608400000000003e+01
5.500000000000000000e+01,3.138219099999999884e+01
5.600000000000000000e+01,3.170441399999999987e+01
5.700000000000000000e+01,3.203257399999999677e+01
5.800000000000000000e+01,3.236647800000000075e+01
5.900000000000000000e+01,3.270596299999999701e+01
6.000000000000000000e+01,3.305084599999999995e+01
6.100000000000000000e+01,3.340095500000000328e+01
6.200000000000000000e+01,3.375613400000000297e+01
6.300000000000000000e+01,3.411621499999999685e+01
6.400000000000000000e+01,3.448104099999999761e+01
6.500000000000000000e+01,3.485045199999999710e+01
6.600000000000000000e+01,3.522429300000000296e+01
6.700000000000000000e+01,3.560242099999999965e+01
6.800000000000000000e+01,3.598467999999999734e+01
6.900000000000000000e+01,3.637093699999999785e+01
7.000000000000000000e+01,3.676105100000000192e+01
7.100000000000000000e+01,3.715488799999999969e+01
7.200000000000000000e+01,3.755231500000000011e+01
7.300000000000000000e+01,3.795320499999999697e+01
7.400000000000000000e+01,3.835743300000000033e+01
7.500000000000000000e+01,3.876488100000000259e+01
7.600000000000000000e+01,3.917542600000000164e+01
7.700000000000000000e+01,3.958895900000000267e+01
7.800000000000000000e+01,4.000536699999999968e+01
7.900000000000000000e+01,4.042454099999999784e+01
8.000000000000000000e+01,4.084637500000000188e+01
8.100000000000000000e+01,4.127076699999999931e+01
8.200000000000000000e+01,4.169761299999999693e+01
8.300000000000000000e+01,4.212682300000000168e+01
8.400000000000000000e+01,4.255830000000000268e+01
8.500000000000000000e+01,4.299195100000000025e+01
8.600000000000000000e+01,4.342768900000000087e+01
8.700000000000000000e+01,4.386543999999999954e+01
8.800000000000000000e+01,4.430510300000000257e+01
8.900000000000000000e+01,4.474660500000000241e+01
9.000000000000000000e+01,4.518986100000000050e+01
9.100000000000000000e+01,4.563479999999999848e+01
9.200000000000000000e+01,4.608134499999999889e+01
9.300000000000000000e+01,4.652942300000000131e+01
9.400000000000000000e+01,4.697896599999999978e+01
9.500000000000000000e+01,4.742990499999999798e+01
9.600000000000000000e+01,4.788219099999999884e+01
9.700000000000000000e+01,4.833575100000000191e+01
9.800000000000000000e+01,4.879050800000000265e+01
9.900000000000000000e+01,4.924640699999999782e+01
1.000000000000000000e+02,4.970339200000000091e+01
1.010000000000000000e+02,5.016140399999999744e+01
1.020000000000000000e+02,5.062039899999999903e+01
1.030000000000000000e+02,5.108033400000000057e+01
1.040000000000000000e+02,5.154113799999999657e+01
1.050000000000000000e+02,5.200275400000000303e+01
1.060000000000000000e+02,5.246514499999999970e+01
1.070000000000000000e+02,5.292826099999999911e+01
1.080000000000000000e+02,5.339205900000000327e+01
1.090000000000000000e+02,5.385651399999999711e+01
1.100000000000000000e+02,5.432155999999999807e+01
1.110000000000000000e+02,5.478714800000000196e+01
1.120000000000000000e+02,5.525324200000000019e+01
1.130000000000000000e+02,5.571981000000000250e+01
1.140000000000000000e+02,5.618681699999999779e+01
1.150000000000000000e+02,5.665424000000000149e+01
1.160000000000000000e+02,5.712202099999999660e+01
1.170000000000000000e+02,5.759011799999999681e+01
1.180000000000000000e+02,5.805850999999999829e+01
1.190000000000000000e+02,5.852716399999999908e+01
1.200000000000000000e+02,5.899605199999999883e+01
1.210000000000000000e+02,5.946515999999999735e+01
1.220000000000000000e+02,5.993443700000000263e+01
1.230000000000000000e+02,6.040384300000000195e+01
1.240000000000000000e+02,6.087336299999999767e+01
1.250000000000000000e+02,6.134297200000000316e+01
1.260000000000000000e+02,6.181264500000000339e+01
1.270000000000000000e+02,6.228237200000000229e+01
1.280000000000000000e+02,6.275210200000000071e+01
1.290000000000000000e+02,6.322181700000000149e+01
1.300000000000000000e+02,6.369149399999999872e+01
1.310000000000000000e+02,6.416111800000000187e+01
1.320000000000000000e+02,6.463066899999999748e+01
1.330000000000000000e+02,6.510013600000000622e+01
1.340000000000000000e+02,6.556946600000000558e+01
1.350000000000000000e+02,6.603865799999999808e+01
1.360000000000000000e+02,6.650768999999999664e+01
1.370000000000000000e+02,6.697654699999999650e+01
1.380000000000000000e+02,6.744522100000000364e+01
1.390000000000000000e+02,6.791369600000000162e+01
1.400000000000000000e+02,6.838191999999999382e+01
1.410000000000000000e+02,6.884990700000000174e+01
1.420000000000000000e+02,6.931762700000000166e+01
1.430000000000000000e+02,6.978507199999999955e+01
1.440000000000000000e+02,7.025225100000000111e+01
1.450000000000000000e+02,7.071911599999999964e+01
1.460000000000000000e+02,7.118565399999999954e+01
1.470000000000000000e+02,7.165186300000000585e+01
1.480000000000000000e+02,7.211772200000000055e+01
1.490000000000000000e+02,7.258322099999999466e+01
1.500000000000000000e+02,7.304836299999999483e+01
1.510000000000000000e+02,7.351313799999999787e+01
1.520000000000000000e+02,7.397750899999999774e+01
1.530000000000000000e+02,7.444147499999999695e+01
1.540000000000000000e+02,7.490502200000000244e+01
1.550000000000000000e+02,7.536814099999999428e+01
1.560000000000000000e+02,7.583084100000000660e+01
1.570000000000000000e+02,7.629311400000000276e+01
1.580000000000000000e+02,7.675491300000000194e+01
1.590000000000000000e+02,7.721625500000000386e+01
1.600000000000000000e+02,7.767711599999999805e+01
1.610000000000000000e+02,7.813748900000000219e+01
1.620000000000000000e+02,7.859738199999999608e+01
1.630000000000000000e+02,7.905679299999999898e+01
1.640000000000000000e+02,7.951570900000000108e+01
1.650000000000000000e+02,7.997410600000000613e+01
1.660000000000000000e+02,8.043197600000000591e+01
1.670000000000000000e+02,8.088932800000000611e+01
1.680000000000000000e+02,8.134613799999999628e+01
1.690000000000000000e+02,8.180240600000000484e+01
1.700000000000000000e+02,8.225814800000000560e+01
1.710000000000000000e+02,8.271334099999999978e+01
1.720000000000000000e+02,8.316797599999999591e+01
1.730000000000000000e+02,8.362204699999999491e+01
1.740000000000000000e+02,8.407554600000000278e+01
1.750000000000000000e+02,8.452847300000000530e+01
1.760000000000000000e+02,8.498081999999999425e+01
1.770000000000000000e+02,8.543257900000000404e+01
1.780000000000000000e+02,8.588376599999999428e+01
1.790000000000000000e+02,8.633435799999999460e+01
1.800000000000000000e+02,8.678435500000000502e+01
1.810000000000000000e+02,8.723374900000000309e+01
1.820000000000000000e+02,8.768253300000000650e+01
1.830000000000000000e+02,8.813070700000000102e+01
1.840000000000000000e+02,8.857827000000000339e+01
1.850000000000000000e+02,8.902520800000000634e+01
1.860000000000000000e+02,8.947154199999999946e+01
1.870000000000000000e+02,8.991725200000000484e+01
1.880000000000000000e+02,9.036232800000000509e+01
1.890000000000000000e+02,9.080677799999999422e+01
1.900000000000000000e+02,9.125058699999999590e+01
1.910000000000000000e+02,9.169376400000000160e+01
1.920000000000000000e+02,9.213629899999999395e+01
1.930000000000000000e+02,9.257819399999999632e+01
1.940000000000000000e+02,9.301944000000000301e+01
1.950000000000000000e+02,9.346005200000000457e+01
1.960000000000000000e+02,9.390000200000000063e+01
1.970000000000000000e+02,9.433930999999999756e+01
1.980000000000000000e+02,9.477795399999999404e+01
1.990000000000000000e+02,9.521594199999999830e+01
2.000000000000000000e+02,9.565327499999999361e+01
2.010000000000000000e+02,9.608994300000000521e+01
2.020000000000000000e+02,9.652594799999999964e+01
2.030000000000000000e+02,9.696128799999999615e+01
2.040000000000000000e+02,9.739596600000000137e+01
2.050000000000000000e+02,9.782996400000000392e+01
2.060000000000000000e+02,9.826331299999999658e+01
2.070000000000000000e+02,9.869597600000000170e+01
2.080000000000000000e+02,9.912797500000000639e+01
2.090000000000000000e+02,9.955928799999999512e+01
2.100000000000000000e+02,9.998993699999999762e+01
2.110000000000000000e+02,1.004198999999999984e+02
2.120000000000000000e+02,1.008491800000000040e+02
2.130000000000000000e+02,1.012777899999999960e+02
2.140000000000000000e+02,1.017057199999999995e+02
2.150000000000000000e+02,1.021329599999999971e+02
2.160000000000000000e+02,1.025595200000000062e+02
2.170000000000000000e+02,1.029853899999999953e+02
2.180000000000000000e+02,1.034105799999999959e+02
2.190000000000000000e+02,1.038350800000000049e+02
2.200000000000000000e+02,1.042588999999999970e+02
2.210000000000000000e+02,1.046820199999999943e+02
2.220000000000000000e+02,1.051044600000000031e+02
2.230000000000000000e+02,1.055262100000000061e+02
2.240000000000000000e+02,1.059472800000000063e+02
2.250000000000000000e+02,1.063676499999999976e+02
2.260000000000000000e+02,1.067873199999999940e+02
2.270000000000000000e+02,1.072063100000000020e+02
2.280000000000000000e+02,1.076246100000000041e+02
2.290000000000000000e+02,1.080422099999999972e+02
2.300000000000000000e+02,1.084591199999999986e+02
2.310000000000000000e+02,1.088753399999999942e+02
2.320000000000000000e+02,1.092908599999999950e+02
2.330000000000000000e+02,1.097056800000000010e+02
2.340000000000000000e+02,1.101197999999999979e+02
2.350000000000000000e+02,1.105332400000000064e+02
2.360000000000000000e+02,1.109459800000000058e+02
2.370000000000000000e+02,1.113580199999999962e+02
2.380000000000000000e+02,1.117693699999999950e+02
2.390000000000000000e+02,1.121800199999999990e+02
2.400000000000000000e+02,1.125899799999999971e+02
2.410000000000000000e+02,1.129992400000000004e+02
2.420000000000000000e+02,1.134077999999999946e+02
2.430000000000000000e+02,1.138156699999999972e+02
2.440000000000000000e+02,1.142228300000000019e+02
2.450000000000000000e+02,1.146293000000000006e+02
2.460000000000000000e+02,1.150350700000000046e+02
2.470000000000000000e+02,1.154401500000000027e+02
2.480000000000000000e+02,1.158445200000000028e+02
2.490000000000000000e+02,1.162482100000000003e+02
2.500000000000000000e+02,1.166512000000000029e+02
2.510000000000000000e+02,1.170534799999999933e+02
2.520000000000000000e+02,1.174550799999999953e+02
2.530000000000000000e+02,1.178559699999999992e+02
2.540000000000000000e+02,1.182561599999999942e+02
2.550000000000000000e+02,1.186556700000000006e+02
2.560000000000000000e+02,1.190544699999999949e+02
2.570000000000000000e+02,1.194525900000000007e+02
2.580000000000000000e+02,1.198500099999999975e+02
2.590000000000000000e+02,1.202467199999999963e+02
2.600000000000000000e+02,1.206427500000000066e+02
2.610000000000000000e+02,1.210380700000000047e+02
2.620000000000000000e+02,1.214327100000000002e+02
2.630000000000000000e+02,1.218266500000000008e+02
2.640000000000000000e+02,1.222198999999999955e+02
2.650000000000000000e+02,1.226124599999999987e+02
2.660000000000000000e+02,1.230043100000000038e+02
2.670000000000000000e+02,1.233954800000000063e+02
2.680000000000000000e+02,1.237859499999999997e+02
2.690000000000000000e+02,1.241757300000000015e+02
2.700000000000000000e+02,1.245648099999999943e+02
2.710000000000000000e+02,1.249531999999999954e+02
2.720000000000000000e+02,1.253409000000000049e+02
2.730000000000000000e+02,1.257279099999999943e+02
2.740000000000000000e+02,1.261142200000000031e+02
2.750000000000000000e+02,1.264998499999999950e+02
2.760000000000000000e+02,1.268847899999999953e+02
2.770000000000000000e+02,1.272690400000000039e+02
2.780000000000000000e+02,1.276526000000000067e+02
2.790000000000000000e+02,1.280354600000000005e+02
2.800000000000000000e+02,1.284176500000000090e+02
2.810000000000000000e+02,1.287991299999999910e+02
2.820000000000000000e+02,1.291799499999999910e+02
2.830000000000000000e+02,1.295600599999999929e+02
2.840000000000000000e+02,1.299394700000000000e+02
2.850000000000000000e+02,1.303182099999999934e+02
2.860000000000000000e+02,1.306962599999999952e+02
2.870000000000000000e+02,1.310736200000000053e+02
2.880000000000000000e+02,1.314503200000000049e+02
2.890000000000000000e+02,1.318263100000000065e+02
2.900000000000000000e+02,1.322016299999999944e+02
2.910000000000000000e+02,1.325762499999999875e+02
2.920000000000000000e+02,1.329501999999999953e+02
2.930000000000000000e+02,1.333234699999999862e+02
2.940000000000000000e+02,1.336960599999999886e+02
2.950000000000000000e+02,1.340679599999999994e+02
2.960000000000000000e+02,1.344391899999999964e+02
2.970000000000000000e+02,1.348097400000000050e+02
2.980000000000000000e+02,1.351795999999999935e+02
2.990000000000000000e+02,1.355487699999999904e+02
3.000000000000000000e+02,1.359172700000000020e+02
3.010000000000000000e+02,1.362850999999999999e+02
3.020000000000000000e+02,1.366522500000000093e+02
3.030000000000000000e+02,1.370187200000000018e+02
3.040000000000000000e+02,1.373845100000000059e+02
3.050000000000000000e+02,1.377496299999999962e+02
3.060000000000000000e+02,1.381140699999999981e+02
3.070000000000000000e+02,1.384778399999999863e+02
3.080000000000000000e+02,1.388409399999999891e+02
3.090000000000000000e+02,1.392033500000000004e+02
3.100000000000000000e+02,1.395651100000000042e+02
3.110000000000000000e+02,1.399261799999999880e+02
3.120000000000000000e+02,1.402865899999999897e+02
3.130000000000000000e+02,1.406463300000000061e+02
3.140000000000000000e+02,1.410053900000000056e+02
3.150000000000000000e+02,1.413637699999999882e+02
3.160000000000000000e+02,1.417214999999999918e+02
3.170000000000000000e+02,1.420785500000000070e+02
3.180000000000000000e+02,1.424349400000000117e+02
3.190000000000000000e+02,1.427906600000000026e+02
3.200000000000000000e+02,1.431457200000000114e+02
3.210000000000000000e+02,1.435001100000000065e+02
3.220000000000000000e+02,1.438538399999999911e+02
3.230000000000000000e+02,1.442068800000000124e+02
3.240000000000000000e+02,1.445592800000000011e+02
3.250000000000000000e+02,1.449110000000000014e+02
3.260000000000000000e+02,1.452620699999999943e+02
3.270000000000000000e+02,1.456124900000000082e+02
3.280000000000000000e+02,1.459622200000000021e+02
3.290000000000000000e+02,1.463113099999999918e+02
3.300000000000000000e+02,1.466597299999999962e+02
3.310000000000000000e+02,1.470074899999999900e+02
3.320000000000000000e+02,1.473546000000000049e+02
3.330000000000000000e+02,1.477010500000000093e+02
3.340000000000000000e+02,1.480468400000000031e+02
3.350000000000000000e+02,1.483919799999999896e+02
3.360000000000000000e+02,1.487364499999999907e+02
3.370000000000000000e+02,1.490802799999999877e+02
3.380000000000000000e+02,1.494234299999999962e+02
3.390000000000000000e+02,1.497659500000000037e+02
3.400000000000000000e+02,1.501077999999999975e+02
3.410000000000000000e+02,1.504490199999999902e+02
3.420000000000000000e+02,1.507895800000000008e+02
3.430000000000000000e+02,1.511294900000000041e+02
3.440000000000000000e+02,1.514687299999999937e+02
3.450000000000000000e+02,1.518073300000000074e+02
3.460000000000000000e+02,1.521452800000000138e+02
3.470000000000000000e+02,1.524825899999999876e+02
3.480000000000000000e+02,1.528192600000000141e+02
3.490000000000000000e+02,1.531552599999999984e+02
3.500000000000000000e+02,1.534906300000000101e+02
3.510000000000000000e+02,1.538253499999999860e+02
3.520000000000000000e+02,1.541594200000000114e+02
3.530000000000000000e+02,1.544928600000000074e+02
3.540000000000000000e+02,1.548256399999999928e+02
3.550000000000000000e+02,1.551577900000000056e+02
3.560000000000000000e+02,1.554892900000000111e+02
3.570000000000000000e+02,1.558201400000000092e+02
3.580000000000000000e+02,1.561503600000000063e+02
3.590000000000000000e+02,1.564799500000000023e+02
3.600000000000000000e+02,1.568088799999999878e+02
3.610000000000000000e+02,1.571371900000000039e+02
3.620000000000000000e+02,1.574648599999999874e+02
3.630000000000000000e+02,1.577918899999999951e+02
3.640000000000000000e+02,1.581182699999999954e+02
3.650000000000000000e+02,1.584440299999999979e+02
3.660000000000000000e+02,1.587691499999999962e+02
3.670000000000000000e+02,1.590936399999999935e+02
3.680000000000000000e+02,1.594174999999999898e+02
3.690000000000000000e+02,1.597407200000000103e+02
3.700000000000000000e+02,1.600633100000000013e+02
3.710000000000000000e+02,1.603852699999999913e+02
3.720000000000000000e+02,1.607066000000000088e+02
3.730000000000000000e+02,1.610272999999999968e+02
3.740000000000000000e+02,1.613473700000000122e+02
3.750000000000000000e+02,1.616668099999999981e+02
3.760000000000000000e+02,1.619856299999999862e+02
3.770000000000000000e+02,1.623038200000000018e+02
3.780000000000000000e+02,1.626213700000000131e+02
3.790000000000000000e+02,1.629383100000000013e+02
3.800000000000000000e+02,1.632546199999999885e+02
3.810000000000000000e+02,1.635703100000000063e+02
3.820000000000000000e+02,1.638853799999999978e+02
3.830000000000000000e+02,1.641998299999999915e+02
3.840000000000000000e+02,1.645136400000000094e+02
3.850000000000000000e+02,1.648268600000000106e+02
3.860000000000000000e+02,1.651394300000000044e+02
3.870000000000000000e+02,1.654514000000000067e+02
3.880000000000000000e+02,1.657627400000000080e+02
3.890000000000000000e+02,1.660734699999999862e+02
3.900000000000000000e+02,1.663835799999999949e+02
3.910000000000000000e+02,1.666930700000000058e+02
3.920000000000000000e+02,1.670019399999999905e+02
3.930000000000000000e+02,1.673102100000000121e+02
3.940000000000000000e+02,1.676178600000000074e+02
3.950000000000000000e+02,1.679249000000000080e+02
3.960000000000000000e+02,1.682313200000000109e+02
3.970000000000000000e+02,1.685371399999999937e+02
3.980000000000000000e+02,1.688423300000000040e+02
3.990000000000000000e+02,1.691469299999999976e+02
