# Time [s], Mass [Kg]
1.000000000000000000e+00,1.000000000000000000e+00
2.000000000000000000e+00,1.000000000000000000e+00
3.000000000000000000e+00,1.000000000000000000e+00
4.000000000000000000e+00,1.000000000000000000e+00
5.000000000000000000e+00,1.000000000000000000e+00
6.000000000000000000e+00,1.000000000000000000e+00
7.000000000000000000e+00,1.000000000000000000e+00
8.000000000000000000e+00,1.000000000000000000e+00
9.000000000000000000e+00,1.000000000000000000e+00
1.000000000000000000e+01,1.000000000000000000e+00
1.100000000000000000e+01,1.000000000000000000e+00
1.200000000000000000e+01,1.000000000000000000e+00
1.300000000000000000e+01,1.000000000000000000e+00
1.400000000000000000e+01,1.000000000000000000e+00
1.500000000000000000e+01,1.000000000000000000e+00
1.600000000000000000e+01,1.000000000000000000e+00
1.700000000000000000e+01,1.000000000000000000e+00
1.800000000000000000e+01,1.000000000000000000e+00
1.900000000000000000e+01,1.000000000000000000e+00
2.000000000000000000e+01,9.999999400000000316e-01
2.100000000000000000e+01,9.999999400000000316e-01
2.200000000000000000e+01,9.999999400000000316e-01
2.300000000000000000e+01,9.999998799999999521e-01
2.400000000000000000e+01,9.999998199999999837e-01
2.500000000000000000e+01,9.999997000000000469e-01
2.600000000000000000e+01,9.999995799999999990e-01
2.700000000000000000e+01,9.999993999999999827e-01
2.800000000000000000e+01,9.999991700000000483e-01
2.900000000000000000e+01,9.999988100000000157e-01
3.000000000000000000e+01,9.999983900000000148e-01
3.100000000000000000e+01,9.999977899999999975e-01
3.200000000000000000e+01,9.999970200000000142e-01
3.300000000000000000e+01,9.999960700000000147e-01
3.400000000000000000e+01,9.999947500000000433e-01
3.500000000000000000e+01,9.999931499999999973e-01
3.600000000000000000e+01,9.999910600000000427e-01
3.700000000000000000e+01,9.999884999999999469e-01
3.800000000000000000e+01,9.999852200000000080e-01
3.900000000000000000e+01,9.999812200000000040e-01
4.000000000000000000e+01,9.999763400000000191e-01
4.100000000000000000e+01,9.999703800000000475e-01
4.200000000000000000e+01,9.999630999999999936e-01
4.300000000000000000e+01,9.999544599999999894e-01
4.400000000000000000e+01,9.999440899999999521e-01
4.500000000000000000e+01,9.999318099999999765e-01
4.600000000000000000e+01,9.999173900000000170e-01
4.700000000000000000e+01,9.999004599999999909e-01
4.800000000000000000e+01,9.998807299999999953e-01
4.900000000000000000e+01,9.998578999999999661e-01
5.000000000000000000e+01,9.998314999999999841e-01
5.100000000000000000e+01,9.998012200000000460e-01
5.200000000000000000e+01,9.997666499999999790e-01
5.300000000000000000e+01,9.997272499999999562e-01
5.400000000000000000e+01,9.996826599999999452e-01
5.500000000000000000e+01,9.996323000000000292e-01
5.600000000000000000e+01,9.995757299999999956e-01
5.700000000000000000e+01,9.995123700000000388e-01
5.800000000000000000e+01,9.994416799999999990e-01
5.900000000000000000e+01,9.993631200000000492e-01
6.000000000000000000e+01,9.992761599999999689e-01
6.100000000000000000e+01,9.991801999999999628e-01
6.200000000000000000e+01,9.990747599999999506e-01
6.300000000000000000e+01,9.989591799999999466e-01
6.400000000000000000e+01,9.988330600000000503e-01
6.500000000000000000e+01,9.986957899999999722e-01
6.600000000000000000e+01,9.985469000000000150e-01
6.700000000000000000e+01,9.983860300000000354e-01
6.800000000000000000e+01,9.982125800000000160e-01
6.900000000000000000e+01,9.980263099999999721e-01
7.000000000000000000e+01,9.978267600000000348e-01
7.100000000000000000e+01,9.976060399999999717e-01
7.200000000000000000e+01,9.973786500000000332e-01
7.300000000000000000e+01,9.971377799999999736e-01
7.400000000000000000e+01,9.968833299999999564e-01
7.500000000000000000e+01,9.966145800000000277e-01
7.600000000000000000e+01,9.963313900000000389e-01
7.700000000000000000e+01,9.960335500000000453e-01
7.800000000000000000e+01,9.957209799999999777e-01
7.900000000000000000e+01,9.953937499999999661e-01
8.000000000000000000e+01,9.950518000000000418e-01
8.100000000000000000e+01,9.946952500000000308e-01
8.200000000000000000e+01,9.943240899999999938e-01
8.300000000000000000e+01,9.939386199999999949e-01
8.400000000000000000e+01,9.935388600000000237e-01
8.500000000000000000e+01,9.931250200000000250e-01
8.600000000000000000e+01,9.926973599999999731e-01
8.700000000000000000e+01,9.922559899999999766e-01
8.800000000000000000e+01,9.918012000000000494e-01
8.900000000000000000e+01,9.913332500000000547e-01
9.000000000000000000e+01,9.908523000000000192e-01
9.100000000000000000e+01,9.903585900000000386e-01
9.200000000000000000e+01,9.898524899999999738e-01
9.300000000000000000e+01,9.893341100000000443e-01
9.400000000000000000e+01,9.888038000000000105e-01
9.500000000000000000e+01,9.882617599999999891e-01
9.600000000000000000e+01,9.877082700000000548e-01
9.700000000000000000e+01,9.871435200000000521e-01
9.800000000000000000e+01,9.865677999999999948e-01
9.900000000000000000e+01,9.859812900000000102e-01
1.000000000000000000e+02,9.853842900000000515e-01
1.010000000000000000e+02,9.847769699999999737e-01
1.020000000000000000e+02,9.841595300000000046e-01
1.030000000000000000e+02,9.835321900000000284e-01
1.040000000000000000e+02,9.828951400000000005e-01
1.050000000000000000e+02,9.822486000000000272e-01
1.060000000000000000e+02,9.815927700000000033e-01
1.070000000000000000e+02,9.809277699999999767e-01
1.080000000000000000e+02,9.802537599999999740e-01
1.090000000000000000e+02,9.795709299999999509e-01
1.100000000000000000e+02,9.788794499999999843e-01
1.110000000000000000e+02,9.781794499999999504e-01
1.120000000000000000e+02,9.774710500000000080e-01
1.130000000000000000e+02,9.767543699999999829e-01
1.140000000000000000e+02,9.760295700000000130e-01
1.150000000000000000e+02,9.752967999999999638e-01
1.160000000000000000e+02,9.745560899999999860e-01
1.170000000000000000e+02,9.738075099999999873e-01
1.180000000000000000e+02,9.730512500000000342e-01
1.190000000000000000e+02,9.722874200000000133e-01
1.200000000000000000e+02,9.715160099999999854e-01
1.210000000000000000e+02,9.707371599999999878e-01
1.220000000000000000e+02,9.699509099999999995e-01
1.230000000000000000e+02,9.691573399999999783e-01
1.240000000000000000e+02,9.683566099999999510e-01
1.250000000000000000e+02,9.675486699999999995e-01
1.260000000000000000e+02,9.667335700000000420e-01
1.270000000000000000e+02,9.659114500000000048e-01
1.280000000000000000e+02,9.650823499999999777e-01
1.290000000000000000e+02,9.642462699999999609e-01
1.300000000000000000e+02,9.634032799999999730e-01
1.310000000000000000e+02,9.625534399999999824e-01
1.320000000000000000e+02,9.616967400000000499e-01
1.330000000000000000e+02,9.608333100000000515e-01
1.340000000000000000e+02,9.599631400000000481e-01
1.350000000000000000e+02,9.590862399999999788e-01
1.360000000000000000e+02,9.582026599999999839e-01
1.370000000000000000e+02,9.573124600000000317e-01
1.380000000000000000e+02,9.564156499999999506e-01
1.390000000000000000e+02,9.555122900000000419e-01
1.400000000000000000e+02,9.546023599999999831e-01
1.410000000000000000e+02,9.536859399999999543e-01
1.420000000000000000e+02,9.527630200000000160e-01
1.430000000000000000e+02,9.518336099999999966e-01
1.440000000000000000e+02,9.508977499999999861e-01
1.450000000000000000e+02,9.499555200000000532e-01
1.460000000000000000e+02,9.490068600000000076e-01
1.470000000000000000e+02,9.480518100000000503e-01
1.480000000000000000e+02,9.470904500000000281e-01
1.490000000000000000e+02,9.461227700000000018e-01
1.500000000000000000e+02,9.451487699999999714e-01
1.510000000000000000e+02,9.441684500000000480e-01
1.520000000000000000e+02,9.431818699999999778e-01
1.530000000000000000e+02,9.421889799999999537e-01
1.540000000000000000e+02,9.411898899999999735e-01
1.550000000000000000e+02,9.401845300000000183e-01
1.560000000000000000e+02,9.391729800000000461e-01
1.570000000000000000e+02,9.381552300000000066e-01
1.580000000000000000e+02,9.371312899999999502e-01
1.590000000000000000e+02,9.361011999999999666e-01
1.600000000000000000e+02,9.350649100000000269e-01
1.610000000000000000e+02,9.340224299999999591e-01
1.620000000000000000e+02,9.329738600000000437e-01
1.630000000000000000e+02,9.319191599999999687e-01
1.640000000000000000e+02,9.308583099999999666e-01
1.650000000000000000e+02,9.297913300000000270e-01
1.660000000000000000e+02,9.287182699999999569e-01
1.670000000000000000e+02,9.274994699999999925e-01
1.680000000000000000e+02,9.263077400000000461e-01
1.690000000000000000e+02,9.251396699999999695e-01
1.700000000000000000e+02,9.239788700000000077e-01
1.710000000000000000e+02,9.228222400000000158e-01
1.720000000000000000e+02,9.216659699999999455e-01
1.730000000000000000e+02,9.205083299999999857e-01
1.740000000000000000e+02,9.193479399999999746e-01
1.750000000000000000e+02,9.181839800000000107e-01
1.760000000000000000e+02,9.170158499999999657e-01
1.770000000000000000e+02,9.158431299999999498e-01
1.780000000000000000e+02,9.146654600000000412e-01
1.790000000000000000e+02,9.134826700000000521e-01
1.800000000000000000e+02,9.122945099999999474e-01
1.810000000000000000e+02,9.111009199999999808e-01
1.820000000000000000e+02,9.099017999999999828e-01
1.830000000000000000e+02,9.086970100000000272e-01
1.840000000000000000e+02,9.074865600000000532e-01
1.850000000000000000e+02,9.062703300000000128e-01
1.860000000000000000e+02,9.050483099999999670e-01
1.870000000000000000e+02,9.038204600000000477e-01
1.880000000000000000e+02,9.025868200000000119e-01
1.890000000000000000e+02,9.013472200000000045e-01
1.900000000000000000e+02,9.001017799999999625e-01
1.910000000000000000e+02,8.988503799999999488e-01
1.920000000000000000e+02,8.975930199999999637e-01
1.930000000000000000e+02,8.963297000000000070e-01
1.940000000000000000e+02,8.950604199999999677e-01
1.950000000000000000e+02,8.937851199999999885e-01
1.960000000000000000e+02,8.925038600000000377e-01
1.970000000000000000e+02,8.912165199999999565e-01
1.980000000000000000e+02,8.899230999999999669e-01
1.990000000000000000e+02,8.886236499999999872e-01
2.000000000000000000e+02,8.873180699999999588e-01
2.010000000000000000e+02,8.860064100000000220e-01
2.020000000000000000e+02,8.846886200000000366e-01
2.030000000000000000e+02,8.833646200000000448e-01
2.040000000000000000e+02,8.820344799999999541e-01
2.050000000000000000e+02,8.806981400000000182e-01
2.060000000000000000e+02,8.793555499999999858e-01
2.070000000000000000e+02,8.780067000000000288e-01
2.080000000000000000e+02,8.766515900000000361e-01
2.090000000000000000e+02,8.752901600000000393e-01
2.100000000000000000e+02,8.739223499999999589e-01
2.110000000000000000e+02,8.725482199999999855e-01
2.120000000000000000e+02,8.711677199999999788e-01
2.130000000000000000e+02,8.697807800000000311e-01
2.140000000000000000e+02,8.683874000000000315e-01
2.150000000000000000e+02,8.669875299999999507e-01
2.160000000000000000e+02,8.655812099999999898e-01
2.170000000000000000e+02,8.641682899999999501e-01
2.180000000000000000e+02,8.627488599999999508e-01
2.190000000000000000e+02,8.613228800000000129e-01
2.200000000000000000e+02,8.598902200000000384e-01
2.210000000000000000e+02,8.584509500000000459e-01
2.220000000000000000e+02,8.570050599999999852e-01
2.230000000000000000e+02,8.555218599999999673e-01
2.240000000000000000e+02,8.540309099999999765e-01
2.250000000000000000e+02,8.525369799999999998e-01
2.260000000000000000e+02,8.510397699999999732e-01
2.270000000000000000e+02,8.495386799999999905e-01
2.280000000000000000e+02,8.480332499999999607e-01
2.290000000000000000e+02,8.465229300000000068e-01
2.300000000000000000e+02,8.450073000000000167e-01
2.310000000000000000e+02,8.434861900000000245e-01
2.320000000000000000e+02,8.419592399999999977e-01
2.330000000000000000e+02,8.404263899999999676e-01
2.340000000000000000e+02,8.388873900000000106e-01
2.350000000000000000e+02,8.373422000000000365e-01
2.360000000000000000e+02,8.357906899999999473e-01
2.370000000000000000e+02,8.342328100000000468e-01
2.380000000000000000e+02,8.326685999999999810e-01
2.390000000000000000e+02,8.310980199999999929e-01
2.400000000000000000e+02,8.295210600000000323e-01
2.410000000000000000e+02,8.279376600000000197e-01
2.420000000000000000e+02,8.263479500000000533e-01
2.430000000000000000e+02,8.247519100000000325e-01
2.440000000000000000e+02,8.231494999999999784e-01
2.450000000000000000e+02,8.215409500000000476e-01
2.460000000000000000e+02,8.199262000000000494e-01
2.470000000000000000e+02,8.183053099999999525e-01
2.480000000000000000e+02,8.166784000000000265e-01
2.490000000000000000e+02,8.150455399999999573e-01
2.500000000000000000e+02,8.134068300000000251e-01
2.510000000000000000e+02,8.117623299999999764e-01
2.520000000000000000e+02,8.101121199999999911e-01
2.530000000000000000e+02,8.084563599999999850e-01
2.540000000000000000e+02,8.067952400000000246e-01
2.550000000000000000e+02,8.051286899999999802e-01
2.560000000000000000e+02,8.034570199999999662e-01
2.570000000000000000e+02,8.017802200000000434e-01
2.580000000000000000e+02,8.000984799999999453e-01
2.590000000000000000e+02,7.984119699999999709e-01
2.600000000000000000e+02,7.967208000000000068e-01
2.610000000000000000e+02,7.950251099999999793e-01
2.620000000000000000e+02,7.933250099999999971e-01
2.630000000000000000e+02,7.916207899999999631e-01
2.640000000000000000e+02,7.899125200000000069e-01
2.650000000000000000e+02,7.882003800000000338e-01
2.660000000000000000e+02,7.864844800000000413e-01
2.670000000000000000e+02,7.847650099999999851e-01
2.680000000000000000e+02,7.830240099999999925e-01
2.690000000000000000e+02,7.812814700000000334e-01
2.700000000000000000e+02,7.795374999999999943e-01
2.710000000000000000e+02,7.777921599999999547e-01
2.720000000000000000e+02,7.760453200000000384e-01
2.730000000000000000e+02,7.742971199999999499e-01
2.740000000000000000e+02,7.725474199999999847e-01
2.750000000000000000e+02,7.707964200000000377e-01
2.760000000000000000e+02,7.690439799999999604e-01
2.770000000000000000e+02,7.672902900000000415e-01
2.780000000000000000e+02,7.655353499999999478e-01
2.790000000000000000e+02,7.637793400000000288e-01
2.800000000000000000e+02,7.620223200000000308e-01
2.810000000000000000e+02,7.602644600000000308e-01
2.820000000000000000e+02,7.585056999999999494e-01
2.830000000000000000e+02,7.567462900000000436e-01
2.840000000000000000e+02,7.549863500000000283e-01
2.850000000000000000e+02,7.532259799999999617e-01
2.860000000000000000e+02,7.514653199999999922e-01
2.870000000000000000e+02,7.497045399999999749e-01
2.880000000000000000e+02,7.479436999999999891e-01
2.890000000000000000e+02,7.461829800000000512e-01
2.900000000000000000e+02,7.444224400000000186e-01
2.910000000000000000e+02,7.426622499999999683e-01
2.920000000000000000e+02,7.409025399999999983e-01
2.930000000000000000e+02,7.391434300000000457e-01
2.940000000000000000e+02,7.373850299999999969e-01
2.950000000000000000e+02,7.356274099999999816e-01
2.960000000000000000e+02,7.338706900000000477e-01
2.970000000000000000e+02,7.321150300000000000e-01
2.980000000000000000e+02,7.303605100000000183e-01
2.990000000000000000e+02,7.286072999999999578e-01
3.000000000000000000e+02,7.268553399999999609e-01
3.010000000000000000e+02,7.251048700000000125e-01
3.020000000000000000e+02,7.233559499999999698e-01
3.030000000000000000e+02,7.216085199999999755e-01
3.040000000000000000e+02,7.198628200000000144e-01
3.050000000000000000e+02,7.181189100000000547e-01
3.060000000000000000e+02,7.163768400000000147e-01
3.070000000000000000e+02,7.146366800000000241e-01
3.080000000000000000e+02,7.128840100000000124e-01
3.090000000000000000e+02,7.111343100000000472e-01
3.100000000000000000e+02,7.093876599999999755e-01
3.110000000000000000e+02,7.076440999999999981e-01
3.120000000000000000e+02,7.059035900000000252e-01
3.130000000000000000e+02,7.041662300000000041e-01
3.140000000000000000e+02,7.024319199999999874e-01
3.150000000000000000e+02,7.007005800000000173e-01
3.160000000000000000e+02,6.989722800000000014e-01
3.170000000000000000e+02,6.972469100000000530e-01
3.180000000000000000e+02,6.955245700000000086e-01
3.190000000000000000e+02,6.938051600000000319e-01
3.200000000000000000e+02,6.920887199999999906e-01
3.210000000000000000e+02,6.903752100000000169e-01
3.220000000000000000e+02,6.886645599999999812e-01
3.230000000000000000e+02,6.869568799999999920e-01
3.240000000000000000e+02,6.852521299999999593e-01
3.250000000000000000e+02,6.835503000000000551e-01
3.260000000000000000e+02,6.818514500000000256e-01
3.270000000000000000e+02,6.801555799999999818e-01
3.280000000000000000e+02,6.784626799999999847e-01
3.290000000000000000e+02,6.767727100000000551e-01
3.300000000000000000e+02,6.750857799999999687e-01
3.310000000000000000e+02,6.734018299999999790e-01
3.320000000000000000e+02,6.717208599999999752e-01
3.330000000000000000e+02,6.700428699999999571e-01
3.340000000000000000e+02,6.683678600000000358e-01
3.350000000000000000e+02,6.666959500000000372e-01
3.360000000000000000e+02,6.650270200000000242e-01
3.370000000000000000e+02,6.633611900000000450e-01
3.380000000000000000e+02,6.616984000000000199e-01
3.390000000000000000e+02,6.600386499999999490e-01
3.400000000000000000e+02,6.583819400000000543e-01
3.410000000000000000e+02,6.567283299999999713e-01
3.420000000000000000e+02,6.550777599999999534e-01
3.430000000000000000e+02,6.534303399999999984e-01
3.440000000000000000e+02,6.517859700000000478e-01
3.450000000000000000e+02,6.501447599999999882e-01
3.460000000000000000e+02,6.485065800000000547e-01
3.470000000000000000e+02,6.468715699999999513e-01
3.480000000000000000e+02,6.452397100000000219e-01
3.490000000000000000e+02,6.436108900000000466e-01
3.500000000000000000e+02,6.419852400000000126e-01
3.510000000000000000e+02,6.403503400000000179e-01
3.520000000000000000e+02,6.387192000000000425e-01
3.530000000000000000e+02,6.370918800000000548e-01
3.540000000000000000e+02,6.354682999999999859e-01
3.550000000000000000e+02,6.338484899999999866e-01
3.560000000000000000e+02,6.322323699999999880e-01
3.570000000000000000e+02,6.306198800000000215e-01
3.580000000000000000e+02,6.290109799999999973e-01
3.590000000000000000e+02,6.274056999999999551e-01
3.600000000000000000e+02,6.258040099999999661e-01
3.610000000000000000e+02,6.242058299999999615e-01
3.620000000000000000e+02,6.226111699999999916e-01
3.630000000000000000e+02,6.210199600000000375e-01
3.640000000000000000e+02,6.194322700000000070e-01
3.650000000000000000e+02,6.178480400000000428e-01
3.660000000000000000e+02,6.162672599999999834e-01
3.670000000000000000e+02,6.146898899999999610e-01
3.680000000000000000e+02,6.131159099999999862e-01
3.690000000000000000e+02,6.115453800000000273e-01
3.700000000000000000e+02,6.099783199999999628e-01
3.710000000000000000e+02,6.084145899999999774e-01
3.720000000000000000e+02,6.068543199999999471e-01
3.730000000000000000e+02,6.052973900000000462e-01
3.740000000000000000e+02,6.037439100000000503e-01
3.750000000000000000e+02,6.021938300000000410e-01
3.760000000000000000e+02,6.006470900000000501e-01
3.770000000000000000e+02,5.991038100000000144e-01
3.780000000000000000e+02,5.975639200000000262e-01
3.790000000000000000e+02,5.960274300000000247e-01
3.800000000000000000e+02,5.944943400000000100e-01
3.810000000000000000e+02,5.929647099999999504e-01
3.820000000000000000e+02,5.914385300000000178e-01
3.830000000000000000e+02,5.899157499999999610e-01
3.840000000000000000e+02,5.883964299999999703e-01
3.850000000000000000e+02,5.868805099999999664e-01
3.860000000000000000e+02,5.853680999999999468e-01
3.870000000000000000e+02,5.838591499999999934e-01
3.880000000000000000e+02,5.823536499999999450e-01
3.890000000000000000e+02,5.808516700000000421e-01
3.900000000000000000e+02,5.793532099999999518e-01
3.910000000000000000e+02,5.778582700000000072e-01
3.920000000000000000e+02,5.763669000000000153e-01
3.930000000000000000e+02,5.748789899999999786e-01
3.940000000000000000e+02,5.733947200000000244e-01
3.950000000000000000e+02,5.719140200000000229e-01
3.960000000000000000e+02,5.704369500000000537e-01
3.970000000000000000e+02,5.689523199999999559e-01
3.980000000000000000e+02,5.674720399999999554e-01
3.990000000000000000e+02,5.659959300000000360e-01
