# Time [s], Temperature [C]
1.000000000000000000e+00,2.499997099999999861e+01
2.000000000000000000e+00,6.664508800000000122e+01
3.000000000000000000e+00,9.031210299999999336e+01
4.000000000000000000e+00,1.095527199999999937e+02
5.000000000000000000e+00,1.255645499999999970e+02
6.000000000000000000e+00,1.395895099999999900e+02
7.000000000000000000e+00,1.521055900000000065e+02
8.000000000000000000e+00,1.634698300000000017e+02
9.000000000000000000e+00,1.739041599999999903e+02
1.000000000000000000e+01,1.835702499999999873e+02
1.100000000000000000e+01,1.925864599999999882e+02
1.200000000000000000e+01,2.010423299999999927e+02
1.300000000000000000e+01,2.090108600000000081e+02
1.400000000000000000e+01,2.165490100000000098e+02
1.500000000000000000e+01,2.237048200000000122e+02
1.600000000000000000e+01,2.305176199999999938e+02
1.700000000000000000e+01,2.370249900000000025e+02
1.800000000000000000e+01,2.432567899999999952e+02
1.900000000000000000e+01,2.492425700000000006e+02
2.000000000000000000e+01,2.550124099999999885e+02
2.100000000000000000e+01,2.605902100000000132e+02
2.200000000000000000e+01,2.660029599999999732e+02
2.300000000000000000e+01,2.712734100000000126e+02
2.400000000000000000e+01,2.764142800000000193e+02
2.500000000000000000e+01,2.814341400000000135e+02
2.600000000000000000e+01,2.863304400000000101e+02
2.700000000000000000e+01,2.910876799999999776e+02
2.800000000000000000e+01,2.956938200000000165e+02
2.900000000000000000e+01,3.001384300000000280e+02
3.000000000000000000e+01,3.044132399999999734e+02
3.100000000000000000e+01,3.085214500000000157e+02
3.200000000000000000e+01,3.124728999999999814e+02
3.300000000000000000e+01,3.162755399999999781e+02
3.400000000000000000e+01,3.199418299999999817e+02
3.500000000000000000e+01,3.234832200000000171e+02
3.600000000000000000e+01,3.269069200000000137e+02
3.700000000000000000e+01,3.302217400000000112e+02
3.800000000000000000e+01,3.334385399999999890e+02
3.900000000000000000e+01,3.365585300000000188e+02
4.000000000000000000e+01,3.395892000000000053e+02
4.100000000000000000e+01,3.425369900000000030e+02
4.200000000000000000e+01,3.454033800000000269e+02
4.300000000000000000e+01,3.481918000000000006e+02
4.400000000000000000e+01,3.509094799999999736e+02
4.500000000000000000e+01,3.535544100000000185e+02
4.600000000000000000e+01,3.561303700000000276e+02
4.700000000000000000e+01,3.586414199999999823e+02
4.800000000000000000e+01,3.610871300000000019e+02
4.900000000000000000e+01,3.634703700000000026e+02
5.000000000000000000e+01,3.657939099999999826e+02
5.100000000000000000e+01,3.680569800000000100e+02
5.200000000000000000e+01,3.702615400000000250e+02
5.300000000000000000e+01,3.724116799999999898e+02
5.400000000000000000e+01,3.745040300000000002e+02
5.500000000000000000e+01,3.765424499999999739e+02
5.600000000000000000e+01,3.785300300000000107e+02
5.700000000000000000e+01,3.804638699999999858e+02
5.800000000000000000e+01,3.823475599999999872e+02
5.900000000000000000e+01,3.841835599999999999e+02
6.000000000000000000e+01,3.859701200000000085e+02
6.100000000000000000e+01,3.877102399999999989e+02
6.200000000000000000e+01,3.894068599999999947e+02
6.300000000000000000e+01,3.910574599999999919e+02
6.400000000000000000e+01,3.926666299999999978e+02
6.500000000000000000e+01,3.942370300000000043e+02
6.600000000000000000e+01,3.957672099999999773e+02
6.700000000000000000e+01,3.972590599999999768e+02
6.800000000000000000e+01,3.987176499999999919e+02
6.900000000000000000e+01,4.001422999999999774e+02
7.000000000000000000e+01,4.015335400000000163e+02
7.100000000000000000e+01,4.028978900000000181e+02
7.200000000000000000e+01,4.042321200000000090e+02
7.300000000000000000e+01,4.055411100000000033e+02
7.400000000000000000e+01,4.068253799999999956e+02
7.500000000000000000e+01,4.080891399999999862e+02
7.600000000000000000e+01,4.093310900000000174e+02
7.700000000000000000e+01,4.105568200000000161e+02
7.800000000000000000e+01,4.117652899999999931e+02
7.900000000000000000e+01,4.129584699999999771e+02
8.000000000000000000e+01,4.141394300000000044e+02
8.100000000000000000e+01,4.153106999999999971e+02
8.200000000000000000e+01,4.164718599999999924e+02
8.300000000000000000e+01,4.176289100000000190e+02
8.400000000000000000e+01,4.187761199999999917e+02
8.500000000000000000e+01,4.199192199999999957e+02
8.600000000000000000e+01,4.210596300000000269e+02
8.700000000000000000e+01,4.221970800000000281e+02
8.800000000000000000e+01,4.233331600000000208e+02
8.900000000000000000e+01,4.244700599999999895e+02
9.000000000000000000e+01,4.256063199999999824e+02
9.100000000000000000e+01,4.267436200000000213e+02
9.200000000000000000e+01,4.278836099999999760e+02
9.300000000000000000e+01,4.290246900000000210e+02
9.400000000000000000e+01,4.301706800000000044e+02
9.500000000000000000e+01,4.313159800000000246e+02
9.600000000000000000e+01,4.324653000000000134e+02
9.700000000000000000e+01,4.336139200000000073e+02
9.800000000000000000e+01,4.347647699999999986e+02
9.900000000000000000e+01,4.359146099999999819e+02
1.000000000000000000e+02,4.370635100000000079e+02
1.010000000000000000e+02,4.382115499999999884e+02
1.020000000000000000e+02,4.393556800000000067e+02
1.030000000000000000e+02,4.404955400000000054e+02
1.040000000000000000e+02,4.416312599999999975e+02
1.050000000000000000e+02,4.427651999999999930e+02
1.060000000000000000e+02,4.438840000000000146e+02
1.070000000000000000e+02,4.449961500000000001e+02
1.080000000000000000e+02,4.460965600000000109e+02
1.090000000000000000e+02,4.471859999999999786e+02
1.100000000000000000e+02,4.482681600000000230e+02
1.110000000000000000e+02,4.493329499999999825e+02
1.120000000000000000e+02,4.503902299999999741e+02
1.130000000000000000e+02,4.514328300000000240e+02
1.140000000000000000e+02,4.524658499999999890e+02
1.150000000000000000e+02,4.534822100000000091e+02
1.160000000000000000e+02,4.544941400000000158e+02
1.170000000000000000e+02,4.554933500000000208e+02
1.180000000000000000e+02,4.564846800000000258e+02
1.190000000000000000e+02,4.574635299999999916e+02
1.200000000000000000e+02,4.584386900000000082e+02
1.210000000000000000e+02,4.594046900000000164e+02
1.220000000000000000e+02,4.603671899999999937e+02
1.230000000000000000e+02,4.613180800000000090e+02
1.240000000000000000e+02,4.622723100000000045e+02
1.250000000000000000e+02,4.632166100000000029e+02
1.260000000000000000e+02,4.641529199999999946e+02
1.270000000000000000e+02,4.650917999999999779e+02
1.280000000000000000e+02,4.660180399999999850e+02
1.290000000000000000e+02,4.669434200000000033e+02
1.300000000000000000e+02,4.678649300000000153e+02
1.310000000000000000e+02,4.687749299999999835e+02
1.320000000000000000e+02,4.696823400000000106e+02
1.330000000000000000e+02,4.705852399999999989e+02
1.340000000000000000e+02,4.714782400000000280e+02
1.350000000000000000e+02,4.723644100000000208e+02
1.360000000000000000e+02,4.732433800000000019e+02
1.370000000000000000e+02,4.741175499999999943e+02
1.380000000000000000e+02,4.749798599999999738e+02
1.390000000000000000e+02,4.758364900000000262e+02
1.400000000000000000e+02,4.766808199999999829e+02
1.410000000000000000e+02,4.775243199999999888e+02
1.420000000000000000e+02,4.783536399999999844e+02
1.430000000000000000e+02,4.791819800000000100e+02
1.440000000000000000e+02,4.799983799999999974e+02
1.450000000000000000e+02,4.808119500000000244e+02
1.460000000000000000e+02,4.816205400000000054e+02
1.470000000000000000e+02,4.824184900000000198e+02
1.480000000000000000e+02,4.832145699999999806e+02
1.490000000000000000e+02,4.840053700000000276e+02
1.500000000000000000e+02,4.847879300000000171e+02
1.510000000000000000e+02,4.855693099999999731e+02
1.520000000000000000e+02,4.863470199999999863e+02
1.530000000000000000e+02,4.871202099999999859e+02
1.540000000000000000e+02,4.878851599999999848e+02
1.550000000000000000e+02,4.886506299999999783e+02
1.560000000000000000e+02,4.894106100000000197e+02
1.570000000000000000e+02,4.901665600000000040e+02
1.580000000000000000e+02,4.909151299999999765e+02
1.590000000000000000e+02,4.916642800000000193e+02
1.600000000000000000e+02,4.924042400000000157e+02
1.610000000000000000e+02,4.931423599999999965e+02
1.620000000000000000e+02,4.938734400000000164e+02
1.630000000000000000e+02,4.946007700000000114e+02
1.640000000000000000e+02,4.953226900000000228e+02
1.650000000000000000e+02,4.960349699999999871e+02
1.660000000000000000e+02,4.967475600000000213e+02
1.670000000000000000e+02,4.974514800000000037e+02
1.680000000000000000e+02,4.981527100000000132e+02
1.690000000000000000e+02,4.988470199999999863e+02
1.700000000000000000e+02,4.995400399999999763e+02
1.710000000000000000e+02,5.002245199999999841e+02
1.720000000000000000e+02,5.009062799999999811e+02
1.730000000000000000e+02,5.015831900000000019e+02
1.740000000000000000e+02,5.022569599999999923e+02
1.750000000000000000e+02,5.029238000000000284e+02
1.760000000000000000e+02,5.035892000000000053e+02
1.770000000000000000e+02,5.042507299999999759e+02
1.780000000000000000e+02,5.049045100000000161e+02
1.790000000000000000e+02,5.055613099999999918e+02
1.800000000000000000e+02,5.062122200000000021e+02
1.810000000000000000e+02,5.068563800000000015e+02
1.820000000000000000e+02,5.074991499999999860e+02
1.830000000000000000e+02,5.081379999999999768e+02
1.840000000000000000e+02,5.087692900000000122e+02
1.850000000000000000e+02,5.094023399999999810e+02
1.860000000000000000e+02,5.100266399999999862e+02
1.870000000000000000e+02,5.106523399999999810e+02
1.880000000000000000e+02,5.112730999999999995e+02
1.890000000000000000e+02,5.118862300000000118e+02
1.900000000000000000e+02,5.124987800000000107e+02
1.910000000000000000e+02,5.131037000000000035e+02
1.920000000000000000e+02,5.137114900000000262e+02
1.930000000000000000e+02,5.143082299999999805e+02
1.940000000000000000e+02,5.149058800000000247e+02
1.950000000000000000e+02,5.154940800000000536e+02
1.960000000000000000e+02,5.160858200000000124e+02
1.970000000000000000e+02,5.166677200000000312e+02
1.980000000000000000e+02,5.172496300000000247e+02
1.990000000000000000e+02,5.178262300000000096e+02
2.000000000000000000e+02,5.184013099999999667e+02
2.010000000000000000e+02,5.189680200000000241e+02
2.020000000000000000e+02,5.195384500000000116e+02
2.030000000000000000e+02,5.201013199999999870e+02
2.040000000000000000e+02,5.206598500000000058e+02
2.050000000000000000e+02,5.212210700000000543e+02
2.060000000000000000e+02,5.217723999999999478e+02
2.070000000000000000e+02,5.223236699999999928e+02
2.080000000000000000e+02,5.228721900000000460e+02
2.090000000000000000e+02,5.234141200000000254e+02
2.100000000000000000e+02,5.239582500000000209e+02
2.110000000000000000e+02,5.244923099999999749e+02
2.120000000000000000e+02,5.250295999999999594e+02
2.130000000000000000e+02,5.255585300000000188e+02
2.140000000000000000e+02,5.260824000000000069e+02
2.150000000000000000e+02,5.266104699999999639e+02
2.160000000000000000e+02,5.271309199999999464e+02
2.170000000000000000e+02,5.276502100000000155e+02
2.180000000000000000e+02,5.281628399999999601e+02
2.190000000000000000e+02,5.286776099999999587e+02
2.200000000000000000e+02,5.291834700000000566e+02
2.210000000000000000e+02,5.296882299999999759e+02
2.220000000000000000e+02,5.301900600000000168e+02
2.230000000000000000e+02,5.306900000000000546e+02
2.240000000000000000e+02,5.311844499999999698e+02
2.250000000000000000e+02,5.316768799999999828e+02
2.260000000000000000e+02,5.321698599999999715e+02
2.270000000000000000e+02,5.326558800000000247e+02
2.280000000000000000e+02,5.331414800000000014e+02
2.290000000000000000e+02,5.336180399999999509e+02
2.300000000000000000e+02,5.340991800000000467e+02
2.310000000000000000e+02,5.345749499999999443e+02
2.320000000000000000e+02,5.350461999999999989e+02
2.330000000000000000e+02,5.355173300000000154e+02
2.340000000000000000e+02,5.359791900000000169e+02
2.350000000000000000e+02,5.364447000000000116e+02
2.360000000000000000e+02,5.369063099999999622e+02
2.370000000000000000e+02,5.373623000000000047e+02
2.380000000000000000e+02,5.378173799999999574e+02
2.390000000000000000e+02,5.382702000000000453e+02
2.400000000000000000e+02,5.387178300000000490e+02
2.410000000000000000e+02,5.391627200000000357e+02
2.420000000000000000e+02,5.396083999999999605e+02
2.430000000000000000e+02,5.400466900000000123e+02
2.440000000000000000e+02,5.404848600000000260e+02
2.450000000000000000e+02,5.409203499999999849e+02
2.460000000000000000e+02,5.413533300000000281e+02
2.470000000000000000e+02,5.417806399999999485e+02
2.480000000000000000e+02,5.422091100000000097e+02
2.490000000000000000e+02,5.426328700000000254e+02
2.500000000000000000e+02,5.430539599999999609e+02
2.510000000000000000e+02,5.434694200000000137e+02
2.520000000000000000e+02,5.438866000000000440e+02
2.530000000000000000e+02,5.442999899999999798e+02
2.540000000000000000e+02,5.447111200000000508e+02
2.550000000000000000e+02,5.451188399999999774e+02
2.560000000000000000e+02,5.455225199999999859e+02
2.570000000000000000e+02,5.459252900000000182e+02
2.580000000000000000e+02,5.463249499999999443e+02
2.590000000000000000e+02,5.467226600000000190e+02
2.600000000000000000e+02,5.471174899999999752e+02
2.610000000000000000e+02,5.475091599999999517e+02
2.620000000000000000e+02,5.478967900000000100e+02
2.630000000000000000e+02,5.482838100000000168e+02
2.640000000000000000e+02,5.486674199999999928e+02
2.650000000000000000e+02,5.490490700000000288e+02
2.660000000000000000e+02,5.494288299999999481e+02
2.670000000000000000e+02,5.498052400000000262e+02
2.680000000000000000e+02,5.501805399999999509e+02
2.690000000000000000e+02,5.505514500000000453e+02
2.700000000000000000e+02,5.509210799999999608e+02
2.710000000000000000e+02,5.512869299999999839e+02
2.720000000000000000e+02,5.516488000000000511e+02
2.730000000000000000e+02,5.520105600000000550e+02
2.740000000000000000e+02,5.523694500000000289e+02
2.750000000000000000e+02,5.527271700000000010e+02
2.760000000000000000e+02,5.530813000000000557e+02
2.770000000000000000e+02,5.534326800000000048e+02
2.780000000000000000e+02,5.537833299999999781e+02
2.790000000000000000e+02,5.541324499999999489e+02
2.800000000000000000e+02,5.544761999999999489e+02
2.810000000000000000e+02,5.548200699999999870e+02
2.820000000000000000e+02,5.551599700000000439e+02
2.830000000000000000e+02,5.554973800000000210e+02
2.840000000000000000e+02,5.558339200000000346e+02
2.850000000000000000e+02,5.561679699999999684e+02
2.860000000000000000e+02,5.565010999999999513e+02
2.870000000000000000e+02,5.568293499999999767e+02
2.880000000000000000e+02,5.571569799999999759e+02
2.890000000000000000e+02,5.574820600000000468e+02
2.900000000000000000e+02,5.578061500000000024e+02
2.910000000000000000e+02,5.581265899999999647e+02
2.920000000000000000e+02,5.584479400000000169e+02
2.930000000000000000e+02,5.587639799999999468e+02
2.940000000000000000e+02,5.590793499999999767e+02
2.950000000000000000e+02,5.593921500000000151e+02
2.960000000000000000e+02,5.597038000000000011e+02
2.970000000000000000e+02,5.600139799999999468e+02
2.980000000000000000e+02,5.603195200000000114e+02
2.990000000000000000e+02,5.606254900000000134e+02
3.000000000000000000e+02,5.609287100000000237e+02
3.010000000000000000e+02,5.612316299999999956e+02
3.020000000000000000e+02,5.615302100000000110e+02
3.030000000000000000e+02,5.618303200000000288e+02
3.040000000000000000e+02,5.621258500000000140e+02
3.050000000000000000e+02,5.624220000000000255e+02
3.060000000000000000e+02,5.627130700000000161e+02
3.070000000000000000e+02,5.630043299999999817e+02
3.080000000000000000e+02,5.632938799999999446e+02
3.090000000000000000e+02,5.635829499999999825e+02
3.100000000000000000e+02,5.638691999999999780e+02
3.110000000000000000e+02,5.641543000000000347e+02
3.120000000000000000e+02,5.644370099999999866e+02
3.130000000000000000e+02,5.647197300000000268e+02
3.140000000000000000e+02,5.649985400000000482e+02
3.150000000000000000e+02,5.652775900000000320e+02
3.160000000000000000e+02,5.655575000000000045e+02
3.170000000000000000e+02,5.658315400000000182e+02
3.180000000000000000e+02,5.661057700000000068e+02
3.190000000000000000e+02,5.663792099999999436e+02
3.200000000000000000e+02,5.666495400000000018e+02
3.210000000000000000e+02,5.669213899999999740e+02
3.220000000000000000e+02,5.671907300000000305e+02
3.230000000000000000e+02,5.674570300000000316e+02
3.240000000000000000e+02,5.677232099999999946e+02
3.250000000000000000e+02,5.679906600000000481e+02
3.260000000000000000e+02,5.682538500000000568e+02
3.270000000000000000e+02,5.685172700000000532e+02
3.280000000000000000e+02,5.687795399999999972e+02
3.290000000000000000e+02,5.690390599999999495e+02
3.300000000000000000e+02,5.693001699999999801e+02
3.310000000000000000e+02,5.695592000000000326e+02
3.320000000000000000e+02,5.698151199999999790e+02
3.330000000000000000e+02,5.700717200000000275e+02
3.340000000000000000e+02,5.703300799999999526e+02
3.350000000000000000e+02,5.705837400000000343e+02
3.360000000000000000e+02,5.708377100000000155e+02
3.370000000000000000e+02,5.710910000000000082e+02
3.380000000000000000e+02,5.713433199999999488e+02
3.390000000000000000e+02,5.715943600000000515e+02
3.400000000000000000e+02,5.718458900000000540e+02
3.410000000000000000e+02,5.720947899999999890e+02
3.420000000000000000e+02,5.723463100000000168e+02
3.430000000000000000e+02,5.725925300000000107e+02
3.440000000000000000e+02,5.728403899999999567e+02
3.450000000000000000e+02,5.730892900000000054e+02
3.460000000000000000e+02,5.733343499999999722e+02
3.470000000000000000e+02,5.735809299999999666e+02
3.480000000000000000e+02,5.738265999999999849e+02
3.490000000000000000e+02,5.740712300000000141e+02
3.500000000000000000e+02,5.743166499999999814e+02
3.510000000000000000e+02,5.745584700000000566e+02
3.520000000000000000e+02,5.748040200000000368e+02
3.530000000000000000e+02,5.750485200000000532e+02
3.540000000000000000e+02,5.752897900000000391e+02
3.550000000000000000e+02,5.755333299999999781e+02
3.560000000000000000e+02,5.757754499999999780e+02
3.570000000000000000e+02,5.760178200000000288e+02
3.580000000000000000e+02,5.762606200000000172e+02
3.590000000000000000e+02,5.765025600000000168e+02
3.600000000000000000e+02,5.767441400000000158e+02
3.610000000000000000e+02,5.769862699999999904e+02
3.620000000000000000e+02,5.772269900000000007e+02
3.630000000000000000e+02,5.774717399999999543e+02
3.640000000000000000e+02,5.777117899999999509e+02
3.650000000000000000e+02,5.779544100000000526e+02
3.660000000000000000e+02,5.781983000000000175e+02
3.670000000000000000e+02,5.784389599999999518e+02
3.680000000000000000e+02,5.786833500000000186e+02
3.690000000000000000e+02,5.789248000000000047e+02
3.700000000000000000e+02,5.791694300000000339e+02
3.710000000000000000e+02,5.794138199999999870e+02
3.720000000000000000e+02,5.796563099999999622e+02
3.730000000000000000e+02,5.799035599999999704e+02
3.740000000000000000e+02,5.801475799999999481e+02
3.750000000000000000e+02,5.803934900000000425e+02
3.760000000000000000e+02,5.806402600000000120e+02
3.770000000000000000e+02,5.808875699999999824e+02
3.780000000000000000e+02,5.811354999999999791e+02
3.790000000000000000e+02,5.813850700000000415e+02
3.800000000000000000e+02,5.816350700000000415e+02
3.810000000000000000e+02,5.818862900000000309e+02
3.820000000000000000e+02,5.821358000000000175e+02
3.830000000000000000e+02,5.823883700000000090e+02
3.840000000000000000e+02,5.826433700000000044e+02
3.850000000000000000e+02,5.828964799999999968e+02
3.860000000000000000e+02,5.831528299999999945e+02
3.870000000000000000e+02,5.834098500000000058e+02
3.880000000000000000e+02,5.836673600000000306e+02
3.890000000000000000e+02,5.839265699999999697e+02
3.900000000000000000e+02,5.841871300000000247e+02
3.910000000000000000e+02,5.844466599999999517e+02
3.920000000000000000e+02,5.847114299999999503e+02
3.930000000000000000e+02,5.849734499999999571e+02
3.940000000000000000e+02,5.852388899999999694e+02
3.950000000000000000e+02,5.855056799999999839e+02
3.960000000000000000e+02,5.857714799999999968e+02
3.970000000000000000e+02,5.860410200000000032e+02
3.980000000000000000e+02,5.863112200000000485e+02
3.990000000000000000e+02,5.865800799999999526e+02
