# Time [s], Convective Heat Transfer Coefficient [W/m2K]
1.000000000000000000e+00,0.000000000000000000e+00
2.000000000000000000e+00,0.000000000000000000e+00
3.000000000000000000e+00,0.000000000000000000e+00
4.000000000000000000e+00,0.000000000000000000e+00
5.000000000000000000e+00,3.040000000141642594e-02
6.000000000000000000e+00,5.366129469656785722e-02
7.000000000000000000e+00,8.889013924160209246e-02
8.000000000000000000e+00,1.364236569706769597e-01
9.000000000000000000e+00,1.974499847586386747e-01
1.000000000000000000e+01,2.719955477933269083e-01
1.100000000000000000e+01,3.597155758388295710e-01
1.200000000000000000e+01,4.596690654660826603e-01
1.300000000000000000e+01,5.705781393327765683e-01
1.400000000000000000e+01,6.910063093257315936e-01
1.500000000000000000e+01,8.194877981516823784e-01
1.600000000000000000e+01,9.546137592615158152e-01
1.700000000000000000e+01,1.095094466630803565e+00
1.800000000000000000e+01,1.239766944254449665e+00
1.900000000000000000e+01,1.387602860465398047e+00
2.000000000000000000e+01,1.537720005879592566e+00
2.100000000000000000e+01,1.689359850581860556e+00
2.200000000000000000e+01,1.841872543847779431e+00
2.300000000000000000e+01,1.994701033355410713e+00
2.400000000000000000e+01,2.147378010973215900e+00
2.500000000000000000e+01,2.299514583535304357e+00
2.600000000000000000e+01,2.450766739414281581e+00
2.700000000000000000e+01,2.600850240750520292e+00
2.800000000000000000e+01,2.749522047959378934e+00
2.900000000000000000e+01,2.896576888788774617e+00
3.000000000000000000e+01,3.041845173151492165e+00
3.100000000000000000e+01,3.185178867094167643e+00
3.200000000000000000e+01,3.326465167000603795e+00
3.300000000000000000e+01,3.465617836165513665e+00
3.400000000000000000e+01,3.602559744143182918e+00
3.500000000000000000e+01,3.737252644540284496e+00
3.600000000000000000e+01,3.869664204952823816e+00
3.700000000000000000e+01,3.999780943555787172e+00
3.800000000000000000e+01,4.127606327570350508e+00
3.900000000000000000e+01,4.253143041800266033e+00
4.000000000000000000e+01,4.376403009921927989e+00
4.100000000000000000e+01,4.497411417755785124e+00
4.200000000000000000e+01,4.616189480214936580e+00
4.300000000000000000e+01,4.732766874592813089e+00
4.400000000000000000e+01,4.847179644829054723e+00
4.500000000000000000e+01,4.959462351864980079e+00
4.600000000000000000e+01,5.069652480276300999e+00
4.700000000000000000e+01,5.177795153160730912e+00
4.800000000000000000e+01,5.283933174620671913e+00
4.900000000000000000e+01,5.388109877267134529e+00
5.000000000000000000e+01,5.490373243533633207e+00
5.100000000000000000e+01,5.590765175090493422e+00
5.200000000000000000e+01,5.689332680938909981e+00
5.300000000000000000e+01,5.786114698261836331e+00
5.400000000000000000e+01,5.881148434284579452e+00
5.500000000000000000e+01,5.974480317961884168e+00
5.600000000000000000e+01,6.066151268307872435e+00
5.700000000000000000e+01,6.156196235374352455e+00
5.800000000000000000e+01,6.244657878836937570e+00
5.900000000000000000e+01,6.331574422417821424e+00
6.000000000000000000e+01,6.416987484362659089e+00
6.100000000000000000e+01,6.500928599765187776e+00
6.200000000000000000e+01,6.583437187109582922e+00
6.300000000000000000e+01,6.664548649504198785e+00
6.400000000000000000e+01,6.744295294861361256e+00
6.500000000000000000e+01,6.822708389258306028e+00
6.600000000000000000e+01,6.899816742310369122e+00
6.700000000000000000e+01,6.975654863371064884e+00
6.800000000000000000e+01,7.050250542560001499e+00
6.900000000000000000e+01,7.123629891833690664e+00
7.000000000000000000e+01,7.195822001419827529e+00
7.100000000000000000e+01,7.266856625722907026e+00
7.200000000000000000e+01,7.336760402368033063e+00
7.300000000000000000e+01,7.405560112823579288e+00
7.400000000000000000e+01,7.473280348132112394e+00
7.500000000000000000e+01,7.539945748724895758e+00
7.600000000000000000e+01,7.605579976803342745e+00
7.700000000000000000e+01,7.670206187704334155e+00
7.800000000000000000e+01,7.733845498491126236e+00
7.900000000000000000e+01,7.796516953035484754e+00
8.000000000000000000e+01,7.858241280199136369e+00
8.100000000000000000e+01,7.919038518767897550e+00
8.200000000000000000e+01,7.978928985817193897e+00
8.300000000000000000e+01,8.037930717961360827e+00
8.400000000000000000e+01,8.096063027651201338e+00
8.500000000000000000e+01,8.153344123385851461e+00
8.600000000000000000e+01,8.209792228663232549e+00
8.700000000000000000e+01,8.265424896709792080e+00
8.800000000000000000e+01,8.320259056603395820e+00
8.900000000000000000e+01,8.374310721859552942e+00
9.000000000000000000e+01,8.427593402397063116e+00
9.100000000000000000e+01,8.480122493709385978e+00
9.200000000000000000e+01,8.531912268617855233e+00
9.300000000000000000e+01,8.582976582394714171e+00
9.400000000000000000e+01,8.633328428275834909e+00
9.500000000000000000e+01,8.682980610190250914e+00
9.600000000000000000e+01,8.731945448480924910e+00
9.700000000000000000e+01,8.780234049665500251e+00
9.800000000000000000e+01,8.827860129414618839e+00
9.900000000000000000e+01,8.874837052668857140e+00
1.000000000000000000e+02,8.921176385325454206e+00
1.010000000000000000e+02,8.966889737109212888e+00
1.020000000000000000e+02,9.011985014942549554e+00
1.030000000000000000e+02,9.056475456522408152e+00
1.040000000000000000e+02,9.100371034762810396e+00
1.050000000000000000e+02,9.143679037249013319e+00
1.060000000000000000e+02,9.186409880770693093e+00
1.070000000000000000e+02,9.228571196551650146e+00
1.080000000000000000e+02,9.270170001645897884e+00
1.090000000000000000e+02,9.311216507869154668e+00
1.100000000000000000e+02,9.351716622909066245e+00
1.110000000000000000e+02,9.391680099734983855e+00
1.120000000000000000e+02,9.431112743398546883e+00
1.130000000000000000e+02,9.470024799839604768e+00
1.140000000000000000e+02,9.508421066884109152e+00
1.150000000000000000e+02,9.546310876508014687e+00
1.160000000000000000e+02,9.583698359723213045e+00
1.170000000000000000e+02,9.620588846601593858e+00
1.180000000000000000e+02,9.656988695633597075e+00
1.190000000000000000e+02,9.692903636916790688e+00
1.200000000000000000e+02,9.728336075628959634e+00
1.210000000000000000e+02,9.763291720969917264e+00
1.220000000000000000e+02,9.797774713485619458e+00
1.230000000000000000e+02,9.831788649622488663e+00
1.240000000000000000e+02,9.865336841304875648e+00
1.250000000000000000e+02,9.898423639898974002e+00
1.260000000000000000e+02,9.931052028407318488e+00
1.270000000000000000e+02,9.963223430643504130e+00
1.280000000000000000e+02,9.994940221411587444e+00
1.290000000000000000e+02,1.002620371625642726e+01
1.300000000000000000e+02,1.005701374063836617e+01
1.310000000000000000e+02,1.008737108960648143e+01
1.320000000000000000e+02,1.011727486687208888e+01
1.330000000000000000e+02,1.014672230518186424e+01
1.340000000000000000e+02,1.017571209564131429e+01
1.350000000000000000e+02,1.020424254447923040e+01
1.360000000000000000e+02,1.023230934478803356e+01
1.370000000000000000e+02,1.025990975832836760e+01
1.380000000000000000e+02,1.028704002502432502e+01
1.390000000000000000e+02,1.031369659608647460e+01
1.400000000000000000e+02,1.033987491967761230e+01
1.410000000000000000e+02,1.036556924340160180e+01
1.420000000000000000e+02,1.039077480652709085e+01
1.430000000000000000e+02,1.041548457294248387e+01
1.440000000000000000e+02,1.043969260791815756e+01
1.450000000000000000e+02,1.046339212102490990e+01
1.460000000000000000e+02,1.048657771373356695e+01
1.470000000000000000e+02,1.050924195016049545e+01
1.480000000000000000e+02,1.053138088178861054e+01
1.490000000000000000e+02,1.055298934279025147e+01
1.500000000000000000e+02,1.057406390049989930e+01
1.510000000000000000e+02,1.059460031252345580e+01
1.520000000000000000e+02,1.061459551123182266e+01
1.530000000000000000e+02,1.063405006114105156e+01
1.540000000000000000e+02,1.065296365459874117e+01
1.550000000000000000e+02,1.067133635936248659e+01
1.560000000000000000e+02,1.068917332340075887e+01
1.570000000000000000e+02,1.070647754303710109e+01
1.580000000000000000e+02,1.072325784063323617e+01
1.590000000000000000e+02,1.073952370329082129e+01
1.600000000000000000e+02,1.075528710154083889e+01
1.610000000000000000e+02,1.077056225975907999e+01
1.620000000000000000e+02,1.078536543346293541e+01
1.630000000000000000e+02,1.079971589715567859e+01
1.640000000000000000e+02,1.081363181357370529e+01
1.650000000000000000e+02,1.082713735177700443e+01
1.660000000000000000e+02,1.084025495705306064e+01
1.670000000000000000e+02,1.085301055543290616e+01
1.680000000000000000e+02,1.086543313170674097e+01
1.690000000000000000e+02,1.087754768651443449e+01
1.700000000000000000e+02,1.088938625332787069e+01
1.710000000000000000e+02,1.090098025113295854e+01
1.720000000000000000e+02,1.091235971866506560e+01
1.730000000000000000e+02,1.092355441994752319e+01
1.740000000000000000e+02,1.093459659856544874e+01
1.750000000000000000e+02,1.094551842100477046e+01
1.760000000000000000e+02,1.095634915673771026e+01
1.770000000000000000e+02,1.096711871579544884e+01
1.780000000000000000e+02,1.097786123996680807e+01
1.790000000000000000e+02,1.098860401167049616e+01
1.800000000000000000e+02,1.099937845441376183e+01
1.810000000000000000e+02,1.101021284851577953e+01
1.820000000000000000e+02,1.102113621388145503e+01
1.830000000000000000e+02,1.103217598992015880e+01
1.840000000000000000e+02,1.104336303678362086e+01
1.850000000000000000e+02,1.105472297222131317e+01
1.860000000000000000e+02,1.106628338572220116e+01
1.870000000000000000e+02,1.107807533450824522e+01
1.880000000000000000e+02,1.109012568027400114e+01
1.890000000000000000e+02,1.110246604798978964e+01
1.900000000000000000e+02,1.111512603047005321e+01
1.910000000000000000e+02,1.112813319372544285e+01
1.920000000000000000e+02,1.114152590753815275e+01
1.930000000000000000e+02,1.115533315632702482e+01
1.940000000000000000e+02,1.116959208166888828e+01
1.950000000000000000e+02,1.118433924173748117e+01
1.960000000000000000e+02,1.119961926553359177e+01
1.970000000000000000e+02,1.121547800334580458e+01
1.980000000000000000e+02,1.123195745146935209e+01
1.990000000000000000e+02,1.124912203075266781e+01
2.000000000000000000e+02,1.126702138692955302e+01
2.010000000000000000e+02,1.128571242262090202e+01
2.020000000000000000e+02,1.130525662776431339e+01
2.030000000000000000e+02,1.132573195496173390e+01
2.040000000000000000e+02,1.134721067728925448e+01
2.050000000000000000e+02,1.136976587878893952e+01
2.060000000000000000e+02,1.139347571452996810e+01
2.070000000000000000e+02,1.141841802839283027e+01
2.080000000000000000e+02,1.144466339125136223e+01
2.090000000000000000e+02,1.147225836648634179e+01
2.100000000000000000e+02,1.150124434059927125e+01
2.110000000000000000e+02,1.153160841191730768e+01
2.120000000000000000e+02,1.156328301121398283e+01
2.130000000000000000e+02,1.159613929030871837e+01
2.140000000000000000e+02,1.162992829911511627e+01
2.150000000000000000e+02,1.166432093480503696e+01
2.160000000000000000e+02,1.169887049748894725e+01
2.170000000000000000e+02,1.173309814635519110e+01
2.180000000000000000e+02,1.176653974854895246e+01
2.190000000000000000e+02,1.179887989567636630e+01
2.200000000000000000e+02,1.182997784264517449e+01
2.210000000000000000e+02,1.185988009316819891e+01
2.220000000000000000e+02,1.188872268109054886e+01
2.230000000000000000e+02,1.191664540702547903e+01
2.240000000000000000e+02,1.194376536836082003e+01
2.250000000000000000e+02,1.197016856992807554e+01
2.260000000000000000e+02,1.199591088409771622e+01
2.270000000000000000e+02,1.202104193423449452e+01
2.280000000000000000e+02,1.204561083995898940e+01
2.290000000000000000e+02,1.206964834961478950e+01
2.300000000000000000e+02,1.209319381027470186e+01
2.310000000000000000e+02,1.211626743670572459e+01
2.320000000000000000e+02,1.213889754583556702e+01
2.330000000000000000e+02,1.216110688674050522e+01
2.340000000000000000e+02,1.218291433471372542e+01
2.350000000000000000e+02,1.220433748711653799e+01
2.360000000000000000e+02,1.222539026757627667e+01
2.370000000000000000e+02,1.224609064673309966e+01
2.380000000000000000e+02,1.226645109053743887e+01
2.390000000000000000e+02,1.228648106235135629e+01
2.400000000000000000e+02,1.230619867114097055e+01
2.410000000000000000e+02,1.232561065968232938e+01
2.420000000000000000e+02,1.234472541622826469e+01
2.430000000000000000e+02,1.236355724063050054e+01
2.440000000000000000e+02,1.238211152313479779e+01
2.450000000000000000e+02,1.240039843170680989e+01
2.460000000000000000e+02,1.241842586124622905e+01
2.470000000000000000e+02,1.243619878844415183e+01
2.480000000000000000e+02,1.245372663670165636e+01
2.490000000000000000e+02,1.247101553886350800e+01
2.500000000000000000e+02,1.248807386469579050e+01
2.510000000000000000e+02,1.250490156259006724e+01
2.520000000000000000e+02,1.252150916307206252e+01
2.530000000000000000e+02,1.253790095996117238e+01
2.540000000000000000e+02,1.255408185278971978e+01
2.550000000000000000e+02,1.257005704393389323e+01
2.560000000000000000e+02,1.258583292294542311e+01
2.570000000000000000e+02,1.260140916548104251e+01
2.580000000000000000e+02,1.261679484806779783e+01
2.590000000000000000e+02,1.263199307579326103e+01
2.600000000000000000e+02,1.264700705681229387e+01
2.610000000000000000e+02,1.266183783837657906e+01
2.620000000000000000e+02,1.267649220000751598e+01
2.630000000000000000e+02,1.269097350322247308e+01
2.640000000000000000e+02,1.270528368956655463e+01
2.650000000000000000e+02,1.271942698728532406e+01
2.660000000000000000e+02,1.273341161935903010e+01
2.670000000000000000e+02,1.274723405625899275e+01
2.680000000000000000e+02,1.276089761833684832e+01
2.690000000000000000e+02,1.277440594647602801e+01
2.700000000000000000e+02,1.278776206882061750e+01
2.710000000000000000e+02,1.280096912219623206e+01
2.720000000000000000e+02,1.281402757122116576e+01
2.730000000000000000e+02,1.282694227945935594e+01
2.740000000000000000e+02,1.283971529406920631e+01
2.750000000000000000e+02,1.285234828388325035e+01
2.760000000000000000e+02,1.286484339219512485e+01
2.770000000000000000e+02,1.287720485614824639e+01
2.780000000000000000e+02,1.288943039114662348e+01
2.790000000000000000e+02,1.290152637321113716e+01
2.800000000000000000e+02,1.291349378899490219e+01
2.810000000000000000e+02,1.292533221011475675e+01
2.820000000000000000e+02,1.293704526159120327e+01
2.830000000000000000e+02,1.294863486048260803e+01
2.840000000000000000e+02,1.296010332239935536e+01
2.850000000000000000e+02,1.297145301045971344e+01
2.860000000000000000e+02,1.298268286267455274e+01
2.870000000000000000e+02,1.299379688016970036e+01
2.880000000000000000e+02,1.300479550148176422e+01
2.890000000000000000e+02,1.301568116093274519e+01
2.900000000000000000e+02,1.302645385711346293e+01
2.910000000000000000e+02,1.303711757830708784e+01
2.920000000000000000e+02,1.304767153753648756e+01
2.930000000000000000e+02,1.305811714511370880e+01
2.940000000000000000e+02,1.306845730569639485e+01
2.950000000000000000e+02,1.307869469590486489e+01
2.960000000000000000e+02,1.308882684677232078e+01
2.970000000000000000e+02,1.309885798640246968e+01
2.980000000000000000e+02,1.310878897502256279e+01
2.990000000000000000e+02,1.311861977949394742e+01
3.000000000000000000e+02,1.312835301180568592e+01
3.010000000000000000e+02,1.313798943360434102e+01
3.020000000000000000e+02,1.314753027245872730e+01
3.030000000000000000e+02,1.315697688048655323e+01
3.040000000000000000e+02,1.316632992329012097e+01
3.050000000000000000e+02,1.317559154278386124e+01
3.060000000000000000e+02,1.318476204740550806e+01
3.070000000000000000e+02,1.319384227860358472e+01
3.080000000000000000e+02,1.320283333861751629e+01
3.090000000000000000e+02,1.321173806422324759e+01
3.100000000000000000e+02,1.322055525547819776e+01
3.110000000000000000e+02,1.322928712705932597e+01
3.120000000000000000e+02,1.323793454309249640e+01
3.130000000000000000e+02,1.324649702613358748e+01
3.140000000000000000e+02,1.325497802938852843e+01
3.150000000000000000e+02,1.326337799131259487e+01
3.160000000000000000e+02,1.327169548469688110e+01
3.170000000000000000e+02,1.327993373322523851e+01
3.180000000000000000e+02,1.328809335654667656e+01
3.190000000000000000e+02,1.329617589583890869e+01
3.200000000000000000e+02,1.330418036929006220e+01
3.210000000000000000e+02,1.331210876997155701e+01
3.220000000000000000e+02,1.331996162762169078e+01
3.230000000000000000e+02,1.332774052165121326e+01
3.240000000000000000e+02,1.333544484967723953e+01
3.250000000000000000e+02,1.334307723167726500e+01
3.260000000000000000e+02,1.335063718680091682e+01
3.270000000000000000e+02,1.335812534954803787e+01
3.280000000000000000e+02,1.336554392223190568e+01
3.290000000000000000e+02,1.337289352446800983e+01
3.300000000000000000e+02,1.338017326737831425e+01
3.310000000000000000e+02,1.338738363566259260e+01
3.320000000000000000e+02,1.339452771986081459e+01
3.330000000000000000e+02,1.340160572775072900e+01
3.340000000000000000e+02,1.340861701808289652e+01
3.350000000000000000e+02,1.341556264161466672e+01
3.360000000000000000e+02,1.342244520242477535e+01
3.370000000000000000e+02,1.342926242412559112e+01
3.380000000000000000e+02,1.343601696603301932e+01
3.390000000000000000e+02,1.344270972613392701e+01
3.400000000000000000e+02,1.344933939698834990e+01
3.410000000000000000e+02,1.345590965296342034e+01
3.420000000000000000e+02,1.346241788742755752e+01
3.430000000000000000e+02,1.346886705172589416e+01
3.440000000000000000e+02,1.347525615200553872e+01
3.450000000000000000e+02,1.348158735265777786e+01
3.460000000000000000e+02,1.348785991299883591e+01
3.470000000000000000e+02,1.349407489377217573e+01
3.480000000000000000e+02,1.350023277242025621e+01
3.490000000000000000e+02,1.350633492171930072e+01
3.500000000000000000e+02,1.351238149008158551e+01
3.510000000000000000e+02,1.351837262415113372e+01
3.520000000000000000e+02,1.352430994081777982e+01
3.530000000000000000e+02,1.353019255629071793e+01
3.540000000000000000e+02,1.353602169700706348e+01
3.550000000000000000e+02,1.354179826484518934e+01
3.560000000000000000e+02,1.354752277480367617e+01
3.570000000000000000e+02,1.355319465568259574e+01
3.580000000000000000e+02,1.355881518365046112e+01
3.590000000000000000e+02,1.356438556594837586e+01
3.600000000000000000e+02,1.356990598770111944e+01
3.610000000000000000e+02,1.357537656890743349e+01
3.620000000000000000e+02,1.358079704736759297e+01
3.630000000000000000e+02,1.358616906326394336e+01
3.640000000000000000e+02,1.359149310999115379e+01
3.650000000000000000e+02,1.359676936186907170e+01
3.660000000000000000e+02,1.360199862446386021e+01
3.670000000000000000e+02,1.360718068840340322e+01
3.680000000000000000e+02,1.361231673390796892e+01
3.690000000000000000e+02,1.361740692672534969e+01
3.700000000000000000e+02,1.362245174666347580e+01
3.710000000000000000e+02,1.362745167127347301e+01
3.720000000000000000e+02,1.363240679795288379e+01
3.730000000000000000e+02,1.363731753772239585e+01
3.740000000000000000e+02,1.364218486570659294e+01
3.750000000000000000e+02,1.364700843353715598e+01
3.760000000000000000e+02,1.365178952612535390e+01
3.770000000000000000e+02,1.365652816870824182e+01
3.780000000000000000e+02,1.366122444844700823e+01
3.790000000000000000e+02,1.366587964247024622e+01
3.800000000000000000e+02,1.367049308193913149e+01
3.810000000000000000e+02,1.367506635259728931e+01
3.820000000000000000e+02,1.367959909607021629e+01
3.830000000000000000e+02,1.368409189198144205e+01
3.840000000000000000e+02,1.368854506788636805e+01
3.850000000000000000e+02,1.369295882498208528e+01
3.860000000000000000e+02,1.369733355049405787e+01
3.870000000000000000e+02,1.370167006651254837e+01
3.880000000000000000e+02,1.370596844467102393e+01
3.890000000000000000e+02,1.371022881810777427e+01
3.900000000000000000e+02,1.371445237708046783e+01
3.910000000000000000e+02,1.371863875336451599e+01
3.920000000000000000e+02,1.372278807637099796e+01
3.930000000000000000e+02,1.372690184138207847e+01
3.940000000000000000e+02,1.373097911814386229e+01
3.950000000000000000e+02,1.373502021910392479e+01
3.960000000000000000e+02,1.373902675775604898e+01
3.970000000000000000e+02,1.374299774020141029e+01
3.980000000000000000e+02,1.374693421847672958e+01
