# Time [s], Convective Heat Transfer Coefficient [W/m2K]
1.000000000000000000e+00,0.000000000000000000e+00
2.000000000000000000e+00,0.000000000000000000e+00
3.000000000000000000e+00,0.000000000000000000e+00
4.000000000000000000e+00,0.000000000000000000e+00
5.000000000000000000e+00,3.040000000141642594e-02
6.000000000000000000e+00,5.283560500250115977e-02
7.000000000000000000e+00,8.692088178610310467e-02
8.000000000000000000e+00,1.330713086994168848e-01
9.000000000000000000e+00,1.920808085772565676e-01
1.000000000000000000e+01,2.642953853222420602e-01
1.100000000000000000e+01,3.492356632854295984e-01
1.200000000000000000e+01,4.460920577599988834e-01
1.300000000000000000e+01,5.536829717375065796e-01
1.400000000000000000e+01,6.706660009997462701e-01
1.500000000000000000e+01,7.956472379141171780e-01
1.600000000000000000e+01,9.272762456335963410e-01
1.700000000000000000e+01,1.064294612294455877e+00
1.800000000000000000e+01,1.205574072392835427e+00
1.900000000000000000e+01,1.350104906582352049e+00
2.000000000000000000e+01,1.497029411881731331e+00
2.100000000000000000e+01,1.645595298143996965e+00
2.200000000000000000e+01,1.795162958226884875e+00
2.300000000000000000e+01,1.945209036025257632e+00
2.400000000000000000e+01,2.095256670393480292e+00
2.500000000000000000e+01,2.244914266742267461e+00
2.600000000000000000e+01,2.393852037550511458e+00
2.700000000000000000e+01,2.541774984117373126e+00
2.800000000000000000e+01,2.688439765043686869e+00
2.900000000000000000e+01,2.833637437267905401e+00
3.000000000000000000e+01,2.977192344433897020e+00
3.100000000000000000e+01,3.118952445740982071e+00
3.200000000000000000e+01,3.258801961913129208e+00
3.300000000000000000e+01,3.396652607127029988e+00
3.400000000000000000e+01,3.532438139138948774e+00
3.500000000000000000e+01,3.666115411244532662e+00
3.600000000000000000e+01,3.797647691888152988e+00
3.700000000000000000e+01,3.927023156109457958e+00
3.800000000000000000e+01,4.054237154421248768e+00
3.900000000000000000e+01,4.179296276462462600e+00
4.000000000000000000e+01,4.302208630017984703e+00
4.100000000000000000e+01,4.422985849506125611e+00
4.200000000000000000e+01,4.541643191329031382e+00
4.300000000000000000e+01,4.658205161846335152e+00
4.400000000000000000e+01,4.772699277087896874e+00
4.500000000000000000e+01,4.885160349566983307e+00
4.600000000000000000e+01,4.995621528775703091e+00
4.700000000000000000e+01,5.104115484407240722e+00
4.800000000000000000e+01,5.210678405149767656e+00
4.900000000000000000e+01,5.315343691760650024e+00
5.000000000000000000e+01,5.418147827461986310e+00
5.100000000000000000e+01,5.519130583934192202e+00
5.200000000000000000e+01,5.618319301216227579e+00
5.300000000000000000e+01,5.715755940336488372e+00
5.400000000000000000e+01,5.811471298366702953e+00
5.500000000000000000e+01,5.905498276164697913e+00
5.600000000000000000e+01,5.997878722445749489e+00
5.700000000000000000e+01,6.088645841336973952e+00
5.800000000000000000e+01,6.177839557367893697e+00
5.900000000000000000e+01,6.265487984403634414e+00
6.000000000000000000e+01,6.351625223599565828e+00
6.100000000000000000e+01,6.436290570228512031e+00
6.200000000000000000e+01,6.519511639736313313e+00
6.300000000000000000e+01,6.601321812191143223e+00
6.400000000000000000e+01,6.681745875189379014e+00
6.500000000000000000e+01,6.760817011838880397e+00
6.600000000000000000e+01,6.838561264473688617e+00
6.700000000000000000e+01,6.915013447007912539e+00
6.800000000000000000e+01,6.990196989418188345e+00
6.900000000000000000e+01,7.064138929448700921e+00
7.000000000000000000e+01,7.136864678949233820e+00
7.100000000000000000e+01,7.208407840131173749e+00
7.200000000000000000e+01,7.278794806377880455e+00
7.300000000000000000e+01,7.348049327291639621e+00
7.400000000000000000e+01,7.416195711942978441e+00
7.500000000000000000e+01,7.483257297885717918e+00
7.600000000000000000e+01,7.549255905796682597e+00
7.700000000000000000e+01,7.614213571776419442e+00
7.800000000000000000e+01,7.678150532953066154e+00
7.900000000000000000e+01,7.741087904527863550e+00
8.000000000000000000e+01,7.803046064271424775e+00
8.100000000000000000e+01,7.864045461774593626e+00
8.200000000000000000e+01,7.924106049891120662e+00
8.300000000000000000e+01,7.983247319349285220e+00
8.400000000000000000e+01,8.041489236149553577e+00
8.500000000000000000e+01,8.098850423141666255e+00
8.600000000000000000e+01,8.155349134399010325e+00
8.700000000000000000e+01,8.211002586896825051e+00
8.800000000000000000e+01,8.265827544988546549e+00
8.900000000000000000e+01,8.319838322080116200e+00
9.000000000000000000e+01,8.373055620557552814e+00
9.100000000000000000e+01,8.425490965023517020e+00
9.200000000000000000e+01,8.477157530172078737e+00
9.300000000000000000e+01,8.528068592882036114e+00
9.400000000000000000e+01,8.578237527521018535e+00
9.500000000000000000e+01,8.627678588634845269e+00
9.600000000000000000e+01,8.676404065246362762e+00
9.700000000000000000e+01,8.724430544396247100e+00
9.800000000000000000e+01,8.771768945504369697e+00
9.900000000000000000e+01,8.818431299305473203e+00
1.000000000000000000e+02,8.864429649463808403e+00
1.010000000000000000e+02,8.909777529862635603e+00
1.020000000000000000e+02,8.954485514298504256e+00
1.030000000000000000e+02,8.998562089239976913e+00
1.040000000000000000e+02,9.042019627117779734e+00
1.050000000000000000e+02,9.084864985726277098e+00
1.060000000000000000e+02,9.127109604331431925e+00
1.070000000000000000e+02,9.168760941503320439e+00
1.080000000000000000e+02,9.209828177090715329e+00
1.090000000000000000e+02,9.250319539083388776e+00
1.100000000000000000e+02,9.290244381822260422e+00
1.110000000000000000e+02,9.329613006398634667e+00
1.120000000000000000e+02,9.368432890388900702e+00
1.130000000000000000e+02,9.406714495366252038e+00
1.140000000000000000e+02,9.444467606617832800e+00
1.150000000000000000e+02,9.481699801759928548e+00
1.160000000000000000e+02,9.518420028435661706e+00
1.170000000000000000e+02,9.554637144531060500e+00
1.180000000000000000e+02,9.590359161538509980e+00
1.190000000000000000e+02,9.625592773774688027e+00
1.200000000000000000e+02,9.660344663156523737e+00
1.210000000000000000e+02,9.694620380901511680e+00
1.220000000000000000e+02,9.728425254847417492e+00
1.230000000000000000e+02,9.761764275774458710e+00
1.240000000000000000e+02,9.794641744102444036e+00
1.250000000000000000e+02,9.827062869739062734e+00
1.260000000000000000e+02,9.859031214446519087e+00
1.270000000000000000e+02,9.890548386861579999e+00
1.280000000000000000e+02,9.921618979657573334e+00
1.290000000000000000e+02,9.952242204001196413e+00
1.300000000000000000e+02,9.982421451170457871e+00
1.310000000000000000e+02,1.001215587510398919e+01
1.320000000000000000e+02,1.004144457978922667e+01
1.330000000000000000e+02,1.007028846526211652e+01
1.340000000000000000e+02,1.009868409129327915e+01
1.350000000000000000e+02,1.012663007428839812e+01
1.360000000000000000e+02,1.015412532451224337e+01
1.370000000000000000e+02,1.018116677702022876e+01
1.380000000000000000e+02,1.020775236156621801e+01
1.390000000000000000e+02,1.023387963210218921e+01
1.400000000000000000e+02,1.025954321514620560e+01
1.410000000000000000e+02,1.028474229276699248e+01
1.420000000000000000e+02,1.030947233750519487e+01
1.430000000000000000e+02,1.033372804735225259e+01
1.440000000000000000e+02,1.035750674107462643e+01
1.450000000000000000e+02,1.038080123275089761e+01
1.460000000000000000e+02,1.040360782196869671e+01
1.470000000000000000e+02,1.042592201185665068e+01
1.480000000000000000e+02,1.044773798488813910e+01
1.490000000000000000e+02,1.046905193540791501e+01
1.500000000000000000e+02,1.048986000198014956e+01
1.510000000000000000e+02,1.051015858159255600e+01
1.520000000000000000e+02,1.052994548126366503e+01
1.530000000000000000e+02,1.054921946691333901e+01
1.540000000000000000e+02,1.056797929965498994e+01
1.550000000000000000e+02,1.058622613586178041e+01
1.560000000000000000e+02,1.060396025743185788e+01
1.570000000000000000e+02,1.062118513267989783e+01
1.580000000000000000e+02,1.063790488271663470e+01
1.590000000000000000e+02,1.065412447971125864e+01
1.600000000000000000e+02,1.066985076514873931e+01
1.610000000000000000e+02,1.068509314423337919e+01
1.620000000000000000e+02,1.069986335099717678e+01
1.630000000000000000e+02,1.071417287494429260e+01
1.640000000000000000e+02,1.072803704154319426e+01
1.650000000000000000e+02,1.074147162473746953e+01
1.660000000000000000e+02,1.075449426971528766e+01
1.670000000000000000e+02,1.076712377536707343e+01
1.680000000000000000e+02,1.077938059699651774e+01
1.690000000000000000e+02,1.079128573464917551e+01
1.700000000000000000e+02,1.080286214432544689e+01
1.710000000000000000e+02,1.081413272799563785e+01
1.720000000000000000e+02,1.082512204495889385e+01
1.730000000000000000e+02,1.083585451255318333e+01
1.740000000000000000e+02,1.084635561302277473e+01
1.750000000000000000e+02,1.085665159581376749e+01
1.760000000000000000e+02,1.086676739831183802e+01
1.770000000000000000e+02,1.087672795287237548e+01
1.780000000000000000e+02,1.088655868788106851e+01
1.790000000000000000e+02,1.089628326170493189e+01
1.800000000000000000e+02,1.090592840592885793e+01
1.810000000000000000e+02,1.091551604226594208e+01
1.820000000000000000e+02,1.092507068308648144e+01
1.830000000000000000e+02,1.093461549415890666e+01
1.840000000000000000e+02,1.094417260015852911e+01
1.850000000000000000e+02,1.095376358116615911e+01
1.860000000000000000e+02,1.096341161877741577e+01
1.870000000000000000e+02,1.097313584116645302e+01
1.880000000000000000e+02,1.098295805213699161e+01
1.890000000000000000e+02,1.099289960383758569e+01
1.900000000000000000e+02,1.100297897892461130e+01
1.910000000000000000e+02,1.101321760252560011e+01
1.920000000000000000e+02,1.102363499268587432e+01
1.930000000000000000e+02,1.103425165601380620e+01
1.940000000000000000e+02,1.104508811134354040e+01
1.950000000000000000e+02,1.105616545594702238e+01
1.960000000000000000e+02,1.106750496829705632e+01
1.970000000000000000e+02,1.107912895432493272e+01
1.980000000000000000e+02,1.109106167690180733e+01
1.990000000000000000e+02,1.110332647309827614e+01
2.000000000000000000e+02,1.111595039194128809e+01
2.010000000000000000e+02,1.112895912647359431e+01
2.020000000000000000e+02,1.114238257387129849e+01
2.030000000000000000e+02,1.115625006112090389e+01
2.040000000000000000e+02,1.117059642570493416e+01
2.050000000000000000e+02,1.118545546107456978e+01
2.060000000000000000e+02,1.120086540325261915e+01
2.070000000000000000e+02,1.121686799619193842e+01
2.080000000000000000e+02,1.123350394590294954e+01
2.090000000000000000e+02,1.125082148843890018e+01
2.100000000000000000e+02,1.126886856778871326e+01
2.110000000000000000e+02,1.128769479761263561e+01
2.120000000000000000e+02,1.130735447666213389e+01
2.130000000000000000e+02,1.132790131961554891e+01
2.140000000000000000e+02,1.134938737980923484e+01
2.150000000000000000e+02,1.137186163078861867e+01
2.160000000000000000e+02,1.139536768001425138e+01
2.170000000000000000e+02,1.141993624891828674e+01
2.180000000000000000e+02,1.144557858089954827e+01
2.190000000000000000e+02,1.147228166949947514e+01
2.200000000000000000e+02,1.149999518329426351e+01
2.210000000000000000e+02,1.152861972977955674e+01
2.220000000000000000e+02,1.155799828840392784e+01
2.230000000000000000e+02,1.158790983617516446e+01
2.240000000000000000e+02,1.161807849724669417e+01
2.250000000000000000e+02,1.164818196631107305e+01
2.260000000000000000e+02,1.167790136717523630e+01
2.270000000000000000e+02,1.170696379206209059e+01
2.280000000000000000e+02,1.173518727390886696e+01
2.290000000000000000e+02,1.176250906835125853e+01
2.300000000000000000e+02,1.178896091818406688e+01
2.310000000000000000e+02,1.181462876031597986e+01
2.320000000000000000e+02,1.183960652988747064e+01
2.330000000000000000e+02,1.186397430219686733e+01
2.340000000000000000e+02,1.188779095754921045e+01
2.350000000000000000e+02,1.191110010976065148e+01
2.360000000000000000e+02,1.193394014241139267e+01
2.370000000000000000e+02,1.195634065269302049e+01
2.380000000000000000e+02,1.197832973557378011e+01
2.390000000000000000e+02,1.199992923249525667e+01
2.400000000000000000e+02,1.202115955598859287e+01
2.410000000000000000e+02,1.204204077548786067e+01
2.420000000000000000e+02,1.206258507109441958e+01
2.430000000000000000e+02,1.208281106718265541e+01
2.440000000000000000e+02,1.210272910697076831e+01
2.450000000000000000e+02,1.212235190954343622e+01
2.460000000000000000e+02,1.214168881904792130e+01
2.470000000000000000e+02,1.216075227429317707e+01
2.480000000000000000e+02,1.217955097804828135e+01
2.490000000000000000e+02,1.219809255455889740e+01
2.500000000000000000e+02,1.221638600027706723e+01
2.510000000000000000e+02,1.223444049309136439e+01
2.520000000000000000e+02,1.225226009007267614e+01
2.530000000000000000e+02,1.226985243460844366e+01
2.540000000000000000e+02,1.228722358955480765e+01
2.550000000000000000e+02,1.230438022649125251e+01
2.560000000000000000e+02,1.232132715166055448e+01
2.570000000000000000e+02,1.233807040905356800e+01
2.580000000000000000e+02,1.235461381398093295e+01
2.590000000000000000e+02,1.237096372646598219e+01
2.600000000000000000e+02,1.238712428903251883e+01
2.610000000000000000e+02,1.240309829389239837e+01
2.620000000000000000e+02,1.241889054071696030e+01
2.630000000000000000e+02,1.243450493510237287e+01
2.640000000000000000e+02,1.244994563361047746e+01
2.650000000000000000e+02,1.246521621286913550e+01
2.660000000000000000e+02,1.248032005328669669e+01
2.670000000000000000e+02,1.249525981733958702e+01
2.680000000000000000e+02,1.251003880513159494e+01
2.690000000000000000e+02,1.252466042512634559e+01
2.700000000000000000e+02,1.253912715124540433e+01
2.710000000000000000e+02,1.255344127702268331e+01
2.720000000000000000e+02,1.256760706743558842e+01
2.730000000000000000e+02,1.258162593065466517e+01
2.740000000000000000e+02,1.259550139403783042e+01
2.750000000000000000e+02,1.260923451647656712e+01
2.760000000000000000e+02,1.262282839714611704e+01
2.770000000000000000e+02,1.263628522150166056e+01
2.780000000000000000e+02,1.264960671039134965e+01
2.790000000000000000e+02,1.266279638840800814e+01
2.800000000000000000e+02,1.267585461150798842e+01
2.810000000000000000e+02,1.268878477988861597e+01
2.820000000000000000e+02,1.270158677700285210e+01
2.830000000000000000e+02,1.271426453631053910e+01
2.840000000000000000e+02,1.272681906318651635e+01
2.850000000000000000e+02,1.273925243133217400e+01
2.860000000000000000e+02,1.275156582882728884e+01
2.870000000000000000e+02,1.276376078842650763e+01
2.880000000000000000e+02,1.277583968649848245e+01
2.890000000000000000e+02,1.278780401733707350e+01
2.900000000000000000e+02,1.279965483039002727e+01
2.910000000000000000e+02,1.281139408964057580e+01
2.920000000000000000e+02,1.282302281447558734e+01
2.930000000000000000e+02,1.283454286503534014e+01
2.940000000000000000e+02,1.284595438112481602e+01
2.950000000000000000e+02,1.285726004636824094e+01
2.960000000000000000e+02,1.286846089538336813e+01
2.970000000000000000e+02,1.287955830425943482e+01
2.980000000000000000e+02,1.289055448090862477e+01
2.990000000000000000e+02,1.290144866047247696e+01
3.000000000000000000e+02,1.291224302819301428e+01
3.010000000000000000e+02,1.292293855927722568e+01
3.020000000000000000e+02,1.293353649867619382e+01
3.030000000000000000e+02,1.294403870834687531e+01
3.040000000000000000e+02,1.295444591858789174e+01
3.050000000000000000e+02,1.296475864263493172e+01
3.060000000000000000e+02,1.297497780425462821e+01
3.070000000000000000e+02,1.298510626195529483e+01
3.080000000000000000e+02,1.299514324869709014e+01
3.090000000000000000e+02,1.300508959087708583e+01
3.100000000000000000e+02,1.301494811079885849e+01
3.110000000000000000e+02,1.302471767747233322e+01
3.120000000000000000e+02,1.303440143555878983e+01
3.130000000000000000e+02,1.304399824258260665e+01
3.140000000000000000e+02,1.305351094449072313e+01
3.150000000000000000e+02,1.306293859486535958e+01
3.160000000000000000e+02,1.307228326409791741e+01
3.170000000000000000e+02,1.308154529793204013e+01
3.180000000000000000e+02,1.309072626709758147e+01
3.190000000000000000e+02,1.309982691239011565e+01
3.200000000000000000e+02,1.310884715054712046e+01
3.210000000000000000e+02,1.311778900514357105e+01
3.220000000000000000e+02,1.312665271998676175e+01
3.230000000000000000e+02,1.313543826382771407e+01
3.240000000000000000e+02,1.314414797466556450e+01
3.250000000000000000e+02,1.315278207819441469e+01
3.260000000000000000e+02,1.316134140491898208e+01
3.270000000000000000e+02,1.316982657637615794e+01
3.280000000000000000e+02,1.317823706287089358e+01
3.290000000000000000e+02,1.318657556662326513e+01
3.300000000000000000e+02,1.319484242088872072e+01
3.310000000000000000e+02,1.320303782095336409e+01
3.320000000000000000e+02,1.321116256277687029e+01
3.330000000000000000e+02,1.321921797235800788e+01
3.340000000000000000e+02,1.322720396229568252e+01
3.350000000000000000e+02,1.323512157979936354e+01
3.360000000000000000e+02,1.324297153149406725e+01
3.370000000000000000e+02,1.325075431885302457e+01
3.380000000000000000e+02,1.325847030604400167e+01
3.390000000000000000e+02,1.326612011985386808e+01
3.400000000000000000e+02,1.327370511329199942e+01
3.410000000000000000e+02,1.328122676425454074e+01
3.420000000000000000e+02,1.328868369190728771e+01
3.430000000000000000e+02,1.329607723484265769e+01
3.440000000000000000e+02,1.330340773196488335e+01
3.450000000000000000e+02,1.331067651018336484e+01
3.460000000000000000e+02,1.331788416311174572e+01
3.470000000000000000e+02,1.332503048918091437e+01
3.480000000000000000e+02,1.333211614237093201e+01
3.490000000000000000e+02,1.333914289084095905e+01
3.500000000000000000e+02,1.334611006226437091e+01
3.510000000000000000e+02,1.335301823312875591e+01
3.520000000000000000e+02,1.335986889434969704e+01
3.530000000000000000e+02,1.336666176041203613e+01
3.540000000000000000e+02,1.337339733107754292e+01
3.550000000000000000e+02,1.338007708360091463e+01
3.560000000000000000e+02,1.338670026713117167e+01
3.570000000000000000e+02,1.339326841657677569e+01
3.580000000000000000e+02,1.339978149493376947e+01
3.590000000000000000e+02,1.340624057139059211e+01
3.600000000000000000e+02,1.341264540845216047e+01
3.610000000000000000e+02,1.341899726356160372e+01
3.620000000000000000e+02,1.342529518006572786e+01
3.630000000000000000e+02,1.343154164276938189e+01
3.640000000000000000e+02,1.343773601445508170e+01
3.650000000000000000e+02,1.344387882500939924e+01
3.660000000000000000e+02,1.344997053661239761e+01
3.670000000000000000e+02,1.345601141477453844e+01
3.680000000000000000e+02,1.346200314408463328e+01
3.690000000000000000e+02,1.346794462708047924e+01
3.700000000000000000e+02,1.347383676806825648e+01
3.710000000000000000e+02,1.347968091818333924e+01
3.720000000000000000e+02,1.348547674935230489e+01
3.730000000000000000e+02,1.349122444821693279e+01
3.740000000000000000e+02,1.349692452115701791e+01
3.750000000000000000e+02,1.350257785716859971e+01
3.760000000000000000e+02,1.350818450740479548e+01
3.770000000000000000e+02,1.351374548347879312e+01
3.780000000000000000e+02,1.351926044783034264e+01
3.790000000000000000e+02,1.352472989510522439e+01
3.800000000000000000e+02,1.353015470118388208e+01
3.810000000000000000e+02,1.353553458824493383e+01
3.820000000000000000e+02,1.354087087463178207e+01
3.830000000000000000e+02,1.354616327892066252e+01
3.840000000000000000e+02,1.355141260344980658e+01
3.850000000000000000e+02,1.355661901036906158e+01
3.860000000000000000e+02,1.356178291517770162e+01
3.870000000000000000e+02,1.356690447698709967e+01
3.880000000000000000e+02,1.357198423501398388e+01
3.890000000000000000e+02,1.357702253564302985e+01
3.900000000000000000e+02,1.358201991390937380e+01
3.910000000000000000e+02,1.358697645872029192e+01
3.920000000000000000e+02,1.359189263824317351e+01
3.930000000000000000e+02,1.359676860203402882e+01
3.940000000000000000e+02,1.360160475166639316e+01
3.950000000000000000e+02,1.360640192954012306e+01
3.960000000000000000e+02,1.361115990090345562e+01
3.970000000000000000e+02,1.361587906246390212e+01
3.980000000000000000e+02,1.362056069259901037e+01
