# Time [s], Temperature [C]
1.000000000000000000e+00,2.499997300000000067e+01
2.000000000000000000e+00,1.003270600000000030e+02
3.000000000000000000e+00,1.487498799999999903e+02
4.000000000000000000e+00,1.859489100000000121e+02
5.000000000000000000e+00,2.169296699999999873e+02
6.000000000000000000e+00,2.437298099999999863e+02
7.000000000000000000e+00,2.676426399999999717e+02
8.000000000000000000e+00,2.902958100000000172e+02
9.000000000000000000e+00,3.136160899999999856e+02
1.000000000000000000e+01,3.357351699999999823e+02
1.100000000000000000e+01,3.540557299999999827e+02
1.200000000000000000e+01,3.698010300000000257e+02
1.300000000000000000e+01,3.838394200000000183e+02
1.400000000000000000e+01,3.964775399999999763e+02
1.500000000000000000e+01,4.077818300000000136e+02
1.600000000000000000e+01,4.177986500000000092e+02
1.700000000000000000e+01,4.265785799999999881e+02
1.800000000000000000e+01,4.342615999999999872e+02
1.900000000000000000e+01,4.410633900000000267e+02
2.000000000000000000e+01,4.472822600000000079e+02
2.100000000000000000e+01,4.533279400000000123e+02
2.200000000000000000e+01,4.595059499999999844e+02
2.300000000000000000e+01,4.660538599999999860e+02
2.400000000000000000e+01,4.733035899999999856e+02
2.500000000000000000e+01,4.812857999999999947e+02
2.600000000000000000e+01,4.897809399999999869e+02
2.700000000000000000e+01,4.981380300000000148e+02
2.800000000000000000e+01,5.048514700000000062e+02
2.900000000000000000e+01,5.104295000000000186e+02
3.000000000000000000e+01,5.154133900000000494e+02
3.100000000000000000e+01,5.200988800000000083e+02
3.200000000000000000e+01,5.246758999999999560e+02
3.300000000000000000e+01,5.292794800000000350e+02
3.400000000000000000e+01,5.339628900000000158e+02
3.500000000000000000e+01,5.388192099999999982e+02
3.600000000000000000e+01,5.437799700000000485e+02
3.700000000000000000e+01,5.487720299999999725e+02
3.800000000000000000e+01,5.535891100000000051e+02
3.900000000000000000e+01,5.580342399999999543e+02
4.000000000000000000e+01,5.619877300000000560e+02
4.100000000000000000e+01,5.655543800000000374e+02
4.200000000000000000e+01,5.688861100000000306e+02
4.300000000000000000e+01,5.720650000000000546e+02
4.400000000000000000e+01,5.751706500000000233e+02
4.500000000000000000e+01,5.782426100000000133e+02
4.600000000000000000e+01,5.813384999999999536e+02
4.700000000000000000e+01,5.844596599999999853e+02
4.800000000000000000e+01,5.876048600000000306e+02
4.900000000000000000e+01,5.907443799999999783e+02
5.000000000000000000e+01,5.938241600000000062e+02
5.100000000000000000e+01,5.967747799999999643e+02
5.200000000000000000e+01,5.995686600000000226e+02
5.300000000000000000e+01,6.021893900000000031e+02
5.400000000000000000e+01,6.046397100000000364e+02
5.500000000000000000e+01,6.069750400000000354e+02
5.600000000000000000e+01,6.092270499999999629e+02
5.700000000000000000e+01,6.114171800000000303e+02
5.800000000000000000e+01,6.135786699999999882e+02
5.900000000000000000e+01,6.157247899999999845e+02
6.000000000000000000e+01,6.178746300000000247e+02
6.100000000000000000e+01,6.200095800000000281e+02
6.200000000000000000e+01,6.221378200000000334e+02
6.300000000000000000e+01,6.242518900000000031e+02
6.400000000000000000e+01,6.263142699999999650e+02
6.500000000000000000e+01,6.283256800000000339e+02
6.600000000000000000e+01,6.302612900000000309e+02
6.700000000000000000e+01,6.321148100000000341e+02
6.800000000000000000e+01,6.338996600000000399e+02
6.900000000000000000e+01,6.356135299999999688e+02
7.000000000000000000e+01,6.372853400000000192e+02
7.100000000000000000e+01,6.389178500000000440e+02
7.200000000000000000e+01,6.405203900000000203e+02
7.300000000000000000e+01,6.421026000000000522e+02
7.400000000000000000e+01,6.436771199999999453e+02
7.500000000000000000e+01,6.452381000000000313e+02
7.600000000000000000e+01,6.467897299999999632e+02
7.700000000000000000e+01,6.483336799999999585e+02
7.800000000000000000e+01,6.498634600000000319e+02
7.900000000000000000e+01,6.513602300000000014e+02
8.000000000000000000e+01,6.528365499999999884e+02
8.100000000000000000e+01,6.542694099999999935e+02
8.200000000000000000e+01,6.556609499999999571e+02
8.300000000000000000e+01,6.570280199999999695e+02
8.400000000000000000e+01,6.583479599999999436e+02
8.500000000000000000e+01,6.596460600000000341e+02
8.600000000000000000e+01,6.609201000000000477e+02
8.700000000000000000e+01,6.621738900000000285e+02
8.800000000000000000e+01,6.634053999999999860e+02
8.900000000000000000e+01,6.646385500000000093e+02
9.000000000000000000e+01,6.658602300000000014e+02
9.100000000000000000e+01,6.670695799999999736e+02
9.200000000000000000e+01,6.682729500000000371e+02
9.300000000000000000e+01,6.694635600000000295e+02
9.400000000000000000e+01,6.706461799999999585e+02
9.500000000000000000e+01,6.718085300000000188e+02
9.600000000000000000e+01,6.729526399999999740e+02
9.700000000000000000e+01,6.740809900000000425e+02
9.800000000000000000e+01,6.751863399999999729e+02
9.900000000000000000e+01,6.762764899999999670e+02
1.000000000000000000e+02,6.773398999999999432e+02
1.010000000000000000e+02,6.783890400000000227e+02
1.020000000000000000e+02,6.794274900000000343e+02
1.030000000000000000e+02,6.804483599999999797e+02
1.040000000000000000e+02,6.814700900000000274e+02
1.050000000000000000e+02,6.824744899999999461e+02
1.060000000000000000e+02,6.834763799999999492e+02
1.070000000000000000e+02,6.844730799999999817e+02
1.080000000000000000e+02,6.854511700000000474e+02
1.090000000000000000e+02,6.864339599999999564e+02
1.100000000000000000e+02,6.874024699999999939e+02
1.110000000000000000e+02,6.883644399999999450e+02
1.120000000000000000e+02,6.893099399999999832e+02
1.130000000000000000e+02,6.902481699999999591e+02
1.140000000000000000e+02,6.911715100000000120e+02
1.150000000000000000e+02,6.920797099999999773e+02
1.160000000000000000e+02,6.929775399999999763e+02
1.170000000000000000e+02,6.938671299999999746e+02
1.180000000000000000e+02,6.947525600000000168e+02
1.190000000000000000e+02,6.956268900000000031e+02
1.200000000000000000e+02,6.964881000000000313e+02
1.210000000000000000e+02,6.973486299999999574e+02
1.220000000000000000e+02,6.982076399999999694e+02
1.230000000000000000e+02,6.990552400000000262e+02
1.240000000000000000e+02,6.999000899999999774e+02
1.250000000000000000e+02,7.007355999999999767e+02
1.260000000000000000e+02,7.015624400000000378e+02
1.270000000000000000e+02,7.023847700000000032e+02
1.280000000000000000e+02,7.031929300000000467e+02
1.290000000000000000e+02,7.040009199999999510e+02
1.300000000000000000e+02,7.047916300000000547e+02
1.310000000000000000e+02,7.055836199999999963e+02
1.320000000000000000e+02,7.063593799999999874e+02
1.330000000000000000e+02,7.071347700000000032e+02
1.340000000000000000e+02,7.079069799999999759e+02
1.350000000000000000e+02,7.086632700000000114e+02
1.360000000000000000e+02,7.094208999999999605e+02
1.370000000000000000e+02,7.101743800000000419e+02
1.380000000000000000e+02,7.109186999999999443e+02
1.390000000000000000e+02,7.116590599999999540e+02
1.400000000000000000e+02,7.123950200000000450e+02
1.410000000000000000e+02,7.131202399999999670e+02
1.420000000000000000e+02,7.138470499999999674e+02
1.430000000000000000e+02,7.145604200000000219e+02
1.440000000000000000e+02,7.152720299999999725e+02
1.450000000000000000e+02,7.159747899999999845e+02
1.460000000000000000e+02,7.166713300000000118e+02
1.470000000000000000e+02,7.173670700000000124e+02
1.480000000000000000e+02,7.180502900000000182e+02
1.490000000000000000e+02,7.187358400000000529e+02
1.500000000000000000e+02,7.194117400000000089e+02
1.510000000000000000e+02,7.200863000000000511e+02
1.520000000000000000e+02,7.207513400000000274e+02
1.530000000000000000e+02,7.214130199999999604e+02
1.540000000000000000e+02,7.220724500000000035e+02
1.550000000000000000e+02,7.227224099999999680e+02
1.560000000000000000e+02,7.233684100000000399e+02
1.570000000000000000e+02,7.240110499999999547e+02
1.580000000000000000e+02,7.246449599999999691e+02
1.590000000000000000e+02,7.252790499999999838e+02
1.600000000000000000e+02,7.259002699999999777e+02
1.610000000000000000e+02,7.265235599999999749e+02
1.620000000000000000e+02,7.271406200000000126e+02
1.630000000000000000e+02,7.277490199999999732e+02
1.640000000000000000e+02,7.283586400000000367e+02
1.650000000000000000e+02,7.289553200000000288e+02
1.660000000000000000e+02,7.295559100000000399e+02
1.670000000000000000e+02,7.301479500000000371e+02
1.680000000000000000e+02,7.307377900000000182e+02
1.690000000000000000e+02,7.313149399999999787e+02
1.700000000000000000e+02,7.318961799999999585e+02
1.710000000000000000e+02,7.324641699999999673e+02
1.720000000000000000e+02,7.330382100000000491e+02
1.730000000000000000e+02,7.336004599999999982e+02
1.740000000000000000e+02,7.341585700000000543e+02
1.750000000000000000e+02,7.347136199999999917e+02
1.760000000000000000e+02,7.352645899999999983e+02
1.770000000000000000e+02,7.358104899999999589e+02
1.780000000000000000e+02,7.363494899999999461e+02
1.790000000000000000e+02,7.368875100000000202e+02
1.800000000000000000e+02,7.374186999999999443e+02
1.810000000000000000e+02,7.379446400000000494e+02
1.820000000000000000e+02,7.384689899999999625e+02
1.830000000000000000e+02,7.389879799999999932e+02
1.840000000000000000e+02,7.395030500000000302e+02
1.850000000000000000e+02,7.400107400000000553e+02
1.860000000000000000e+02,7.405176400000000285e+02
1.870000000000000000e+02,7.410200200000000450e+02
1.880000000000000000e+02,7.415166600000000017e+02
1.890000000000000000e+02,7.420148299999999608e+02
1.900000000000000000e+02,7.425013999999999896e+02
1.910000000000000000e+02,7.429912699999999859e+02
1.920000000000000000e+02,7.434703399999999647e+02
1.930000000000000000e+02,7.439497699999999440e+02
1.940000000000000000e+02,7.444265699999999697e+02
1.950000000000000000e+02,7.448980699999999615e+02
1.960000000000000000e+02,7.453642599999999447e+02
1.970000000000000000e+02,7.458314199999999801e+02
1.980000000000000000e+02,7.462888199999999870e+02
1.990000000000000000e+02,7.467497600000000375e+02
2.000000000000000000e+02,7.472064800000000560e+02
2.010000000000000000e+02,7.476575900000000274e+02
2.020000000000000000e+02,7.481068699999999581e+02
2.030000000000000000e+02,7.485530400000000100e+02
2.040000000000000000e+02,7.489981099999999969e+02
2.050000000000000000e+02,7.494371300000000247e+02
2.060000000000000000e+02,7.498782300000000305e+02
2.070000000000000000e+02,7.503150600000000168e+02
2.080000000000000000e+02,7.507510399999999890e+02
2.090000000000000000e+02,7.511831700000000183e+02
2.100000000000000000e+02,7.516141999999999825e+02
2.110000000000000000e+02,7.520443099999999959e+02
2.120000000000000000e+02,7.524713100000000168e+02
2.130000000000000000e+02,7.528986800000000130e+02
2.140000000000000000e+02,7.533247099999999818e+02
2.150000000000000000e+02,7.537480500000000347e+02
2.160000000000000000e+02,7.541735800000000154e+02
2.170000000000000000e+02,7.545956400000000031e+02
2.180000000000000000e+02,7.550210600000000341e+02
2.190000000000000000e+02,7.554448899999999867e+02
2.200000000000000000e+02,7.558701800000000048e+02
2.210000000000000000e+02,7.562949200000000474e+02
2.220000000000000000e+02,7.567209500000000162e+02
2.230000000000000000e+02,7.571481300000000374e+02
2.240000000000000000e+02,7.575781899999999496e+02
2.250000000000000000e+02,7.580060999999999467e+02
2.260000000000000000e+02,7.584397599999999784e+02
2.270000000000000000e+02,7.588750000000000000e+02
2.280000000000000000e+02,7.593110400000000482e+02
2.290000000000000000e+02,7.597500000000000000e+02
2.300000000000000000e+02,7.601898200000000543e+02
2.310000000000000000e+02,7.606375699999999824e+02
2.320000000000000000e+02,7.610831899999999450e+02
2.330000000000000000e+02,7.615333299999999781e+02
2.340000000000000000e+02,7.619856600000000526e+02
2.350000000000000000e+02,7.624399399999999787e+02
2.360000000000000000e+02,7.628960600000000341e+02
2.370000000000000000e+02,7.633555300000000443e+02
2.380000000000000000e+02,7.638114600000000110e+02
2.390000000000000000e+02,7.642785000000000082e+02
2.400000000000000000e+02,7.647389500000000453e+02
2.410000000000000000e+02,7.652051400000000285e+02
2.420000000000000000e+02,7.656713300000000118e+02
2.430000000000000000e+02,7.661368999999999687e+02
2.440000000000000000e+02,7.666036400000000413e+02
2.450000000000000000e+02,7.670729400000000169e+02
2.460000000000000000e+02,7.675416300000000547e+02
2.470000000000000000e+02,7.680092200000000275e+02
2.480000000000000000e+02,7.684789399999999659e+02
2.490000000000000000e+02,7.689454299999999876e+02
2.500000000000000000e+02,7.694127200000000357e+02
2.510000000000000000e+02,7.698842200000000275e+02
2.520000000000000000e+02,7.703478400000000192e+02
2.530000000000000000e+02,7.708153099999999540e+02
2.540000000000000000e+02,7.712791099999999460e+02
2.550000000000000000e+02,7.717448699999999917e+02
2.560000000000000000e+02,7.722033099999999877e+02
2.570000000000000000e+02,7.726699200000000474e+02
2.580000000000000000e+02,7.731291499999999814e+02
2.590000000000000000e+02,7.735874000000000024e+02
2.600000000000000000e+02,7.740465699999999742e+02
2.610000000000000000e+02,7.745012199999999893e+02
2.620000000000000000e+02,7.749542199999999639e+02
2.630000000000000000e+02,7.754110100000000330e+02
2.640000000000000000e+02,7.758590699999999742e+02
2.650000000000000000e+02,7.763090200000000323e+02
2.660000000000000000e+02,7.767551899999999705e+02
2.670000000000000000e+02,7.772016599999999471e+02
2.680000000000000000e+02,7.776441700000000310e+02
2.690000000000000000e+02,7.780856899999999996e+02
2.700000000000000000e+02,7.785231899999999996e+02
2.710000000000000000e+02,7.789616700000000264e+02
2.720000000000000000e+02,7.793949599999999691e+02
2.730000000000000000e+02,7.798286100000000260e+02
2.740000000000000000e+02,7.802562900000000354e+02
2.750000000000000000e+02,7.806870699999999488e+02
2.760000000000000000e+02,7.811120600000000422e+02
2.770000000000000000e+02,7.815365000000000464e+02
2.780000000000000000e+02,7.819559299999999666e+02
2.790000000000000000e+02,7.823755499999999756e+02
2.800000000000000000e+02,7.827912599999999657e+02
2.810000000000000000e+02,7.832052599999999529e+02
2.820000000000000000e+02,7.836166399999999612e+02
2.830000000000000000e+02,7.840253300000000536e+02
2.840000000000000000e+02,7.844335300000000188e+02
2.850000000000000000e+02,7.848362399999999752e+02
2.860000000000000000e+02,7.852387700000000450e+02
2.870000000000000000e+02,7.856383700000000090e+02
2.880000000000000000e+02,7.860357699999999568e+02
2.890000000000000000e+02,7.864279199999999719e+02
2.900000000000000000e+02,7.868222700000000032e+02
2.910000000000000000e+02,7.872106899999999996e+02
2.920000000000000000e+02,7.875982099999999946e+02
2.930000000000000000e+02,7.879836999999999989e+02
2.940000000000000000e+02,7.883641400000000203e+02
2.950000000000000000e+02,7.887440199999999777e+02
2.960000000000000000e+02,7.891216399999999567e+02
2.970000000000000000e+02,7.894971900000000460e+02
2.980000000000000000e+02,7.898688399999999774e+02
2.990000000000000000e+02,7.902398699999999963e+02
3.000000000000000000e+02,7.906057700000000068e+02
3.010000000000000000e+02,7.909706999999999653e+02
3.020000000000000000e+02,7.913337999999999965e+02
3.030000000000000000e+02,7.916939700000000357e+02
3.040000000000000000e+02,7.920511500000000069e+02
3.050000000000000000e+02,7.924074699999999893e+02
3.060000000000000000e+02,7.927614099999999553e+02
3.070000000000000000e+02,7.931094399999999496e+02
3.080000000000000000e+02,7.934591100000000097e+02
3.090000000000000000e+02,7.938041399999999612e+02
3.100000000000000000e+02,7.941464200000000346e+02
3.110000000000000000e+02,7.944881000000000313e+02
3.120000000000000000e+02,7.948259299999999712e+02
3.130000000000000000e+02,7.951622899999999845e+02
3.140000000000000000e+02,7.954979899999999589e+02
3.150000000000000000e+02,7.958271499999999605e+02
3.160000000000000000e+02,7.961563099999999622e+02
3.170000000000000000e+02,7.964833999999999605e+02
3.180000000000000000e+02,7.968077399999999670e+02
3.190000000000000000e+02,7.971307399999999461e+02
3.200000000000000000e+02,7.974494600000000446e+02
3.210000000000000000e+02,7.977669100000000526e+02
3.220000000000000000e+02,7.980820300000000316e+02
3.230000000000000000e+02,7.983962400000000343e+02
3.240000000000000000e+02,7.987075200000000450e+02
3.250000000000000000e+02,7.990142200000000230e+02
3.260000000000000000e+02,7.993221399999999903e+02
3.270000000000000000e+02,7.996248799999999619e+02
3.280000000000000000e+02,7.999278600000000097e+02
3.290000000000000000e+02,8.002287599999999657e+02
3.300000000000000000e+02,8.005241099999999506e+02
3.310000000000000000e+02,8.008200699999999870e+02
3.320000000000000000e+02,8.011132199999999557e+02
3.330000000000000000e+02,8.014051500000000487e+02
3.340000000000000000e+02,8.016914699999999812e+02
3.350000000000000000e+02,8.019800999999999931e+02
3.360000000000000000e+02,8.022644000000000233e+02
3.370000000000000000e+02,8.025456500000000233e+02
3.380000000000000000e+02,8.028280600000000504e+02
3.390000000000000000e+02,8.031054100000000062e+02
3.400000000000000000e+02,8.033826299999999492e+02
3.410000000000000000e+02,8.036553999999999860e+02
3.420000000000000000e+02,8.039282200000000103e+02
3.430000000000000000e+02,8.041983599999999797e+02
3.440000000000000000e+02,8.044655800000000454e+02
3.450000000000000000e+02,8.047326000000000477e+02
3.460000000000000000e+02,8.049964599999999564e+02
3.470000000000000000e+02,8.052573200000000497e+02
3.480000000000000000e+02,8.055176400000000285e+02
3.490000000000000000e+02,8.057758199999999533e+02
3.500000000000000000e+02,8.060319799999999759e+02
3.510000000000000000e+02,8.062861299999999574e+02
3.520000000000000000e+02,8.065386999999999489e+02
3.530000000000000000e+02,8.067879599999999982e+02
3.540000000000000000e+02,8.070368700000000217e+02
3.550000000000000000e+02,8.072843000000000302e+02
3.560000000000000000e+02,8.075277099999999564e+02
3.570000000000000000e+02,8.077717900000000100e+02
3.580000000000000000e+02,8.080103100000000040e+02
3.590000000000000000e+02,8.082515899999999647e+02
3.600000000000000000e+02,8.084882199999999557e+02
3.610000000000000000e+02,8.087222299999999677e+02
3.620000000000000000e+02,8.089579499999999825e+02
3.630000000000000000e+02,8.091870099999999866e+02
3.640000000000000000e+02,8.094179699999999684e+02
3.650000000000000000e+02,8.096469700000000103e+02
3.660000000000000000e+02,8.098726799999999457e+02
3.670000000000000000e+02,8.100979599999999436e+02
3.680000000000000000e+02,8.103195200000000114e+02
3.690000000000000000e+02,8.105425999999999931e+02
3.700000000000000000e+02,8.107594000000000278e+02
3.710000000000000000e+02,8.109798600000000306e+02
3.720000000000000000e+02,8.111931799999999839e+02
3.730000000000000000e+02,8.114088699999999790e+02
3.740000000000000000e+02,8.116213400000000320e+02
3.750000000000000000e+02,8.118320899999999938e+02
3.760000000000000000e+02,8.120418700000000172e+02
3.770000000000000000e+02,8.122481099999999969e+02
3.780000000000000000e+02,8.124559900000000425e+02
3.790000000000000000e+02,8.126578399999999647e+02
3.800000000000000000e+02,8.128632199999999557e+02
3.810000000000000000e+02,8.130618299999999863e+02
3.820000000000000000e+02,8.132631800000000339e+02
3.830000000000000000e+02,8.134596599999999853e+02
3.840000000000000000e+02,8.136580199999999650e+02
3.850000000000000000e+02,8.138497899999999845e+02
3.860000000000000000e+02,8.140465699999999742e+02
3.870000000000000000e+02,8.142347999999999502e+02
3.880000000000000000e+02,8.144282799999999725e+02
3.890000000000000000e+02,8.146137700000000450e+02
3.900000000000000000e+02,8.148038299999999481e+02
3.910000000000000000e+02,8.149866299999999910e+02
3.920000000000000000e+02,8.151736499999999523e+02
3.930000000000000000e+02,8.153537000000000035e+02
3.940000000000000000e+02,8.155373499999999467e+02
3.950000000000000000e+02,8.157155199999999695e+02
3.960000000000000000e+02,8.158938600000000179e+02
3.970000000000000000e+02,8.160705000000000382e+02
3.980000000000000000e+02,8.162458500000000186e+02
3.990000000000000000e+02,8.164205899999999474e+02
