# Time [s], Convective Heat Transfer Coefficient [W/m2K]
1.000000000000000000e+00,0.000000000000000000e+00
2.000000000000000000e+00,0.000000000000000000e+00
3.000000000000000000e+00,0.000000000000000000e+00
4.000000000000000000e+00,0.000000000000000000e+00
5.000000000000000000e+00,1.915079995362458862e-02
6.000000000000000000e+00,2.762023300960968902e-02
7.000000000000000000e+00,4.322677809297574558e-02
8.000000000000000000e+00,6.549481457711230081e-02
9.000000000000000000e+00,9.379928805020416871e-02
1.000000000000000000e+01,1.281305023179742930e-01
1.100000000000000000e+01,1.687351727284851499e-01
1.200000000000000000e+01,2.148736058975775909e-01
1.300000000000000000e+01,2.660434214830055266e-01
1.400000000000000000e+01,3.215607288499120475e-01
1.500000000000000000e+01,3.807524291492136448e-01
1.600000000000000000e+01,4.429940551595647480e-01
1.700000000000000000e+01,5.076631765613260905e-01
1.800000000000000000e+01,5.742436929047268768e-01
1.900000000000000000e+01,6.422570727611611741e-01
2.000000000000000000e+01,7.113155079680281156e-01
2.100000000000000000e+01,7.810771548672580389e-01
2.200000000000000000e+01,8.512516975403622288e-01
2.300000000000000000e+01,9.215998551231113778e-01
2.400000000000000000e+01,9.919107170772465398e-01
2.500000000000000000e+01,1.062020318884712600e+00
2.600000000000000000e+01,1.131787474092774470e+00
2.700000000000000000e+01,1.201092189751555184e+00
2.800000000000000000e+01,1.269843612039165182e+00
2.900000000000000000e+01,1.337962367387420137e+00
3.000000000000000000e+01,1.405387365918736142e+00
3.100000000000000000e+01,1.472069496403808797e+00
3.200000000000000000e+01,1.537968484210885389e+00
3.300000000000000000e+01,1.603055661551172628e+00
3.400000000000000000e+01,1.667307925001076718e+00
3.500000000000000000e+01,1.730710541915303713e+00
3.600000000000000000e+01,1.793252063122593443e+00
3.700000000000000000e+01,1.854928166315223947e+00
3.800000000000000000e+01,1.915734729330957675e+00
3.900000000000000000e+01,1.975675860046485877e+00
4.000000000000000000e+01,2.034751917649805009e+00
4.100000000000000000e+01,2.092971155344927947e+00
4.200000000000000000e+01,2.150341024230848941e+00
4.300000000000000000e+01,2.206868781148099590e+00
4.400000000000000000e+01,2.262567883246280775e+00
4.500000000000000000e+01,2.317447123538761922e+00
4.600000000000000000e+01,2.371519954633875660e+00
4.700000000000000000e+01,2.424799672056906275e+00
4.800000000000000000e+01,2.477297133867004231e+00
4.900000000000000000e+01,2.529028014682954684e+00
5.000000000000000000e+01,2.580006241148293800e+00
5.100000000000000000e+01,2.630244327390255155e+00
5.200000000000000000e+01,2.679756911421355525e+00
5.300000000000000000e+01,2.728558047760158534e+00
5.400000000000000000e+01,2.776661491174818863e+00
5.500000000000000000e+01,2.824081225739798473e+00
5.600000000000000000e+01,2.870831472444424382e+00
5.700000000000000000e+01,2.916925463152010067e+00
5.800000000000000000e+01,2.962376711840495780e+00
5.900000000000000000e+01,3.007197347783565622e+00
6.000000000000000000e+01,3.051401644206932939e+00
6.100000000000000000e+01,3.095001627186880544e+00
6.200000000000000000e+01,3.138008992654401919e+00
6.300000000000000000e+01,3.180437879796180312e+00
6.400000000000000000e+01,3.222299551870659418e+00
6.500000000000000000e+01,3.263605686410730566e+00
6.600000000000000000e+01,3.304367645816423948e+00
6.700000000000000000e+01,3.344596797065739313e+00
6.800000000000000000e+01,3.384303766884347198e+00
6.900000000000000000e+01,3.423499998145135059e+00
7.000000000000000000e+01,3.462195779974753584e+00
7.100000000000000000e+01,3.500400734062690589e+00
7.200000000000000000e+01,3.538125455785133155e+00
7.300000000000000000e+01,3.575379747278881748e+00
7.400000000000000000e+01,3.612173130864626547e+00
7.500000000000000000e+01,3.648514422825611447e+00
7.600000000000000000e+01,3.684413599830140384e+00
7.700000000000000000e+01,3.719878546840629241e+00
7.800000000000000000e+01,3.754918064085442708e+00
7.900000000000000000e+01,3.789540714084434381e+00
8.000000000000000000e+01,3.823754594044606936e+00
8.100000000000000000e+01,3.857567919349985885e+00
8.200000000000000000e+01,3.890988078465103417e+00
8.300000000000000000e+01,3.924022988339158413e+00
8.400000000000000000e+01,3.956679773797351363e+00
8.500000000000000000e+01,3.988966665500478737e+00
8.600000000000000000e+01,4.020889504590853925e+00
8.700000000000000000e+01,4.052455488367908032e+00
8.800000000000000000e+01,4.083671237445019919e+00
8.900000000000000000e+01,4.114543457837980256e+00
9.000000000000000000e+01,4.145078522714594982e+00
9.100000000000000000e+01,4.175282426481062181e+00
9.200000000000000000e+01,4.205161338621366873e+00
9.300000000000000000e+01,4.234721197440734386e+00
9.400000000000000000e+01,4.263968625235106558e+00
9.500000000000000000e+01,4.292908657312475285e+00
9.600000000000000000e+01,4.321546412580434371e+00
9.700000000000000000e+01,4.349887210067467258e+00
9.800000000000000000e+01,4.377936371400761750e+00
9.900000000000000000e+01,4.405699219438257153e+00
1.000000000000000000e+02,4.433180838930637968e+00
1.010000000000000000e+02,4.460387090432680779e+00
1.020000000000000000e+02,4.487321365694090680e+00
1.030000000000000000e+02,4.513988352160509976e+00
1.040000000000000000e+02,4.540392593768213025e+00
1.050000000000000000e+02,4.566538891553080681e+00
1.060000000000000000e+02,4.592431289651779380e+00
1.070000000000000000e+02,4.618074928319224171e+00
1.080000000000000000e+02,4.643474246368811009e+00
1.090000000000000000e+02,4.668631622598168995e+00
1.100000000000000000e+02,4.693551576402992254e+00
1.110000000000000000e+02,4.718238183730927737e+00
1.120000000000000000e+02,4.742695360193013521e+00
1.130000000000000000e+02,4.766927178256564979e+00
1.140000000000000000e+02,4.790937349381489518e+00
1.150000000000000000e+02,4.814728080487049588e+00
1.160000000000000000e+02,4.838303547518290948e+00
1.170000000000000000e+02,4.861667175603143320e+00
1.180000000000000000e+02,4.884822410741563203e+00
1.190000000000000000e+02,4.907773302098087598e+00
1.200000000000000000e+02,4.930522066698832973e+00
1.210000000000000000e+02,4.953071511103424918e+00
1.220000000000000000e+02,4.975424910133772194e+00
1.230000000000000000e+02,4.997585470587631029e+00
1.240000000000000000e+02,5.019556380872981727e+00
1.250000000000000000e+02,5.041340812011048556e+00
1.260000000000000000e+02,5.062940685596499790e+00
1.270000000000000000e+02,5.084358673751727231e+00
1.280000000000000000e+02,5.105597898369874876e+00
1.290000000000000000e+02,5.126661022026899772e+00
1.300000000000000000e+02,5.147550797031805736e+00
1.310000000000000000e+02,5.168269886712933747e+00
1.320000000000000000e+02,5.188819825682087661e+00
1.330000000000000000e+02,5.209203350480521522e+00
1.340000000000000000e+02,5.229423026086257309e+00
1.350000000000000000e+02,5.249481720002978413e+00
1.360000000000000000e+02,5.269381537116558434e+00
1.370000000000000000e+02,5.289124183209609420e+00
1.380000000000000000e+02,5.308711976659763465e+00
1.390000000000000000e+02,5.328146836529546349e+00
1.400000000000000000e+02,5.347431279648727553e+00
1.410000000000000000e+02,5.366567383297057958e+00
1.420000000000000000e+02,5.385557809961662556e+00
1.430000000000000000e+02,5.404403622889000225e+00
1.440000000000000000e+02,5.423106769464117072e+00
1.450000000000000000e+02,5.441669418504163858e+00
1.460000000000000000e+02,5.460093128394239770e+00
1.470000000000000000e+02,5.478380505818837065e+00
1.480000000000000000e+02,5.496533311447463710e+00
1.490000000000000000e+02,5.514552603380669993e+00
1.500000000000000000e+02,5.532440328026064336e+00
1.510000000000000000e+02,5.550198341673638680e+00
1.520000000000000000e+02,5.567828149229895551e+00
1.530000000000000000e+02,5.585331853508384015e+00
1.540000000000000000e+02,5.602711167233558776e+00
1.550000000000000000e+02,5.619967202882525825e+00
1.560000000000000000e+02,5.637101043643630405e+00
1.570000000000000000e+02,5.654114916061976359e+00
1.580000000000000000e+02,5.671010044916966031e+00
1.590000000000000000e+02,5.687788238966632548e+00
1.600000000000000000e+02,5.704451298411343352e+00
1.610000000000000000e+02,5.721000121211055500e+00
1.620000000000000000e+02,5.737436115983867602e+00
1.630000000000000000e+02,5.753760126763968863e+00
1.640000000000000000e+02,5.769974031220255206e+00
1.650000000000000000e+02,5.786079243379499637e+00
1.660000000000000000e+02,5.802076935267330704e+00
1.670000000000000000e+02,5.817968977397329766e+00
1.680000000000000000e+02,5.833756028181666942e+00
1.690000000000000000e+02,5.849439585143912268e+00
1.700000000000000000e+02,5.865020261111506095e+00
1.710000000000000000e+02,5.880499703334440831e+00
1.720000000000000000e+02,5.895879118482793224e+00
1.730000000000000000e+02,5.911159518727989948e+00
1.740000000000000000e+02,5.926342526750493889e+00
1.750000000000000000e+02,5.941428868085928627e+00
1.760000000000000000e+02,5.956419647652228200e+00
1.770000000000000000e+02,5.971316012020770003e+00
1.780000000000000000e+02,5.986118789139348806e+00
1.790000000000000000e+02,6.000829081378734386e+00
1.800000000000000000e+02,6.015448129520107656e+00
1.810000000000000000e+02,6.029976794416588959e+00
1.820000000000000000e+02,6.044416719646577896e+00
1.830000000000000000e+02,6.058768048935556649e+00
1.840000000000000000e+02,6.073032064169604283e+00
1.850000000000000000e+02,6.087209642452339864e+00
1.860000000000000000e+02,6.101301580038510863e+00
1.870000000000000000e+02,6.115309126385347405e+00
1.880000000000000000e+02,6.129232852163658762e+00
1.890000000000000000e+02,6.143073936474516827e+00
1.900000000000000000e+02,6.156833381255380822e+00
1.910000000000000000e+02,6.170511400433306370e+00
1.920000000000000000e+02,6.184109702421943133e+00
1.930000000000000000e+02,6.197628440396637295e+00
1.940000000000000000e+02,6.211068795036149837e+00
1.950000000000000000e+02,6.224431411526616387e+00
1.960000000000000000e+02,6.237717133129332403e+00
1.970000000000000000e+02,6.250926637535431318e+00
1.980000000000000000e+02,6.264060738733830291e+00
1.990000000000000000e+02,6.277120503059739676e+00
2.000000000000000000e+02,6.290106504394040954e+00
2.010000000000000000e+02,6.303019335256963451e+00
2.020000000000000000e+02,6.315859987955285249e+00
2.030000000000000000e+02,6.328628794372755273e+00
2.040000000000000000e+02,6.341326749245354222e+00
2.050000000000000000e+02,6.353954569164253385e+00
2.060000000000000000e+02,6.366512784792043966e+00
2.070000000000000000e+02,6.379002118533075638e+00
2.080000000000000000e+02,6.391423280248632821e+00
2.090000000000000000e+02,6.403776767736402142e+00
2.100000000000000000e+02,6.416063439566919158e+00
2.110000000000000000e+02,6.428283941693567094e+00
2.120000000000000000e+02,6.440438965528676896e+00
2.130000000000000000e+02,6.452528881634582270e+00
2.140000000000000000e+02,6.464554333975443434e+00
2.150000000000000000e+02,6.476515955805518310e+00
2.160000000000000000e+02,6.488414369912615776e+00
2.170000000000000000e+02,6.500250188854534983e+00
2.180000000000000000e+02,6.512024015188718096e+00
2.190000000000000000e+02,6.523736441695390020e+00
2.200000000000000000e+02,6.535387777521038721e+00
2.210000000000000000e+02,6.546978872548349315e+00
2.220000000000000000e+02,6.558510291472322784e+00
2.230000000000000000e+02,6.569982318848247793e+00
2.240000000000000000e+02,6.581396045003670814e+00
2.250000000000000000e+02,6.592751197580549061e+00
2.260000000000000000e+02,6.604048580562512427e+00
2.270000000000000000e+02,6.615288718481377117e+00
2.280000000000000000e+02,6.626472394377135977e+00
2.290000000000000000e+02,6.637599848410294712e+00
2.300000000000000000e+02,6.648671581398152064e+00
2.310000000000000000e+02,6.659687822634085208e+00
2.320000000000000000e+02,6.670649586662811714e+00
2.330000000000000000e+02,6.681557087197110611e+00
2.340000000000000000e+02,6.692410795635612253e+00
2.350000000000000000e+02,6.703210915872893416e+00
2.360000000000000000e+02,6.713958167672267052e+00
2.370000000000000000e+02,6.724653001880951386e+00
2.380000000000000000e+02,6.735296120822498622e+00
2.390000000000000000e+02,6.745887445436187235e+00
2.400000000000000000e+02,6.756427409679677254e+00
2.410000000000000000e+02,6.766916952556699449e+00
2.420000000000000000e+02,6.777356236107575427e+00
2.430000000000000000e+02,6.787745165514780687e+00
2.440000000000000000e+02,6.798085166110502620e+00
2.450000000000000000e+02,6.808375877429960532e+00
2.460000000000000000e+02,6.818617949689900648e+00
2.470000000000000000e+02,6.828811773530726548e+00
2.480000000000000000e+02,6.838957483911718427e+00
2.490000000000000000e+02,6.849055462989373844e+00
2.500000000000000000e+02,6.859106834123497975e+00
2.510000000000000000e+02,6.869110970216373069e+00
2.520000000000000000e+02,6.879068734957192177e+00
2.530000000000000000e+02,6.888980488032938609e+00
2.540000000000000000e+02,6.898846584307791296e+00
2.550000000000000000e+02,6.908667373911278276e+00
2.560000000000000000e+02,6.918442957760274403e+00
2.570000000000000000e+02,6.928174166586194893e+00
2.580000000000000000e+02,6.937861091566781546e+00
2.590000000000000000e+02,6.947503579689756847e+00
2.600000000000000000e+02,6.957102688237978505e+00
2.610000000000000000e+02,6.966658497459659038e+00
2.620000000000000000e+02,6.976171567161933318e+00
2.630000000000000000e+02,6.985641490920577290e+00
2.640000000000000000e+02,6.995069301484688751e+00
2.650000000000000000e+02,7.004455065513701228e+00
2.660000000000000000e+02,7.013799324271812630e+00
2.670000000000000000e+02,7.023102138023534557e+00
2.680000000000000000e+02,7.032363565808434913e+00
2.690000000000000000e+02,7.041584609793269500e+00
2.700000000000000000e+02,7.050764848287795594e+00
2.710000000000000000e+02,7.059905037714524489e+00
2.720000000000000000e+02,7.069005223352254674e+00
2.730000000000000000e+02,7.078065916773832456e+00
2.740000000000000000e+02,7.087086924592755466e+00
2.750000000000000000e+02,7.096068752254565126e+00
2.760000000000000000e+02,7.105012131445317181e+00
2.770000000000000000e+02,7.113916860748904725e+00
2.780000000000000000e+02,7.122783432435391582e+00
2.790000000000000000e+02,7.131611873044649386e+00
2.800000000000000000e+02,7.140402437933807356e+00
2.810000000000000000e+02,7.149156066540061083e+00
2.820000000000000000e+02,7.157871860825363974e+00
2.830000000000000000e+02,7.166550982277526849e+00
2.840000000000000000e+02,7.175193671173841992e+00
2.850000000000000000e+02,7.183799484518347711e+00
2.860000000000000000e+02,7.192369340799753985e+00
2.870000000000000000e+02,7.200903472041211728e+00
2.880000000000000000e+02,7.209401657168558408e+00
2.890000000000000000e+02,7.217864350801320938e+00
2.900000000000000000e+02,7.226291778673417099e+00
2.910000000000000000e+02,7.234684387614029433e+00
2.920000000000000000e+02,7.243042173602947997e+00
2.930000000000000000e+02,7.251365132213404507e+00
2.940000000000000000e+02,7.259653924955387083e+00
2.950000000000000000e+02,7.267908763657491278e+00
2.960000000000000000e+02,7.276129857804219725e+00
2.970000000000000000e+02,7.284316973344441948e+00
2.980000000000000000e+02,7.292470758378369666e+00
2.990000000000000000e+02,7.300591415544746887e+00
3.000000000000000000e+02,7.308679145275272404e+00
3.010000000000000000e+02,7.316734145827164859e+00
3.020000000000000000e+02,7.324756613315127396e+00
3.030000000000000000e+02,7.332746306324921193e+00
3.040000000000000000e+02,7.340704071321680679e+00
3.050000000000000000e+02,7.348630096752841290e+00
3.060000000000000000e+02,7.356523920154399931e+00
3.070000000000000000e+02,7.364386593525981795e+00
3.080000000000000000e+02,7.372217867228288313e+00
3.090000000000000000e+02,7.380017923224758469e+00
3.100000000000000000e+02,7.387786941571524046e+00
3.110000000000000000e+02,7.395525100444427125e+00
3.120000000000000000e+02,7.403232576165573953e+00
3.130000000000000000e+02,7.410910182651570643e+00
3.140000000000000000e+02,7.418557025134445482e+00
3.150000000000000000e+02,7.426174126235649098e+00
3.160000000000000000e+02,7.433761228864282700e+00
3.170000000000000000e+02,7.441319134689391213e+00
3.180000000000000000e+02,7.448847161724099664e+00
3.190000000000000000e+02,7.456345896446046062e+00
3.200000000000000000e+02,7.463815079767789129e+00
3.210000000000000000e+02,7.471255712599229604e+00
3.220000000000000000e+02,7.478667322499623182e+00
3.230000000000000000e+02,7.486050693739698225e+00
3.240000000000000000e+02,7.493405561733620601e+00
3.250000000000000000e+02,7.500731871719071187e+00
3.260000000000000000e+02,7.508030192025019645e+00
3.270000000000000000e+02,7.515300671737657368e+00
3.280000000000000000e+02,7.522543044763279951e+00
3.290000000000000000e+02,7.529757872602727886e+00
3.300000000000000000e+02,7.536945300014193272e+00
3.310000000000000000e+02,7.544105470356168297e+00
3.320000000000000000e+02,7.551238730898180762e+00
3.330000000000000000e+02,7.558344811282809772e+00
3.340000000000000000e+02,7.565423647411675390e+00
3.350000000000000000e+02,7.572475991936155282e+00
3.360000000000000000e+02,7.579501776569427918e+00
3.370000000000000000e+02,7.586501340025165518e+00
3.380000000000000000e+02,7.593474612215030284e+00
3.390000000000000000e+02,7.600421725931220784e+00
3.400000000000000000e+02,7.607342812719814162e+00
3.410000000000000000e+02,7.614238204805885424e+00
3.420000000000000000e+02,7.621107828653015837e+00
3.430000000000000000e+02,7.627951812169102119e+00
3.440000000000000000e+02,7.634770482902030864e+00
3.450000000000000000e+02,7.641564165801861819e+00
3.460000000000000000e+02,7.648332382804683860e+00
3.470000000000000000e+02,7.655075857526358440e+00
3.480000000000000000e+02,7.661794510596658725e+00
3.490000000000000000e+02,7.668488262949992418e+00
3.500000000000000000e+02,7.675157433250650918e+00
3.510000000000000000e+02,7.681802536074732402e+00
3.520000000000000000e+02,7.688423092046349439e+00
3.530000000000000000e+02,7.695019613301631978e+00
3.540000000000000000e+02,7.701591818809545131e+00
3.550000000000000000e+02,7.708140020269747872e+00
3.560000000000000000e+02,7.714664723712837180e+00
3.570000000000000000e+02,7.721165842454420947e+00
3.580000000000000000e+02,7.727643290163461742e+00
3.590000000000000000e+02,7.734097176553201614e+00
3.600000000000000000e+02,7.740527805747354329e+00
3.610000000000000000e+02,7.746935284572847635e+00
3.620000000000000000e+02,7.753319913657150231e+00
3.630000000000000000e+02,7.759681408197685926e+00
3.640000000000000000e+02,7.766020261409399161e+00
3.650000000000000000e+02,7.772336187959682618e+00
3.660000000000000000e+02,7.778629484543221118e+00
3.670000000000000000e+02,7.784900638873457623e+00
3.680000000000000000e+02,7.791149171097950799e+00
3.690000000000000000e+02,7.797375759440778431e+00
3.700000000000000000e+02,7.803579924213114971e+00
3.710000000000000000e+02,7.809762148190330322e+00
3.720000000000000000e+02,7.815922527641394169e+00
3.730000000000000000e+02,7.822061158026322403e+00
3.740000000000000000e+02,7.828177942981149329e+00
3.750000000000000000e+02,7.834273358720299285e+00
3.760000000000000000e+02,7.840346926144618145e+00
3.770000000000000000e+02,7.846399499881099970e+00
3.780000000000000000e+02,7.852430790024242491e+00
3.790000000000000000e+02,7.858440887365875760e+00
3.800000000000000000e+02,7.864429881949538625e+00
3.810000000000000000e+02,7.870398052058788174e+00
3.820000000000000000e+02,7.876345296714340805e+00
3.830000000000000000e+02,7.882271703768423343e+00
3.840000000000000000e+02,7.888177924744479874e+00
3.850000000000000000e+02,7.894063104302423639e+00
3.860000000000000000e+02,7.899928267705663032e+00
3.870000000000000000e+02,7.905772935618792019e+00
3.880000000000000000e+02,7.911597192407716861e+00
3.890000000000000000e+02,7.917401495245345977e+00
3.900000000000000000e+02,7.923185739041372244e+00
3.910000000000000000e+02,7.928950191542168291e+00
3.920000000000000000e+02,7.934694560978123867e+00
3.930000000000000000e+02,7.940419299738370462e+00
3.940000000000000000e+02,7.946124115854737546e+00
3.950000000000000000e+02,7.951809644511412145e+00
3.960000000000000000e+02,7.957475592765532291e+00
3.970000000000000000e+02,7.963122407591925800e+00
3.980000000000000000e+02,7.968749795895091914e+00
