# Time [s], Convective Heat Transfer Coefficient [W/m2K]
1.000000000000000000e+00,0.000000000000000000e+00
2.000000000000000000e+00,0.000000000000000000e+00
3.000000000000000000e+00,0.000000000000000000e+00
4.000000000000000000e+00,0.000000000000000000e+00
5.000000000000000000e+00,0.000000000000000000e+00
6.000000000000000000e+00,2.762023300960968902e-02
7.000000000000000000e+00,4.193564748117330210e-02
8.000000000000000000e+00,6.294042979074807032e-02
9.000000000000000000e+00,9.005988047967819488e-02
1.000000000000000000e+01,1.233172998748469779e-01
1.100000000000000000e+01,1.623721307543596615e-01
1.200000000000000000e+01,2.068444003249966523e-01
1.300000000000000000e+01,2.563144703174475292e-01
1.400000000000000000e+01,3.101206098293123326e-01
1.500000000000000000e+01,3.676193581506054242e-01
1.600000000000000000e+01,4.281822600465527984e-01
1.700000000000000000e+01,4.912596192139538354e-01
1.800000000000000000e+01,5.563203933627162145e-01
1.900000000000000000e+01,6.229225812640604154e-01
2.000000000000000000e+01,6.906702799378358071e-01
2.100000000000000000e+01,7.592148691866807964e-01
2.200000000000000000e+01,8.282795100126610910e-01
2.300000000000000000e+01,8.976099930784825487e-01
2.400000000000000000e+01,9.670061866456777233e-01
2.500000000000000000e+01,1.036289592641334023e+00
2.600000000000000000e+01,1.105314501312332442e+00
2.700000000000000000e+01,1.173962049652262696e+00
2.800000000000000000e+01,1.242127229301362101e+00
2.900000000000000000e+01,1.309733216439457282e+00
3.000000000000000000e+01,1.376709762458492303e+00
3.100000000000000000e+01,1.443005069025648845e+00
3.200000000000000000e+01,1.508571541274424943e+00
3.300000000000000000e+01,1.573379297635101315e+00
3.400000000000000000e+01,1.637404421019443612e+00
3.500000000000000000e+01,1.700622549598373778e+00
3.600000000000000000e+01,1.763020374091253117e+00
3.700000000000000000e+01,1.824593381015295446e+00
3.800000000000000000e+01,1.885331033165654535e+00
3.900000000000000000e+01,1.945235641405102189e+00
4.000000000000000000e+01,2.004304730347511221e+00
4.100000000000000000e+01,2.062544989759622194e+00
4.200000000000000000e+01,2.119958891297329284e+00
4.300000000000000000e+01,2.176557332045469639e+00
4.400000000000000000e+01,2.232345324524466434e+00
4.500000000000000000e+01,2.287335650075119187e+00
4.600000000000000000e+01,2.341538958240924728e+00
4.700000000000000000e+01,2.394961552767016055e+00
4.800000000000000000e+01,2.447619983729685256e+00
4.900000000000000000e+01,2.499527524548351032e+00
5.000000000000000000e+01,2.550691217368583619e+00
5.100000000000000000e+01,2.601127441909953042e+00
5.200000000000000000e+01,2.650849051275745882e+00
5.300000000000000000e+01,2.699867634464251154e+00
5.400000000000000000e+01,2.748198886533052665e+00
5.500000000000000000e+01,2.795853720511185081e+00
5.600000000000000000e+01,2.842844888278212245e+00
5.700000000000000000e+01,2.889186179404127586e+00
5.800000000000000000e+01,2.934887694775122569e+00
5.900000000000000000e+01,2.979966740038676232e+00
6.000000000000000000e+01,3.024434039039723743e+00
6.100000000000000000e+01,3.068301196128731423e+00
6.200000000000000000e+01,3.111579311319109031e+00
6.300000000000000000e+01,3.154281234127822575e+00
6.400000000000000000e+01,3.196419341913464329e+00
6.500000000000000000e+01,3.238004219700195918e+00
6.600000000000000000e+01,3.279047785949994687e+00
6.700000000000000000e+01,3.319557679705326780e+00
6.800000000000000000e+01,3.359548627167026957e+00
6.900000000000000000e+01,3.399029740663695787e+00
7.000000000000000000e+01,3.438011466106546621e+00
7.100000000000000000e+01,3.476502991975967571e+00
7.200000000000000000e+01,3.514514923156490056e+00
7.300000000000000000e+01,3.552055958821356718e+00
7.400000000000000000e+01,3.589135707166585032e+00
7.500000000000000000e+01,3.625763064783313006e+00
7.600000000000000000e+01,3.661946971335323653e+00
7.700000000000000000e+01,3.697696478463395220e+00
7.800000000000000000e+01,3.733019635918613854e+00
7.900000000000000000e+01,3.767924480831900347e+00
8.000000000000000000e+01,3.802420486694791713e+00
8.100000000000000000e+01,3.836514292119576730e+00
8.200000000000000000e+01,3.870214003527946645e+00
8.300000000000000000e+01,3.903527295942035291e+00
8.400000000000000000e+01,3.936461065119507552e+00
8.500000000000000000e+01,3.969022525934990053e+00
8.600000000000000000e+01,4.001218230892706451e+00
8.700000000000000000e+01,4.033055197086421906e+00
8.800000000000000000e+01,4.064539803036272936e+00
8.900000000000000000e+01,4.095679019657220366e+00
9.000000000000000000e+01,4.126479193916459565e+00
9.100000000000000000e+01,4.156949410881724205e+00
9.200000000000000000e+01,4.187091679542685796e+00
9.300000000000000000e+01,4.216911765578722715e+00
9.400000000000000000e+01,4.246416330228388603e+00
9.500000000000000000e+01,4.275611010213695273e+00
9.600000000000000000e+01,4.304501495697866886e+00
9.700000000000000000e+01,4.333093774494972905e+00
9.800000000000000000e+01,4.361393680638325776e+00
9.900000000000000000e+01,4.389405566465345743e+00
1.000000000000000000e+02,4.417132214439858373e+00
1.010000000000000000e+02,4.444579732286070950e+00
1.020000000000000000e+02,4.471753134653694950e+00
1.030000000000000000e+02,4.498657796238821227e+00
1.040000000000000000e+02,4.525297886624646715e+00
1.050000000000000000e+02,4.551679660235472547e+00
1.060000000000000000e+02,4.577804745564979072e+00
1.070000000000000000e+02,4.603676922258951087e+00
1.080000000000000000e+02,4.629301727615501072e+00
1.090000000000000000e+02,4.654683010617858940e+00
1.100000000000000000e+02,4.679825588302840345e+00
1.110000000000000000e+02,4.704733766379882276e+00
1.120000000000000000e+02,4.729409063228837695e+00
1.130000000000000000e+02,4.753855636331407730e+00
1.140000000000000000e+02,4.778077584003995071e+00
1.150000000000000000e+02,4.802078897669558089e+00
1.160000000000000000e+02,4.825863517499263011e+00
1.170000000000000000e+02,4.849434986595078989e+00
1.180000000000000000e+02,4.872794005112603521e+00
1.190000000000000000e+02,4.895945499094282560e+00
1.200000000000000000e+02,4.918893004121994927e+00
1.210000000000000000e+02,4.941639736529110039e+00
1.220000000000000000e+02,4.964188940577618503e+00
1.230000000000000000e+02,4.986543510704261273e+00
1.240000000000000000e+02,5.008705027233862239e+00
1.250000000000000000e+02,5.030676866531387681e+00
1.260000000000000000e+02,5.052462655935611835e+00
1.270000000000000000e+02,5.074065444992188922e+00
1.280000000000000000e+02,5.095488090794396463e+00
1.290000000000000000e+02,5.116730896458967948e+00
1.300000000000000000e+02,5.137797569517894125e+00
1.310000000000000000e+02,5.158691212756865596e+00
1.320000000000000000e+02,5.179414654345960045e+00
1.330000000000000000e+02,5.199970285848351637e+00
1.340000000000000000e+02,5.220360380191523930e+00
1.350000000000000000e+02,5.240586243912730424e+00
1.360000000000000000e+02,5.260650453624479361e+00
1.370000000000000000e+02,5.280556010434100500e+00
1.380000000000000000e+02,5.300305616046859569e+00
1.390000000000000000e+02,5.319900898289984248e+00
1.400000000000000000e+02,5.339342573645879497e+00
1.410000000000000000e+02,5.358633741311962240e+00
1.420000000000000000e+02,5.377776803020074325e+00
1.430000000000000000e+02,5.396773809545503120e+00
1.440000000000000000e+02,5.415627071863983844e+00
1.450000000000000000e+02,5.434338438894596557e+00
1.460000000000000000e+02,5.452908053664592636e+00
1.470000000000000000e+02,5.471339181517258510e+00
1.480000000000000000e+02,5.489633366960067207e+00
1.490000000000000000e+02,5.507792574610374636e+00
1.500000000000000000e+02,5.525819942332845791e+00
1.510000000000000000e+02,5.543715325222374979e+00
1.520000000000000000e+02,5.561480055964781677e+00
1.530000000000000000e+02,5.579116521790772332e+00
1.540000000000000000e+02,5.596626786169179191e+00
1.550000000000000000e+02,5.614012004879533890e+00
1.560000000000000000e+02,5.631275296456939472e+00
1.570000000000000000e+02,5.648415995692691816e+00
1.580000000000000000e+02,5.665436077064162745e+00
1.590000000000000000e+02,5.682337066866752551e+00
1.600000000000000000e+02,5.699120777453940079e+00
1.610000000000000000e+02,5.715789012403899250e+00
1.620000000000000000e+02,5.732343460112154787e+00
1.630000000000000000e+02,5.748785272244523625e+00
1.640000000000000000e+02,5.765114480361428484e+00
1.650000000000000000e+02,5.781333039347518188e+00
1.660000000000000000e+02,5.797442753808981664e+00
1.670000000000000000e+02,5.813444936087882375e+00
1.680000000000000000e+02,5.829340833272389943e+00
1.690000000000000000e+02,5.845132485642733577e+00
1.700000000000000000e+02,5.860820013298710052e+00
1.710000000000000000e+02,5.876404074116671872e+00
1.720000000000000000e+02,5.891886658821174017e+00
1.730000000000000000e+02,5.907268573942380918e+00
1.740000000000000000e+02,5.922551708574247620e+00
1.750000000000000000e+02,5.937737114227350510e+00
1.760000000000000000e+02,5.952826578882714159e+00
1.770000000000000000e+02,5.967819880521047615e+00
1.780000000000000000e+02,5.982717780778915362e+00
1.790000000000000000e+02,5.997521479844543535e+00
1.800000000000000000e+02,6.012232670544012336e+00
1.810000000000000000e+02,6.026851850687222623e+00
1.820000000000000000e+02,6.041380821588182570e+00
1.830000000000000000e+02,6.055820550290748727e+00
1.840000000000000000e+02,6.070173095654205042e+00
1.850000000000000000e+02,6.084436839791261598e+00
1.860000000000000000e+02,6.098613623812166651e+00
1.870000000000000000e+02,6.112704689063284569e+00
1.880000000000000000e+02,6.126710410385734384e+00
1.890000000000000000e+02,6.140632488976997649e+00
1.900000000000000000e+02,6.154471233854897250e+00
1.910000000000000000e+02,6.168227808321432803e+00
1.920000000000000000e+02,6.181903904750320145e+00
1.930000000000000000e+02,6.195499506828177516e+00
1.940000000000000000e+02,6.209015568611262914e+00
1.950000000000000000e+02,6.222452239989269884e+00
1.960000000000000000e+02,6.235811171881008086e+00
1.970000000000000000e+02,6.249092786475131334e+00
1.980000000000000000e+02,6.262297646550337049e+00
1.990000000000000000e+02,6.275427106494118057e+00
2.000000000000000000e+02,6.288481519807579190e+00
2.010000000000000000e+02,6.301462647725604604e+00
2.020000000000000000e+02,6.314369872445871223e+00
2.030000000000000000e+02,6.327204485426642933e+00
2.040000000000000000e+02,6.339966998660993447e+00
2.050000000000000000e+02,6.352658436665708841e+00
2.060000000000000000e+02,6.365279517384051289e+00
2.070000000000000000e+02,6.377830543198320434e+00
2.080000000000000000e+02,6.390312469731655121e+00
2.090000000000000000e+02,6.402726007993544854e+00
2.100000000000000000e+02,6.415071714506349387e+00
2.110000000000000000e+02,6.427350107654619116e+00
2.120000000000000000e+02,6.439561724900343620e+00
2.130000000000000000e+02,6.451708078632777621e+00
2.140000000000000000e+02,6.463788976298919131e+00
2.150000000000000000e+02,6.475805064429986935e+00
2.160000000000000000e+02,6.487756978799426477e+00
2.170000000000000000e+02,6.499645898859374604e+00
2.180000000000000000e+02,6.511471329199656211e+00
2.190000000000000000e+02,6.523234706079986900e+00
2.200000000000000000e+02,6.534936347555015068e+00
2.210000000000000000e+02,6.546576839171780904e+00
2.220000000000000000e+02,6.558156484911967787e+00
2.230000000000000000e+02,6.569676125825719026e+00
2.240000000000000000e+02,6.581136319866731199e+00
2.250000000000000000e+02,6.592537616197988726e+00
2.260000000000000000e+02,6.603880555380965411e+00
2.270000000000000000e+02,6.615165134554351845e+00
2.280000000000000000e+02,6.626392682848893045e+00
2.290000000000000000e+02,6.637562916260234758e+00
2.300000000000000000e+02,6.648677142472207535e+00
2.310000000000000000e+02,6.659735067183958357e+00
2.320000000000000000e+02,6.670737714340035929e+00
2.330000000000000000e+02,6.681685044667923457e+00
2.340000000000000000e+02,6.692578063859830451e+00
2.350000000000000000e+02,6.703416721619529284e+00
2.360000000000000000e+02,6.714202265722972740e+00
2.370000000000000000e+02,6.724934374040021368e+00
2.380000000000000000e+02,6.735613759728667382e+00
2.390000000000000000e+02,6.746241126050581904e+00
2.400000000000000000e+02,6.756816910176885571e+00
2.410000000000000000e+02,6.767340776162248162e+00
2.420000000000000000e+02,6.777813665452903535e+00
2.430000000000000000e+02,6.788236507056214286e+00
2.440000000000000000e+02,6.798608951499760522e+00
2.450000000000000000e+02,6.808931662723618494e+00
2.460000000000000000e+02,6.819205044102830016e+00
2.470000000000000000e+02,6.829429744356469101e+00
2.480000000000000000e+02,6.839605903219888816e+00
2.490000000000000000e+02,6.849733907497764562e+00
2.500000000000000000e+02,6.859813889909657902e+00
2.510000000000000000e+02,6.869846973002138313e+00
2.520000000000000000e+02,6.879833028938608486e+00
2.530000000000000000e+02,6.889772177238507211e+00
2.540000000000000000e+02,6.899665027104641801e+00
2.550000000000000000e+02,6.909512180053748232e+00
2.560000000000000000e+02,6.919313496560232757e+00
2.570000000000000000e+02,6.929069813226545804e+00
2.580000000000000000e+02,6.938781227178149713e+00
2.590000000000000000e+02,6.948448318689373515e+00
2.600000000000000000e+02,6.958071419143858627e+00
2.610000000000000000e+02,6.967650373371342631e+00
2.620000000000000000e+02,6.977185989090382456e+00
2.630000000000000000e+02,6.986678584948170290e+00
2.640000000000000000e+02,6.996128236343467144e+00
2.650000000000000000e+02,7.005535255749553158e+00
2.660000000000000000e+02,7.014900189547383036e+00
2.670000000000000000e+02,7.024223340431903218e+00
2.680000000000000000e+02,7.033504534033341749e+00
2.690000000000000000e+02,7.042744305224422519e+00
2.700000000000000000e+02,7.051943418066692892e+00
2.710000000000000000e+02,7.061101923746710085e+00
2.720000000000000000e+02,7.070219872346356738e+00
2.730000000000000000e+02,7.079297546428623633e+00
2.740000000000000000e+02,7.088335924033017932e+00
2.750000000000000000e+02,7.097334345968975278e+00
2.760000000000000000e+02,7.106294013591048397e+00
2.770000000000000000e+02,7.115214497063012011e+00
2.780000000000000000e+02,7.124096523544376502e+00
2.790000000000000000e+02,7.132939892124776193e+00
2.800000000000000000e+02,7.141744632855087538e+00
2.810000000000000000e+02,7.150512148630261855e+00
2.820000000000000000e+02,7.159242001006740352e+00
2.830000000000000000e+02,7.167934438806976338e+00
2.840000000000000000e+02,7.176589935223345762e+00
2.850000000000000000e+02,7.185208051433050080e+00
2.860000000000000000e+02,7.193789935707320282e+00
2.870000000000000000e+02,7.202335596582131849e+00
2.880000000000000000e+02,7.210845267168406458e+00
2.890000000000000000e+02,7.219319177908010587e+00
2.900000000000000000e+02,7.227757556615225454e+00
2.910000000000000000e+02,7.236160404957879599e+00
2.920000000000000000e+02,7.244527947164632664e+00
2.930000000000000000e+02,7.252861072525988995e+00
2.940000000000000000e+02,7.261159551625475217e+00
2.950000000000000000e+02,7.269423156696880106e+00
2.960000000000000000e+02,7.277652766672189522e+00
2.970000000000000000e+02,7.285848149512467842e+00
2.980000000000000000e+02,7.294009514878220912e+00
2.990000000000000000e+02,7.302137948270520873e+00
3.000000000000000000e+02,7.310232772723502137e+00
3.010000000000000000e+02,7.318294628249883083e+00
3.020000000000000000e+02,7.326323712640332886e+00
3.030000000000000000e+02,7.334320003934657883e+00
3.040000000000000000e+02,7.342283914243103560e+00
3.050000000000000000e+02,7.350215418357647579e+00
3.060000000000000000e+02,7.358115139517746428e+00
3.070000000000000000e+02,7.365983047989802301e+00
3.080000000000000000e+02,7.373818898618295314e+00
3.090000000000000000e+02,7.381623307272650258e+00
3.100000000000000000e+02,7.389396669857037026e+00
3.110000000000000000e+02,7.397139164645495590e+00
3.120000000000000000e+02,7.404850327588066605e+00
3.130000000000000000e+02,7.412530976397348148e+00
3.140000000000000000e+02,7.420181496440789282e+00
3.150000000000000000e+02,7.427801208702020652e+00
3.160000000000000000e+02,7.435391345012457798e+00
3.170000000000000000e+02,7.442951225035766782e+00
3.180000000000000000e+02,7.450481228010909618e+00
3.190000000000000000e+02,7.457981729763978329e+00
3.200000000000000000e+02,7.465453102761139270e+00
3.210000000000000000e+02,7.472894877682382031e+00
3.220000000000000000e+02,7.480307843820365399e+00
3.230000000000000000e+02,7.487691739933727497e+00
3.240000000000000000e+02,7.495047140033933353e+00
3.250000000000000000e+02,7.502374197361316277e+00
3.260000000000000000e+02,7.509672856073206226e+00
3.270000000000000000e+02,7.516942853270686342e+00
3.280000000000000000e+02,7.524185375155874489e+00
3.290000000000000000e+02,7.531399741132091208e+00
3.300000000000000000e+02,7.538586305405312160e+00
3.310000000000000000e+02,7.545745419173019108e+00
3.320000000000000000e+02,7.552877020262230623e+00
3.330000000000000000e+02,7.559981865936364009e+00
3.340000000000000000e+02,7.567059276443510285e+00
3.350000000000000000e+02,7.574109801134371267e+00
3.360000000000000000e+02,7.581133781304670194e+00
3.370000000000000000e+02,7.588130538934684033e+00
3.380000000000000000e+02,7.595101227049966042e+00
3.390000000000000000e+02,7.602045774600537875e+00
3.400000000000000000e+02,7.608964312969053623e+00
3.410000000000000000e+02,7.615856568662628945e+00
3.420000000000000000e+02,7.622723075723711439e+00
3.430000000000000000e+02,7.629563358584726451e+00
3.440000000000000000e+02,7.636378349983023561e+00
3.450000000000000000e+02,7.643167973823778993e+00
3.460000000000000000e+02,7.649932554348626290e+00
3.470000000000000000e+02,7.656671614541597393e+00
3.480000000000000000e+02,7.663385876439290811e+00
3.490000000000000000e+02,7.670075260848473242e+00
3.500000000000000000e+02,7.676739688872679324e+00
3.510000000000000000e+02,7.683379478487407432e+00
3.520000000000000000e+02,7.689994945219871703e+00
3.530000000000000000e+02,7.696586402183399400e+00
3.540000000000000000e+02,7.703153173735386439e+00
3.550000000000000000e+02,7.709695770223192746e+00
3.560000000000000000e+02,7.716214501679591997e+00
3.570000000000000000e+02,7.722709479529203058e+00
3.580000000000000000e+02,7.729181010160999676e+00
3.590000000000000000e+02,7.735628810818298007e+00
3.600000000000000000e+02,7.742052990986682204e+00
3.610000000000000000e+02,7.748453854164881527e+00
3.620000000000000000e+02,7.754831312309269364e+00
3.630000000000000000e+02,7.761185860730790864e+00
3.640000000000000000e+02,7.767517603239375568e+00
3.650000000000000000e+02,7.773826449045296627e+00
3.660000000000000000e+02,7.780112501117248058e+00
3.670000000000000000e+02,7.786375861537973897e+00
3.680000000000000000e+02,7.792616631514415637e+00
3.690000000000000000e+02,7.798835681244604245e+00
3.700000000000000000e+02,7.805031953595629624e+00
3.710000000000000000e+02,7.811205932760348247e+00
3.720000000000000000e+02,7.817357908105019959e+00
3.730000000000000000e+02,7.823488166968283863e+00
3.740000000000000000e+02,7.829596803733232413e+00
3.750000000000000000e+02,7.835683340020103138e+00
3.760000000000000000e+02,7.841748442388698059e+00
3.770000000000000000e+02,7.847791632657643568e+00
3.780000000000000000e+02,7.853813953612605481e+00
3.790000000000000000e+02,7.859815115035945432e+00
3.800000000000000000e+02,7.865794828289091711e+00
3.810000000000000000e+02,7.871753561947194555e+00
3.820000000000000000e+02,7.877691027037599270e+00
3.830000000000000000e+02,7.883608066214866206e+00
3.840000000000000000e+02,7.889504200436763703e+00
3.850000000000000000e+02,7.895379516690901767e+00
3.860000000000000000e+02,7.901234476273130802e+00
3.870000000000000000e+02,7.907068975872503458e+00
3.880000000000000000e+02,7.912883099560915845e+00
3.890000000000000000e+02,7.918676744051664329e+00
3.900000000000000000e+02,7.924450552120558378e+00
3.910000000000000000e+02,7.930204231925598535e+00
3.920000000000000000e+02,7.935938050754278272e+00
3.930000000000000000e+02,7.941651717364271335e+00
3.940000000000000000e+02,7.947345868699959404e+00
3.950000000000000000e+02,7.953020212520153009e+00
3.960000000000000000e+02,7.958674827699098842e+00
3.970000000000000000e+02,7.964310346138753438e+00
3.980000000000000000e+02,7.969926290268632307e+00
