# Time [s], Convective Heat Transfer Coefficient [W/m2K]
1.000000000000000000e+00,0.000000000000000000e+00
2.000000000000000000e+00,0.000000000000000000e+00
3.000000000000000000e+00,0.000000000000000000e+00
4.000000000000000000e+00,0.000000000000000000e+00
5.000000000000000000e+00,2.762023300960968902e-02
6.000000000000000000e+00,4.924209937913938406e-02
7.000000000000000000e+00,7.911338352345732849e-02
8.000000000000000000e+00,1.196695143663641242e-01
9.000000000000000000e+00,1.712866303924881761e-01
1.000000000000000000e+01,2.341170818860906500e-01
1.100000000000000000e+01,3.079757772595942411e-01
1.200000000000000000e+01,3.919428543658261543e-01
1.300000000000000000e+01,4.850006655859295246e-01
1.400000000000000000e+01,5.859455051499824485e-01
1.500000000000000000e+01,6.935465989829789901e-01
1.600000000000000000e+01,8.066322119321363004e-01
1.700000000000000000e+01,9.241261281445235509e-01
1.800000000000000000e+01,1.045067344640621787e+00
1.900000000000000000e+01,1.168618101443451351e+00
2.000000000000000000e+01,1.294045166899667088e+00
2.100000000000000000e+01,1.420728443170665711e+00
2.200000000000000000e+01,1.548143404306819626e+00
2.300000000000000000e+01,1.675841415532997702e+00
2.400000000000000000e+01,1.803447017915966066e+00
2.500000000000000000e+01,1.930645307450008508e+00
2.600000000000000000e+01,2.057179518777666694e+00
2.700000000000000000e+01,2.182828877129881384e+00
2.800000000000000000e+01,2.307413905419263944e+00
2.900000000000000000e+01,2.430790325492133697e+00
3.000000000000000000e+01,2.552837007497206656e+00
3.100000000000000000e+01,2.673460637596573264e+00
3.200000000000000000e+01,2.792584797057627188e+00
3.300000000000000000e+01,2.910150516696151435e+00
3.400000000000000000e+01,3.026116854631755615e+00
3.500000000000000000e+01,3.140452764168478073e+00
3.600000000000000000e+01,3.253139173297282305e+00
3.700000000000000000e+01,3.364162647789529448e+00
3.800000000000000000e+01,3.473520965889747902e+00
3.900000000000000000e+01,3.581216112943359509e+00
4.000000000000000000e+01,3.687253558824726607e+00
4.100000000000000000e+01,3.791644094947680177e+00
4.200000000000000000e+01,3.894403303017250906e+00
4.300000000000000000e+01,3.995548298284589794e+00
4.400000000000000000e+01,4.095094283373092559e+00
4.500000000000000000e+01,4.193064988693653738e+00
4.600000000000000000e+01,4.289479684073711496e+00
4.700000000000000000e+01,4.384362269200152262e+00
4.800000000000000000e+01,4.477735716917553788e+00
4.900000000000000000e+01,4.569623793396785594e+00
5.000000000000000000e+01,4.660049601859251212e+00
5.100000000000000000e+01,4.749037530688713815e+00
5.200000000000000000e+01,4.836612649287784116e+00
5.300000000000000000e+01,4.922796670327571178e+00
5.400000000000000000e+01,5.007613797224403029e+00
5.500000000000000000e+01,5.091087588208255355e+00
5.600000000000000000e+01,5.173241312296174677e+00
5.700000000000000000e+01,5.254096301773204303e+00
5.800000000000000000e+01,5.333675711113857965e+00
5.900000000000000000e+01,5.412000962949316651e+00
6.000000000000000000e+01,5.489095131954622175e+00
6.100000000000000000e+01,5.564978944757262624e+00
6.200000000000000000e+01,5.639673199127884118e+00
6.300000000000000000e+01,5.713198486171771506e+00
6.400000000000000000e+01,5.785574715978437865e+00
6.500000000000000000e+01,5.856823072819665299e+00
6.600000000000000000e+01,5.926962400907411777e+00
6.700000000000000000e+01,5.996014233764949353e+00
6.800000000000000000e+01,6.063999194101854506e+00
6.900000000000000000e+01,6.130934525130069979e+00
7.000000000000000000e+01,6.196841053001636901e+00
7.100000000000000000e+01,6.261738956837029413e+00
7.200000000000000000e+01,6.325646281347718336e+00
7.300000000000000000e+01,6.388582502738941571e+00
7.400000000000000000e+01,6.450567774764117246e+00
7.500000000000000000e+01,6.511620138503141142e+00
7.600000000000000000e+01,6.571759790003935287e+00
7.700000000000000000e+01,6.631004265862614488e+00
7.800000000000000000e+01,6.689373684774227335e+00
7.900000000000000000e+01,6.746885629678584628e+00
8.000000000000000000e+01,6.803559396537407267e+00
8.100000000000000000e+01,6.859412612588925207e+00
8.200000000000000000e+01,6.914461853322280582e+00
8.300000000000000000e+01,6.968726093577609859e+00
8.400000000000000000e+01,7.022220823373847232e+00
8.500000000000000000e+01,7.074964152218552904e+00
8.600000000000000000e+01,7.126971314730269569e+00
8.700000000000000000e+01,7.178257374592589279e+00
8.800000000000000000e+01,7.228838803095047894e+00
8.900000000000000000e+01,7.278729405109755746e+00
9.000000000000000000e+01,7.327945076818000558e+00
9.100000000000000000e+01,7.376498289828160360e+00
9.200000000000000000e+01,7.424402348605025459e+00
9.300000000000000000e+01,7.471671337728686524e+00
9.400000000000000000e+01,7.518316761211256249e+00
9.500000000000000000e+01,7.564352406688414021e+00
9.600000000000000000e+01,7.609789156360649898e+00
9.700000000000000000e+01,7.654638755693365049e+00
9.800000000000000000e+01,7.698913764764772516e+00
9.900000000000000000e+01,7.742624194748385591e+00
1.000000000000000000e+02,7.785782672551983197e+00
1.010000000000000000e+02,7.828397996542650006e+00
1.020000000000000000e+02,7.870481580384040221e+00
1.030000000000000000e+02,7.912042828906885816e+00
1.040000000000000000e+02,7.953092390712667381e+00
1.050000000000000000e+02,7.993639898578695835e+00
1.060000000000000000e+02,8.033694385530324666e+00
1.070000000000000000e+02,8.073265394019387031e+00
1.080000000000000000e+02,8.112362241914690131e+00
1.090000000000000000e+02,8.150992449863776912e+00
1.100000000000000000e+02,8.189165492965274851e+00
1.110000000000000000e+02,8.226888215852117270e+00
1.120000000000000000e+02,8.264169924475130102e+00
1.130000000000000000e+02,8.301016332408158505e+00
1.140000000000000000e+02,8.337436119517553479e+00
1.150000000000000000e+02,8.373436631487853887e+00
1.160000000000000000e+02,8.409024269872206858e+00
1.170000000000000000e+02,8.444205682398825630e+00
1.180000000000000000e+02,8.478988731217217634e+00
1.190000000000000000e+02,8.513378569237429971e+00
1.200000000000000000e+02,8.547381755801692904e+00
1.210000000000000000e+02,8.581005248677890052e+00
1.220000000000000000e+02,8.614254497406049538e+00
1.230000000000000000e+02,8.647135224621251837e+00
1.240000000000000000e+02,8.679653417034955964e+00
1.250000000000000000e+02,8.711815317094290023e+00
1.260000000000000000e+02,8.743626649676500051e+00
1.270000000000000000e+02,8.775091730222575492e+00
1.280000000000000000e+02,8.806215780200872700e+00
1.290000000000000000e+02,8.837004146906149771e+00
1.300000000000000000e+02,8.867461704963954361e+00
1.310000000000000000e+02,8.897593465162866977e+00
1.320000000000000000e+02,8.927404277341986827e+00
1.330000000000000000e+02,8.956898399217870121e+00
1.340000000000000000e+02,8.986080386602472103e+00
1.350000000000000000e+02,9.014954364630000327e+00
1.360000000000000000e+02,9.043524471855016955e+00
1.370000000000000000e+02,9.071794718533627844e+00
1.380000000000000000e+02,9.099768991526426376e+00
1.390000000000000000e+02,9.127451058959646701e+00
1.400000000000000000e+02,9.154844854001595422e+00
1.410000000000000000e+02,9.181953915455137505e+00
1.420000000000000000e+02,9.208782090367401807e+00
1.430000000000000000e+02,9.235332839722627085e+00
1.440000000000000000e+02,9.261609659714352460e+00
1.450000000000000000e+02,9.287616081533334622e+00
1.460000000000000000e+02,9.313355131370672169e+00
1.470000000000000000e+02,9.338830687221523874e+00
1.480000000000000000e+02,9.364045587601019349e+00
1.490000000000000000e+02,9.389002988037127295e+00
1.500000000000000000e+02,9.413706221239111827e+00
1.510000000000000000e+02,9.438157873337310377e+00
1.520000000000000000e+02,9.462361764849296364e+00
1.530000000000000000e+02,9.486320058263292054e+00
1.540000000000000000e+02,9.510035630113415905e+00
1.550000000000000000e+02,9.533511667386063593e+00
1.560000000000000000e+02,9.556750122566249672e+00
1.570000000000000000e+02,9.579754805346302859e+00
1.580000000000000000e+02,9.602527403437981945e+00
1.590000000000000000e+02,9.625070313075152484e+00
1.600000000000000000e+02,9.647385993999012754e+00
1.610000000000000000e+02,9.669476592897249034e+00
1.620000000000000000e+02,9.691344698788141088e+00
1.630000000000000000e+02,9.712991596456596710e+00
1.640000000000000000e+02,9.734420137003837681e+00
1.650000000000000000e+02,9.755630891004607008e+00
1.660000000000000000e+02,9.776626239626104109e+00
1.670000000000000000e+02,9.797407409315242788e+00
1.680000000000000000e+02,9.817976560979799316e+00
1.690000000000000000e+02,9.838334110140854349e+00
1.700000000000000000e+02,9.858481292366404247e+00
1.710000000000000000e+02,9.878419546801966433e+00
1.720000000000000000e+02,9.898149556410073657e+00
1.730000000000000000e+02,9.917671858121623885e+00
1.740000000000000000e+02,9.936987438391016170e+00
1.750000000000000000e+02,9.956096661649169732e+00
1.760000000000000000e+02,9.975000340994697012e+00
1.770000000000000000e+02,9.993698909230634086e+00
1.780000000000000000e+02,1.001219195881688684e+01
1.790000000000000000e+02,1.003048058408818122e+01
1.800000000000000000e+02,1.004856433966080864e+01
1.810000000000000000e+02,1.006644346278229207e+01
1.820000000000000000e+02,1.008411794007789553e+01
1.830000000000000000e+02,1.010158716758919795e+01
1.840000000000000000e+02,1.011885213282456775e+01
1.850000000000000000e+02,1.013591162748668495e+01
1.860000000000000000e+02,1.015276557738264707e+01
1.870000000000000000e+02,1.016941309897171308e+01
1.880000000000000000e+02,1.018585454308030691e+01
1.890000000000000000e+02,1.020208922538870056e+01
1.900000000000000000e+02,1.021811611527453323e+01
1.910000000000000000e+02,1.023393451133899390e+01
1.920000000000000000e+02,1.024954437012012676e+01
1.930000000000000000e+02,1.026494451825471010e+01
1.940000000000000000e+02,1.028013421969729890e+01
1.950000000000000000e+02,1.029511272696336022e+01
1.960000000000000000e+02,1.030987939096366013e+01
1.970000000000000000e+02,1.032443321988016471e+01
1.980000000000000000e+02,1.033877343106332880e+01
1.990000000000000000e+02,1.035289966605825107e+01
2.000000000000000000e+02,1.036681056844323123e+01
2.010000000000000000e+02,1.038050618665825553e+01
2.020000000000000000e+02,1.039398524625333842e+01
2.030000000000000000e+02,1.040724776045379940e+01
2.040000000000000000e+02,1.042029285723499576e+01
2.050000000000000000e+02,1.043312008054660467e+01
2.060000000000000000e+02,1.044572981392205513e+01
2.070000000000000000e+02,1.045812166475574756e+01
2.080000000000000000e+02,1.047029490042879196e+01
2.090000000000000000e+02,1.048225111529679943e+01
2.100000000000000000e+02,1.049398920819070113e+01
2.110000000000000000e+02,1.050551060964846961e+01
2.120000000000000000e+02,1.051681544397599843e+01
2.130000000000000000e+02,1.052790497255037394e+01
2.140000000000000000e+02,1.053878042262975434e+01
2.150000000000000000e+02,1.054944256730768259e+01
2.160000000000000000e+02,1.055989382986308556e+01
2.170000000000000000e+02,1.057013512476273931e+01
2.180000000000000000e+02,1.058016932369855390e+01
2.190000000000000000e+02,1.058999810625332572e+01
2.200000000000000000e+02,1.059962468062536267e+01
2.210000000000000000e+02,1.060905189846180185e+01
2.220000000000000000e+02,1.061828267430966299e+01
2.230000000000000000e+02,1.062732008964633401e+01
2.240000000000000000e+02,1.063616780632451331e+01
2.250000000000000000e+02,1.064483026944278521e+01
2.260000000000000000e+02,1.065331146455132227e+01
2.270000000000000000e+02,1.066161554051284988e+01
2.280000000000000000e+02,1.066974722077543802e+01
2.290000000000000000e+02,1.067771108162348348e+01
2.300000000000000000e+02,1.068551206724763780e+01
2.310000000000000000e+02,1.069315507891874795e+01
2.320000000000000000e+02,1.070064620345418049e+01
2.330000000000000000e+02,1.070799066456410209e+01
2.340000000000000000e+02,1.071519415565531119e+01
2.350000000000000000e+02,1.072226232894438702e+01
2.360000000000000000e+02,1.072920120385695242e+01
2.370000000000000000e+02,1.073601665820829787e+01
2.380000000000000000e+02,1.074271493758748264e+01
2.390000000000000000e+02,1.074930113470855275e+01
2.400000000000000000e+02,1.075578243559663605e+01
2.410000000000000000e+02,1.076216527827503633e+01
2.420000000000000000e+02,1.076845455082159297e+01
2.430000000000000000e+02,1.077465763468444315e+01
2.440000000000000000e+02,1.078077995969488967e+01
2.450000000000000000e+02,1.078682833606054281e+01
2.460000000000000000e+02,1.079280863609518271e+01
2.470000000000000000e+02,1.079872620173209974e+01
2.480000000000000000e+02,1.080458775329206134e+01
2.490000000000000000e+02,1.081039887844882941e+01
2.500000000000000000e+02,1.081616533966407445e+01
2.510000000000000000e+02,1.082189327362745601e+01
2.520000000000000000e+02,1.082758779180417186e+01
2.530000000000000000e+02,1.083325468182892415e+01
2.540000000000000000e+02,1.083889950747563624e+01
2.550000000000000000e+02,1.084452790866367522e+01
2.560000000000000000e+02,1.085014401027360620e+01
2.570000000000000000e+02,1.085575470136479304e+01
2.580000000000000000e+02,1.086136317104461568e+01
2.590000000000000000e+02,1.086697527169752675e+01
2.600000000000000000e+02,1.087259603935244101e+01
2.610000000000000000e+02,1.087822999457501538e+01
2.620000000000000000e+02,1.088388322021904209e+01
2.630000000000000000e+02,1.088955851603369318e+01
2.640000000000000000e+02,1.089526172679881810e+01
2.650000000000000000e+02,1.090099581562207831e+01
2.660000000000000000e+02,1.090676786558128164e+01
2.670000000000000000e+02,1.091257873607136375e+01
2.680000000000000000e+02,1.091843586094392649e+01
2.690000000000000000e+02,1.092434173655020224e+01
2.700000000000000000e+02,1.093030208043176899e+01
2.710000000000000000e+02,1.093631886430872413e+01
2.720000000000000000e+02,1.094240001301065313e+01
2.730000000000000000e+02,1.094854687095157253e+01
2.740000000000000000e+02,1.095476360273718797e+01
2.750000000000000000e+02,1.096105600762111365e+01
2.760000000000000000e+02,1.096742576757900345e+01
2.770000000000000000e+02,1.097388019115423319e+01
2.780000000000000000e+02,1.098042412128734746e+01
2.790000000000000000e+02,1.098706217933417939e+01
2.800000000000000000e+02,1.099379644108940646e+01
2.810000000000000000e+02,1.100063293284753385e+01
2.820000000000000000e+02,1.100757735522664582e+01
2.830000000000000000e+02,1.101463199645144009e+01
2.840000000000000000e+02,1.102180384771904720e+01
2.850000000000000000e+02,1.102909937497231851e+01
2.860000000000000000e+02,1.103652221430690261e+01
2.870000000000000000e+02,1.104407885218686225e+01
2.880000000000000000e+02,1.105177678374292327e+01
2.890000000000000000e+02,1.105961751754455413e+01
2.900000000000000000e+02,1.106761028263934321e+01
2.910000000000000000e+02,1.107575775302304955e+01
2.920000000000000000e+02,1.108407029106610153e+01
2.930000000000000000e+02,1.109255570835517446e+01
2.940000000000000000e+02,1.110121994717148652e+01
2.950000000000000000e+02,1.111006908430888096e+01
2.960000000000000000e+02,1.111911292583181954e+01
2.970000000000000000e+02,1.112835996407878270e+01
2.980000000000000000e+02,1.113781625271570874e+01
2.990000000000000000e+02,1.114749022877381357e+01
3.000000000000000000e+02,1.115739344129835509e+01
3.010000000000000000e+02,1.116753404296444074e+01
3.020000000000000000e+02,1.117792121984503950e+01
3.030000000000000000e+02,1.118856255950327672e+01
3.040000000000000000e+02,1.119946714196854920e+01
3.050000000000000000e+02,1.121064757021329683e+01
3.060000000000000000e+02,1.122211240036406110e+01
3.070000000000000000e+02,1.123387341238672121e+01
3.080000000000000000e+02,1.124593640740528677e+01
3.090000000000000000e+02,1.125831040978620123e+01
3.100000000000000000e+02,1.127100172988895288e+01
3.110000000000000000e+02,1.128402566558806264e+01
3.120000000000000000e+02,1.129737640030569779e+01
3.130000000000000000e+02,1.131106796441018503e+01
3.140000000000000000e+02,1.132509976676841390e+01
3.150000000000000000e+02,1.133946605666778495e+01
3.160000000000000000e+02,1.135415925947153859e+01
3.170000000000000000e+02,1.136918639577506518e+01
3.180000000000000000e+02,1.138452860672966516e+01
3.190000000000000000e+02,1.140016357217150222e+01
3.200000000000000000e+02,1.141607095847897035e+01
3.210000000000000000e+02,1.143222425143134657e+01
3.220000000000000000e+02,1.144858951471791109e+01
3.230000000000000000e+02,1.146512096683749427e+01
3.240000000000000000e+02,1.148177013397536861e+01
3.250000000000000000e+02,1.149848466277686398e+01
3.260000000000000000e+02,1.151521059352057463e+01
3.270000000000000000e+02,1.153188455480077401e+01
3.280000000000000000e+02,1.154845575481394704e+01
3.290000000000000000e+02,1.156486689130088763e+01
3.300000000000000000e+02,1.158106531787731086e+01
3.310000000000000000e+02,1.159701932716219019e+01
3.320000000000000000e+02,1.161269701579861646e+01
3.330000000000000000e+02,1.162808203054893674e+01
3.340000000000000000e+02,1.164316713491167299e+01
3.350000000000000000e+02,1.165795305196369824e+01
3.360000000000000000e+02,1.167245171268041837e+01
3.370000000000000000e+02,1.168667840595488094e+01
3.380000000000000000e+02,1.170064413372715784e+01
3.390000000000000000e+02,1.171436726879501222e+01
3.400000000000000000e+02,1.172786334646312412e+01
3.410000000000000000e+02,1.174114535800211634e+01
3.420000000000000000e+02,1.175422293690941267e+01
3.430000000000000000e+02,1.176711127663591760e+01
3.440000000000000000e+02,1.177981673249395378e+01
3.450000000000000000e+02,1.179234862081906421e+01
3.460000000000000000e+02,1.180471322540299894e+01
3.470000000000000000e+02,1.181691835801097845e+01
3.480000000000000000e+02,1.182896899405543678e+01
3.490000000000000000e+02,1.184087047559209616e+01
3.500000000000000000e+02,1.185262909207688153e+01
3.510000000000000000e+02,1.186424716564089543e+01
3.520000000000000000e+02,1.187573080993565178e+01
3.530000000000000000e+02,1.188708359828533823e+01
3.540000000000000000e+02,1.189830799452377974e+01
3.550000000000000000e+02,1.190940825266355318e+01
3.560000000000000000e+02,1.192038751751297987e+01
3.570000000000000000e+02,1.193125153594217913e+01
3.580000000000000000e+02,1.194199985108918938e+01
3.590000000000000000e+02,1.195263528131400754e+01
3.600000000000000000e+02,1.196316201004833601e+01
3.610000000000000000e+02,1.197358230833419768e+01
3.620000000000000000e+02,1.198389736704016606e+01
3.630000000000000000e+02,1.199410934068719392e+01
3.640000000000000000e+02,1.200422158320618493e+01
3.650000000000000000e+02,1.201423571868134488e+01
3.660000000000000000e+02,1.202415351830182999e+01
3.670000000000000000e+02,1.203397665688101092e+01
3.680000000000000000e+02,1.204370735949544091e+01
3.690000000000000000e+02,1.205334710812419630e+01
3.700000000000000000e+02,1.206289833719362115e+01
3.710000000000000000e+02,1.207236145445097897e+01
3.720000000000000000e+02,1.208173830540722982e+01
3.730000000000000000e+02,1.209103016052245927e+01
3.740000000000000000e+02,1.210023851931012295e+01
3.750000000000000000e+02,1.210936367181737694e+01
3.760000000000000000e+02,1.211840701944202969e+01
3.770000000000000000e+02,1.212737226064497342e+01
3.780000000000000000e+02,1.213625973144951509e+01
3.790000000000000000e+02,1.214506928725800172e+01
3.800000000000000000e+02,1.215380276300257378e+01
3.810000000000000000e+02,1.216245944835849180e+01
3.820000000000000000e+02,1.217104305991599134e+01
3.830000000000000000e+02,1.217955389781782394e+01
3.840000000000000000e+02,1.218799178553052798e+01
3.850000000000000000e+02,1.219635937834211070e+01
3.860000000000000000e+02,1.220465648572709405e+01
3.870000000000000000e+02,1.221288346553255266e+01
3.880000000000000000e+02,1.222104239595777209e+01
3.890000000000000000e+02,1.222913455943454153e+01
3.900000000000000000e+02,1.223715833741733938e+01
3.910000000000000000e+02,1.224511773897143208e+01
3.920000000000000000e+02,1.225301113678065157e+01
3.930000000000000000e+02,1.226084064788675398e+01
3.940000000000000000e+02,1.226860511042145951e+01
3.950000000000000000e+02,1.227630763871655972e+01
3.960000000000000000e+02,1.228394838193094252e+01
3.970000000000000000e+02,1.229152717698151420e+01
3.980000000000000000e+02,1.229904471126074661e+01
