# Time [s], Convective Heat Transfer Coefficient [W/m2K]
1.000000000000000000e+00,0.000000000000000000e+00
2.000000000000000000e+00,0.000000000000000000e+00
3.000000000000000000e+00,0.000000000000000000e+00
4.000000000000000000e+00,0.000000000000000000e+00
5.000000000000000000e+00,3.040000000141642594e-02
6.000000000000000000e+00,5.283560500250115977e-02
7.000000000000000000e+00,8.784074779022797708e-02
8.000000000000000000e+00,1.344452984119085259e-01
9.000000000000000000e+00,1.942455467331998253e-01
1.000000000000000000e+01,2.673927493979724179e-01
1.100000000000000000e+01,3.534648664990034939e-01
1.200000000000000000e+01,4.515486892669290375e-01
1.300000000000000000e+01,5.604315894673668197e-01
1.400000000000000000e+01,6.787200389361972563e-01
1.500000000000000000e+01,8.050025236436959553e-01
1.600000000000000000e+01,9.378944141755733988e-01
1.700000000000000000e+01,1.076128753920579939e+00
1.800000000000000000e+01,1.218561185081336928e+00
1.900000000000000000e+01,1.364173669776798548e+00
2.000000000000000000e+01,1.512102154254433950e+00
2.100000000000000000e+01,1.661593926257067144e+00
2.200000000000000000e+01,1.812008691558905538e+00
2.300000000000000000e+01,1.962804096417292588e+00
2.400000000000000000e+01,2.113516710766471629e+00
2.500000000000000000e+01,2.263760903450531270e+00
2.600000000000000000e+01,2.413195391208702301e+00
2.700000000000000000e+01,2.561542738988924928e+00
2.800000000000000000e+01,2.708557385669845718e+00
2.900000000000000000e+01,2.854039696108540358e+00
3.000000000000000000e+01,2.997810230002161180e+00
3.100000000000000000e+01,3.139735813690180954e+00
3.200000000000000000e+01,3.279699252155165556e+00
3.300000000000000000e+01,3.417613674244034172e+00
3.400000000000000000e+01,3.553406030218100309e+00
3.500000000000000000e+01,3.687043979343435751e+00
3.600000000000000000e+01,3.818498470710542492e+00
3.700000000000000000e+01,3.947753604593535748e+00
3.800000000000000000e+01,4.074807405514168757e+00
3.900000000000000000e+01,4.199673391125897659e+00
4.000000000000000000e+01,4.322357531601880964e+00
4.100000000000000000e+01,4.442884836203078613e+00
4.200000000000000000e+01,4.561275936279553633e+00
4.300000000000000000e+01,4.677558999594864098e+00
4.400000000000000000e+01,4.791756827089352022e+00
4.500000000000000000e+01,4.903910315283278365e+00
4.600000000000000000e+01,5.014053533106007876e+00
4.700000000000000000e+01,5.122223905988166237e+00
4.800000000000000000e+01,5.228460747324009894e+00
4.900000000000000000e+01,5.332803462576232612e+00
5.000000000000000000e+01,5.435290267688746013e+00
5.100000000000000000e+01,5.535961991235583746e+00
5.200000000000000000e+01,5.634850881501853870e+00
5.300000000000000000e+01,5.732000984231707896e+00
5.400000000000000000e+01,5.827444755506044238e+00
5.500000000000000000e+01,5.921220271037903160e+00
5.600000000000000000e+01,6.013364556755141699e+00
5.700000000000000000e+01,6.103912644917320662e+00
5.800000000000000000e+01,6.192903644662758111e+00
5.900000000000000000e+01,6.280373679474074322e+00
6.000000000000000000e+01,6.366355901482942059e+00
6.100000000000000000e+01,6.450889317132324940e+00
6.200000000000000000e+01,6.534001494624229522e+00
6.300000000000000000e+01,6.615724970273254790e+00
6.400000000000000000e+01,6.696085895019731282e+00
6.500000000000000000e+01,6.775120952322357226e+00
6.600000000000000000e+01,6.852855914100231871e+00
6.700000000000000000e+01,6.929316057179919497e+00
6.800000000000000000e+01,7.004537141130595224e+00
6.900000000000000000e+01,7.078544415621749408e+00
7.000000000000000000e+01,7.151363730546759889e+00
7.100000000000000000e+01,7.223023687908835200e+00
7.200000000000000000e+01,7.293549628520440642e+00
7.300000000000000000e+01,7.362966941590181058e+00
7.400000000000000000e+01,7.431298709420761206e+00
7.500000000000000000e+01,7.498568604350273503e+00
7.600000000000000000e+01,7.564797958585562476e+00
7.700000000000000000e+01,7.630008364951518907e+00
7.800000000000000000e+01,7.694220062026972506e+00
7.900000000000000000e+01,7.757453980696646489e+00
8.000000000000000000e+01,7.819729958336973041e+00
8.100000000000000000e+01,7.881067949222445357e+00
8.200000000000000000e+01,7.941488011071967890e+00
8.300000000000000000e+01,8.001009745986268129e+00
8.400000000000000000e+01,8.059652152060875707e+00
8.500000000000000000e+01,8.117434021181409776e+00
8.600000000000000000e+01,8.174372902445433908e+00
8.700000000000000000e+01,8.230485360529680605e+00
8.800000000000000000e+01,8.285787042013174286e+00
8.900000000000000000e+01,8.340292567651619748e+00
9.000000000000000000e+01,8.394015598499123598e+00
9.100000000000000000e+01,8.446971029118037322e+00
9.200000000000000000e+01,8.499172481459837059e+00
9.300000000000000000e+01,8.550633504072306934e+00
9.400000000000000000e+01,8.601367736094685412e+00
9.500000000000000000e+01,8.651389060381065477e+00
9.600000000000000000e+01,8.700711283004519458e+00
9.700000000000000000e+01,8.749346611571123589e+00
9.800000000000000000e+01,8.797308014536005416e+00
9.900000000000000000e+01,8.844607387430352574e+00
1.000000000000000000e+02,8.891255464483103665e+00
1.010000000000000000e+02,8.937264079496664237e+00
1.020000000000000000e+02,8.982642050467816830e+00
1.030000000000000000e+02,9.027400646986118105e+00
1.040000000000000000e+02,9.071548493652667133e+00
1.050000000000000000e+02,9.115094517458572909e+00
1.060000000000000000e+02,9.158045422775916933e+00
1.070000000000000000e+02,9.200412848276005917e+00
1.080000000000000000e+02,9.242203414547583762e+00
1.090000000000000000e+02,9.283428730694041064e+00
1.100000000000000000e+02,9.324094136857171478e+00
1.110000000000000000e+02,9.364210591151213237e+00
1.120000000000000000e+02,9.403785432273453537e+00
1.130000000000000000e+02,9.442828441082902202e+00
1.140000000000000000e+02,9.481344581487233469e+00
1.150000000000000000e+02,9.519342205351513542e+00
1.160000000000000000e+02,9.556828434274763140e+00
1.170000000000000000e+02,9.593808955528590587e+00
1.180000000000000000e+02,9.630290224195720228e+00
1.190000000000000000e+02,9.666278308287203913e+00
1.200000000000000000e+02,9.701780024039640793e+00
1.210000000000000000e+02,9.736800688171395990e+00
1.220000000000000000e+02,9.771345276505723376e+00
1.230000000000000000e+02,9.805418437080597016e+00
1.240000000000000000e+02,9.839024260601810568e+00
1.250000000000000000e+02,9.872168221869808136e+00
1.260000000000000000e+02,9.904852719983585629e+00
1.270000000000000000e+02,9.937078957825523418e+00
1.280000000000000000e+02,9.968847804274743041e+00
1.290000000000000000e+02,1.000015921818387632e+01
1.300000000000000000e+02,1.003101413636199091e+01
1.310000000000000000e+02,1.006141085739762886e+01
1.320000000000000000e+02,1.009134649799694294e+01
1.330000000000000000e+02,1.012082056699533972e+01
1.340000000000000000e+02,1.014983034792619065e+01
1.350000000000000000e+02,1.017837378399443082e+01
1.360000000000000000e+02,1.020644743341668281e+01
1.370000000000000000e+02,1.023404851520417758e+01
1.380000000000000000e+02,1.026117166317643026e+01
1.390000000000000000e+02,1.028781274939413493e+01
1.400000000000000000e+02,1.031396697609512536e+01
1.410000000000000000e+02,1.033962790178668101e+01
1.420000000000000000e+02,1.036478845615243927e+01
1.430000000000000000e+02,1.038944355063755509e+01
1.440000000000000000e+02,1.041358613873820893e+01
1.450000000000000000e+02,1.043720875858059216e+01
1.460000000000000000e+02,1.046030663670711469e+01
1.470000000000000000e+02,1.048287197605399612e+01
1.480000000000000000e+02,1.050490037792826215e+01
1.490000000000000000e+02,1.052638696053824141e+01
1.500000000000000000e+02,1.054732867773909000e+01
1.510000000000000000e+02,1.056772144717962902e+01
1.520000000000000000e+02,1.058756298469903712e+01
1.530000000000000000e+02,1.060685120536032322e+01
1.540000000000000000e+02,1.062558577135946436e+01
1.550000000000000000e+02,1.064376919522594278e+01
1.560000000000000000e+02,1.066140524607907381e+01
1.570000000000000000e+02,1.067850067568740968e+01
1.580000000000000000e+02,1.069506363948314842e+01
1.590000000000000000e+02,1.071110357864029972e+01
1.600000000000000000e+02,1.072663293743245383e+01
1.610000000000000000e+02,1.074166753459596002e+01
1.620000000000000000e+02,1.075622369478425888e+01
1.630000000000000000e+02,1.077032077752013350e+01
1.640000000000000000e+02,1.078397873574864718e+01
1.650000000000000000e+02,1.079722023188766222e+01
1.660000000000000000e+02,1.081007182224128904e+01
1.670000000000000000e+02,1.082255613228438840e+01
1.680000000000000000e+02,1.083470278720961311e+01
1.690000000000000000e+02,1.084654148386210615e+01
1.700000000000000000e+02,1.085809982211775448e+01
1.710000000000000000e+02,1.086940928665731398e+01
1.720000000000000000e+02,1.088049968273136514e+01
1.730000000000000000e+02,1.089140192869275836e+01
1.740000000000000000e+02,1.090214657810467180e+01
1.750000000000000000e+02,1.091276166981475448e+01
1.760000000000000000e+02,1.092328021564194351e+01
1.770000000000000000e+02,1.093373124747520286e+01
1.780000000000000000e+02,1.094414513696410474e+01
1.790000000000000000e+02,1.095454695176793791e+01
1.800000000000000000e+02,1.096496789810295525e+01
1.810000000000000000e+02,1.097543826498989716e+01
1.820000000000000000e+02,1.098598248398111821e+01
1.830000000000000000e+02,1.099662731323183174e+01
1.840000000000000000e+02,1.100740016802920529e+01
1.850000000000000000e+02,1.101832178011110841e+01
1.860000000000000000e+02,1.102942300106764506e+01
1.870000000000000000e+02,1.104072903924658711e+01
1.880000000000000000e+02,1.105226870686144913e+01
1.890000000000000000e+02,1.106406452147751907e+01
1.900000000000000000e+02,1.107614382950962373e+01
1.910000000000000000e+02,1.108853597981580741e+01
1.920000000000000000e+02,1.110127105040384876e+01
1.930000000000000000e+02,1.111437622053721164e+01
1.940000000000000000e+02,1.112789147792496713e+01
1.950000000000000000e+02,1.114184360137338814e+01
1.960000000000000000e+02,1.115627009439127448e+01
1.970000000000000000e+02,1.117121620490420852e+01
1.980000000000000000e+02,1.118671794551724830e+01
1.990000000000000000e+02,1.120281924878638158e+01
2.000000000000000000e+02,1.121957208885294222e+01
2.010000000000000000e+02,1.123702823957265728e+01
2.020000000000000000e+02,1.125524928352622567e+01
2.030000000000000000e+02,1.127429569226177719e+01
2.040000000000000000e+02,1.129423565513567773e+01
2.050000000000000000e+02,1.131512509022415536e+01
2.060000000000000000e+02,1.133705175230036311e+01
2.070000000000000000e+02,1.136008441347047260e+01
2.080000000000000000e+02,1.138429323039578911e+01
2.090000000000000000e+02,1.140974317980727193e+01
2.100000000000000000e+02,1.143649759731798277e+01
2.110000000000000000e+02,1.146457219134505756e+01
2.120000000000000000e+02,1.149397659171923181e+01
2.130000000000000000e+02,1.152464730325052500e+01
2.140000000000000000e+02,1.155645608789768986e+01
2.150000000000000000e+02,1.158918639498786440e+01
2.160000000000000000e+02,1.162251864626259845e+01
2.170000000000000000e+02,1.165603810755680314e+01
2.180000000000000000e+02,1.168929477845386344e+01
2.190000000000000000e+02,1.172185946015055968e+01
2.200000000000000000e+02,1.175341983984286820e+01
2.210000000000000000e+02,1.178386154803842523e+01
2.220000000000000000e+02,1.181323353790733499e+01
2.230000000000000000e+02,1.184166943530776628e+01
2.240000000000000000e+02,1.186930388677382808e+01
2.250000000000000000e+02,1.189623135263947873e+01
2.260000000000000000e+02,1.192252163549033206e+01
2.270000000000000000e+02,1.194822927635625121e+01
2.280000000000000000e+02,1.197339940738742925e+01
2.290000000000000000e+02,1.199806481739691044e+01
2.300000000000000000e+02,1.202225708606612464e+01
2.310000000000000000e+02,1.204599936974856256e+01
2.320000000000000000e+02,1.206932514766591780e+01
2.330000000000000000e+02,1.209224601787203035e+01
2.340000000000000000e+02,1.211478330863699071e+01
2.350000000000000000e+02,1.213695527159822163e+01
2.360000000000000000e+02,1.215877643521979934e+01
2.370000000000000000e+02,1.218025894172314239e+01
2.380000000000000000e+02,1.220141456088061105e+01
2.390000000000000000e+02,1.222225924672049757e+01
2.400000000000000000e+02,1.224279909258438792e+01
2.410000000000000000e+02,1.226304458975847389e+01
2.420000000000000000e+02,1.228300512711477666e+01
2.430000000000000000e+02,1.230269520001545658e+01
2.440000000000000000e+02,1.232211397966167077e+01
2.450000000000000000e+02,1.234127422412440289e+01
2.460000000000000000e+02,1.236018490658885760e+01
2.470000000000000000e+02,1.237884715155652771e+01
2.480000000000000000e+02,1.239727057752511108e+01
2.490000000000000000e+02,1.241546049048221256e+01
2.500000000000000000e+02,1.243342173531836714e+01
2.510000000000000000e+02,1.245116149771349789e+01
2.520000000000000000e+02,1.246868279723695139e+01
2.530000000000000000e+02,1.248599130492478082e+01
2.540000000000000000e+02,1.250309381018172239e+01
2.550000000000000000e+02,1.251999014184254833e+01
2.560000000000000000e+02,1.253668957390999239e+01
2.570000000000000000e+02,1.255319421004038283e+01
2.580000000000000000e+02,1.256950671047048296e+01
2.590000000000000000e+02,1.258563265022996625e+01
2.600000000000000000e+02,1.260157340618913047e+01
2.610000000000000000e+02,1.261733297571871759e+01
2.620000000000000000e+02,1.263291765124578170e+01
2.630000000000000000e+02,1.264832735895418558e+01
2.640000000000000000e+02,1.266356500724976542e+01
2.650000000000000000e+02,1.267863579583785771e+01
2.660000000000000000e+02,1.269354101407882673e+01
2.670000000000000000e+02,1.270828519077899266e+01
2.680000000000000000e+02,1.272286940415572509e+01
2.690000000000000000e+02,1.273729391935236954e+01
2.700000000000000000e+02,1.275156280517485463e+01
2.710000000000000000e+02,1.276567836094462649e+01
2.720000000000000000e+02,1.277964593891082856e+01
2.730000000000000000e+02,1.279346611593931193e+01
2.740000000000000000e+02,1.280714016950778777e+01
2.750000000000000000e+02,1.282067035525170517e+01
2.760000000000000000e+02,1.283405790703552185e+01
2.770000000000000000e+02,1.284730680678747916e+01
2.780000000000000000e+02,1.286041873144519521e+01
2.790000000000000000e+02,1.287339314753250541e+01
2.800000000000000000e+02,1.288623431244075235e+01
2.810000000000000000e+02,1.289894348795070833e+01
2.820000000000000000e+02,1.291152304284977781e+01
2.830000000000000000e+02,1.292397335877933706e+01
2.840000000000000000e+02,1.293629641700939281e+01
2.850000000000000000e+02,1.294849333976055838e+01
2.860000000000000000e+02,1.296056781325660268e+01
2.870000000000000000e+02,1.297251959517713971e+01
2.880000000000000000e+02,1.298434941137827536e+01
2.890000000000000000e+02,1.299606047188669145e+01
2.900000000000000000e+02,1.300765284488324625e+01
2.910000000000000000e+02,1.301913018399989497e+01
2.920000000000000000e+02,1.303049176865276593e+01
2.930000000000000000e+02,1.304174121410585130e+01
2.940000000000000000e+02,1.305287818959189750e+01
2.950000000000000000e+02,1.306390325347378045e+01
2.960000000000000000e+02,1.307481859898535070e+01
2.970000000000000000e+02,1.308562523792041432e+01
2.980000000000000000e+02,1.309632615014940349e+01
2.990000000000000000e+02,1.310692142984097863e+01
3.000000000000000000e+02,1.311741116629290893e+01
3.010000000000000000e+02,1.312779666660326150e+01
3.020000000000000000e+02,1.313808092086374835e+01
3.030000000000000000e+02,1.314826391709652142e+01
3.040000000000000000e+02,1.315834705926178216e+01
3.050000000000000000e+02,1.316833065875326447e+01
3.060000000000000000e+02,1.317821731305057931e+01
3.070000000000000000e+02,1.318800697547457901e+01
3.080000000000000000e+02,1.319770006644771598e+01
3.090000000000000000e+02,1.320729948335261561e+01
3.100000000000000000e+02,1.321680441760629421e+01
3.110000000000000000e+02,1.322621727386786894e+01
3.120000000000000000e+02,1.323553923697887846e+01
3.130000000000000000e+02,1.324476907961719441e+01
3.140000000000000000e+02,1.325391004277016371e+01
3.150000000000000000e+02,1.326296248491460616e+01
3.160000000000000000e+02,1.327192669306861639e+01
3.170000000000000000e+02,1.328080467524576491e+01
3.180000000000000000e+02,1.328959637110804337e+01
3.190000000000000000e+02,1.329830257825894080e+01
3.200000000000000000e+02,1.330692428558868201e+01
3.210000000000000000e+02,1.331546313429520367e+01
3.220000000000000000e+02,1.332391943566695680e+01
3.230000000000000000e+02,1.333229501145016194e+01
3.240000000000000000e+02,1.334058989574746690e+01
3.250000000000000000e+02,1.334880385717049656e+01
3.260000000000000000e+02,1.335693968114444097e+01
3.270000000000000000e+02,1.336499758123794734e+01
3.280000000000000000e+02,1.337297704758580252e+01
3.290000000000000000e+02,1.338088038165660265e+01
3.300000000000000000e+02,1.338870784734909414e+01
3.310000000000000000e+02,1.339646003119930029e+01
3.320000000000000000e+02,1.340413849207957853e+01
3.330000000000000000e+02,1.341174256688353950e+01
3.340000000000000000e+02,1.341927341350033487e+01
3.350000000000000000e+02,1.342673237729005287e+01
3.360000000000000000e+02,1.343412053612948043e+01
3.370000000000000000e+02,1.344143811887240147e+01
3.380000000000000000e+02,1.344868567501450585e+01
3.390000000000000000e+02,1.345586465487382455e+01
3.400000000000000000e+02,1.346297411107928532e+01
3.410000000000000000e+02,1.347001580806823107e+01
3.420000000000000000e+02,1.347699117880619823e+01
3.430000000000000000e+02,1.348389913758684422e+01
3.440000000000000000e+02,1.349074201025989339e+01
3.450000000000000000e+02,1.349751986263055947e+01
3.460000000000000000e+02,1.350423256598978128e+01
3.470000000000000000e+02,1.351088140125200354e+01
3.480000000000000000e+02,1.351746706606790305e+01
3.490000000000000000e+02,1.352398961374341546e+01
3.500000000000000000e+02,1.353045088616205227e+01
3.510000000000000000e+02,1.353685067244997775e+01
3.520000000000000000e+02,1.354318939924255361e+01
3.530000000000000000e+02,1.354946819147172832e+01
3.540000000000000000e+02,1.355568784993237941e+01
3.550000000000000000e+02,1.356184821638371574e+01
3.560000000000000000e+02,1.356794938611228929e+01
3.570000000000000000e+02,1.357399393041605151e+01
3.580000000000000000e+02,1.357998041111955878e+01
3.590000000000000000e+02,1.358591088193292329e+01
3.600000000000000000e+02,1.359178396634948705e+01
3.610000000000000000e+02,1.359760215333813882e+01
3.620000000000000000e+02,1.360336482246026435e+01
3.630000000000000000e+02,1.360907394556114980e+01
3.640000000000000000e+02,1.361472820275989726e+01
3.650000000000000000e+02,1.362032880139528324e+01
3.660000000000000000e+02,1.362587713281122959e+01
3.670000000000000000e+02,1.363137363772908728e+01
3.680000000000000000e+02,1.363681736950396584e+01
3.690000000000000000e+02,1.364220983644357155e+01
3.700000000000000000e+02,1.364755090693097550e+01
3.710000000000000000e+02,1.365284176750964384e+01
3.720000000000000000e+02,1.365808297249226122e+01
3.730000000000000000e+02,1.366327463455754554e+01
3.740000000000000000e+02,1.366841717833791492e+01
3.750000000000000000e+02,1.367351158970670610e+01
3.760000000000000000e+02,1.367855784961943399e+01
3.770000000000000000e+02,1.368355656334077075e+01
3.780000000000000000e+02,1.368850808355182380e+01
3.790000000000000000e+02,1.369341226157718694e+01
3.800000000000000000e+02,1.369827025834024070e+01
3.810000000000000000e+02,1.370308335527722576e+01
3.820000000000000000e+02,1.370785089817278468e+01
3.830000000000000000e+02,1.371257366565422586e+01
3.840000000000000000e+02,1.371725218453483386e+01
3.850000000000000000e+02,1.372188654420087595e+01
3.860000000000000000e+02,1.372647720577678854e+01
3.870000000000000000e+02,1.373102382123741272e+01
3.880000000000000000e+02,1.373552771795617566e+01
3.890000000000000000e+02,1.373999040508967973e+01
3.900000000000000000e+02,1.374441047474338973e+01
3.910000000000000000e+02,1.374878918478479051e+01
3.920000000000000000e+02,1.375312655140879059e+01
3.930000000000000000e+02,1.375742308486910659e+01
3.940000000000000000e+02,1.376167960251704514e+01
3.950000000000000000e+02,1.376589574533064031e+01
3.960000000000000000e+02,1.377007201880824283e+01
3.970000000000000000e+02,1.377420997544757597e+01
3.980000000000000000e+02,1.377830857359984584e+01
