# Time [s], Temperature [C]
1.000000000000000000e+00,2.500000000000000000e+01
2.000000000000000000e+00,2.500000000000000000e+01
3.000000000000000000e+00,2.500000000000000000e+01
4.000000000000000000e+00,2.500000000000000000e+01
5.000000000000000000e+00,2.500000199999999850e+01
6.000000000000000000e+00,2.500000800000000112e+01
7.000000000000000000e+00,2.500003200000000092e+01
8.000000000000000000e+00,2.500011399999999995e+01
9.000000000000000000e+00,2.500034300000000087e+01
1.000000000000000000e+01,2.500091000000000108e+01
1.100000000000000000e+01,2.500213799999999864e+01
1.200000000000000000e+01,2.500454900000000080e+01
1.300000000000000000e+01,2.500888399999999834e+01
1.400000000000000000e+01,2.501611899999999977e+01
1.500000000000000000e+01,2.502745399999999876e+01
1.600000000000000000e+01,2.504428899999999913e+01
1.700000000000000000e+01,2.506817200000000057e+01
1.800000000000000000e+01,2.510076499999999911e+01
1.900000000000000000e+01,2.514377999999999957e+01
2.000000000000000000e+01,2.519894199999999884e+01
2.100000000000000000e+01,2.526795200000000108e+01
2.200000000000000000e+01,2.535244399999999843e+01
2.300000000000000000e+01,2.545397200000000026e+01
2.400000000000000000e+01,2.557397500000000079e+01
2.500000000000000000e+01,2.571378299999999939e+01
2.600000000000000000e+01,2.587459899999999990e+01
2.700000000000000000e+01,2.605749099999999885e+01
2.800000000000000000e+01,2.626340300000000028e+01
2.900000000000000000e+01,2.649313899999999933e+01
3.000000000000000000e+01,2.674739500000000092e+01
3.100000000000000000e+01,2.702674499999999824e+01
3.200000000000000000e+01,2.733163300000000007e+01
3.300000000000000000e+01,2.766242199999999940e+01
3.400000000000000000e+01,2.801935999999999893e+01
3.500000000000000000e+01,2.840259899999999860e+01
3.600000000000000000e+01,2.881221400000000088e+01
3.700000000000000000e+01,2.924818399999999841e+01
3.800000000000000000e+01,2.971041900000000169e+01
3.900000000000000000e+01,3.019876700000000014e+01
4.000000000000000000e+01,3.071300499999999900e+01
4.100000000000000000e+01,3.125283200000000150e+01
4.200000000000000000e+01,3.181788799999999995e+01
4.300000000000000000e+01,3.240779500000000013e+01
4.400000000000000000e+01,3.302207200000000142e+01
4.500000000000000000e+01,3.366025499999999937e+01
4.600000000000000000e+01,3.432180000000000319e+01
4.700000000000000000e+01,3.500611099999999709e+01
4.800000000000000000e+01,3.571259700000000237e+01
4.900000000000000000e+01,3.644060499999999791e+01
5.000000000000000000e+01,3.718948000000000320e+01
5.100000000000000000e+01,3.795853799999999723e+01
5.200000000000000000e+01,3.874707800000000191e+01
5.300000000000000000e+01,3.955440500000000270e+01
5.400000000000000000e+01,4.037981800000000021e+01
5.500000000000000000e+01,4.122260700000000355e+01
5.600000000000000000e+01,4.208208799999999883e+01
5.700000000000000000e+01,4.295759600000000233e+01
5.800000000000000000e+01,4.384848000000000212e+01
5.900000000000000000e+01,4.475406300000000215e+01
6.000000000000000000e+01,4.567374800000000334e+01
6.100000000000000000e+01,4.660694500000000318e+01
6.200000000000000000e+01,4.755308899999999994e+01
6.300000000000000000e+01,4.851159700000000186e+01
6.400000000000000000e+01,4.948195299999999719e+01
6.500000000000000000e+01,5.046359600000000256e+01
6.600000000000000000e+01,5.145602800000000343e+01
6.700000000000000000e+01,5.245870599999999939e+01
6.800000000000000000e+01,5.347113000000000227e+01
6.900000000000000000e+01,5.449278999999999940e+01
7.000000000000000000e+01,5.552322399999999902e+01
7.100000000000000000e+01,5.656190500000000299e+01
7.200000000000000000e+01,5.760839800000000110e+01
7.300000000000000000e+01,5.866228100000000012e+01
7.400000000000000000e+01,5.972306799999999782e+01
7.500000000000000000e+01,6.079039000000000215e+01
7.600000000000000000e+01,6.186388000000000176e+01
7.700000000000000000e+01,6.294311499999999882e+01
7.800000000000000000e+01,6.402777100000000132e+01
7.900000000000000000e+01,6.511753799999999615e+01
8.000000000000000000e+01,6.621202099999999291e+01
8.100000000000000000e+01,6.731092800000000409e+01
8.200000000000000000e+01,6.841391000000000133e+01
8.300000000000000000e+01,6.952068300000000534e+01
8.400000000000000000e+01,7.063087500000000318e+01
8.500000000000000000e+01,7.174422500000000014e+01
8.600000000000000000e+01,7.286036699999999655e+01
8.700000000000000000e+01,7.397901899999999387e+01
8.800000000000000000e+01,7.509989199999999698e+01
8.900000000000000000e+01,7.622268699999999342e+01
9.000000000000000000e+01,7.734716000000000236e+01
9.100000000000000000e+01,7.847302200000000028e+01
9.200000000000000000e+01,7.960003700000000038e+01
9.300000000000000000e+01,8.072796599999999501e+01
9.400000000000000000e+01,8.185660599999999931e+01
9.500000000000000000e+01,8.298572500000000218e+01
9.600000000000000000e+01,8.411514999999999986e+01
9.700000000000000000e+01,8.524468199999999740e+01
9.800000000000000000e+01,8.637410699999999508e+01
9.900000000000000000e+01,8.750324200000000019e+01
1.000000000000000000e+02,8.863189699999999505e+01
1.010000000000000000e+02,8.975991100000000245e+01
1.020000000000000000e+02,9.088709299999999303e+01
1.030000000000000000e+02,9.201322199999999896e+01
1.040000000000000000e+02,9.313812299999999311e+01
1.050000000000000000e+02,9.426163499999999829e+01
1.060000000000000000e+02,9.538356000000000279e+01
1.070000000000000000e+02,9.650375400000000070e+01
1.080000000000000000e+02,9.762204699999999491e+01
1.090000000000000000e+02,9.873827400000000409e+01
1.100000000000000000e+02,9.985231000000000279e+01
1.110000000000000000e+02,1.009639999999999986e+02
1.120000000000000000e+02,1.020732299999999952e+02
1.130000000000000000e+02,1.031798799999999972e+02
1.140000000000000000e+02,1.042838500000000010e+02
1.150000000000000000e+02,1.053850199999999973e+02
1.160000000000000000e+02,1.064832700000000045e+02
1.170000000000000000e+02,1.075785099999999943e+02
1.180000000000000000e+02,1.086706499999999949e+02
1.190000000000000000e+02,1.097595400000000012e+02
1.200000000000000000e+02,1.108451000000000022e+02
1.210000000000000000e+02,1.119272200000000055e+02
1.220000000000000000e+02,1.130057699999999983e+02
1.230000000000000000e+02,1.140806500000000057e+02
1.240000000000000000e+02,1.151517599999999959e+02
1.250000000000000000e+02,1.162189599999999956e+02
1.260000000000000000e+02,1.172821799999999968e+02
1.270000000000000000e+02,1.183412900000000008e+02
1.280000000000000000e+02,1.193961999999999932e+02
1.290000000000000000e+02,1.204468200000000024e+02
1.300000000000000000e+02,1.214931100000000015e+02
1.310000000000000000e+02,1.225348999999999933e+02
1.320000000000000000e+02,1.235721699999999998e+02
1.330000000000000000e+02,1.246047999999999973e+02
1.340000000000000000e+02,1.256327500000000015e+02
1.350000000000000000e+02,1.266559299999999979e+02
1.360000000000000000e+02,1.276742500000000007e+02
1.370000000000000000e+02,1.286876399999999876e+02
1.380000000000000000e+02,1.296959999999999980e+02
1.390000000000000000e+02,1.306992600000000095e+02
1.400000000000000000e+02,1.316973399999999970e+02
1.410000000000000000e+02,1.326901400000000137e+02
1.420000000000000000e+02,1.336775499999999965e+02
1.430000000000000000e+02,1.346595199999999863e+02
1.440000000000000000e+02,1.356358799999999860e+02
1.450000000000000000e+02,1.366065999999999860e+02
1.460000000000000000e+02,1.375715600000000052e+02
1.470000000000000000e+02,1.385306699999999864e+02
1.480000000000000000e+02,1.394838699999999960e+02
1.490000000000000000e+02,1.404310199999999895e+02
1.500000000000000000e+02,1.413720600000000047e+02
1.510000000000000000e+02,1.423069000000000131e+02
1.520000000000000000e+02,1.432354599999999891e+02
1.530000000000000000e+02,1.441576200000000085e+02
1.540000000000000000e+02,1.450733299999999986e+02
1.550000000000000000e+02,1.459824999999999875e+02
1.560000000000000000e+02,1.468850300000000004e+02
1.570000000000000000e+02,1.477808200000000056e+02
1.580000000000000000e+02,1.486698000000000093e+02
1.590000000000000000e+02,1.495518500000000017e+02
1.600000000000000000e+02,1.504268600000000049e+02
1.610000000000000000e+02,1.512947699999999998e+02
1.620000000000000000e+02,1.521554600000000050e+02
1.630000000000000000e+02,1.530088299999999890e+02
1.640000000000000000e+02,1.538548099999999863e+02
1.650000000000000000e+02,1.546932700000000125e+02
1.660000000000000000e+02,1.555241200000000106e+02
1.670000000000000000e+02,1.563472899999999868e+02
1.680000000000000000e+02,1.571627000000000010e+02
1.690000000000000000e+02,1.579702599999999961e+02
1.700000000000000000e+02,1.587699000000000069e+02
1.710000000000000000e+02,1.595615500000000111e+02
1.720000000000000000e+02,1.603451399999999865e+02
1.730000000000000000e+02,1.611205899999999929e+02
1.740000000000000000e+02,1.618878599999999892e+02
1.750000000000000000e+02,1.626468800000000101e+02
1.760000000000000000e+02,1.633975700000000018e+02
1.770000000000000000e+02,1.641398800000000051e+02
1.780000000000000000e+02,1.648738299999999981e+02
1.790000000000000000e+02,1.655993200000000058e+02
1.800000000000000000e+02,1.663163600000000031e+02
1.810000000000000000e+02,1.670248699999999928e+02
1.820000000000000000e+02,1.677248700000000099e+02
1.830000000000000000e+02,1.684163499999999942e+02
1.840000000000000000e+02,1.690993200000000058e+02
1.850000000000000000e+02,1.697737899999999911e+02
1.860000000000000000e+02,1.704397400000000005e+02
1.870000000000000000e+02,1.710972700000000088e+02
1.880000000000000000e+02,1.717463999999999942e+02
1.890000000000000000e+02,1.723871599999999944e+02
1.900000000000000000e+02,1.730196400000000096e+02
1.910000000000000000e+02,1.736439100000000053e+02
1.920000000000000000e+02,1.742600700000000131e+02
1.930000000000000000e+02,1.748681899999999985e+02
1.940000000000000000e+02,1.754684100000000058e+02
1.950000000000000000e+02,1.760608200000000068e+02
1.960000000000000000e+02,1.766455799999999954e+02
1.970000000000000000e+02,1.772227900000000034e+02
1.980000000000000000e+02,1.777926500000000090e+02
1.990000000000000000e+02,1.783552899999999966e+02
2.000000000000000000e+02,1.789108999999999980e+02
2.010000000000000000e+02,1.794596600000000137e+02
2.020000000000000000e+02,1.800017699999999934e+02
2.030000000000000000e+02,1.805374600000000100e+02
2.040000000000000000e+02,1.810669100000000071e+02
2.050000000000000000e+02,1.815903900000000135e+02
2.060000000000000000e+02,1.821081399999999917e+02
2.070000000000000000e+02,1.826203600000000051e+02
2.080000000000000000e+02,1.831273700000000133e+02
2.090000000000000000e+02,1.836293799999999976e+02
2.100000000000000000e+02,1.841266899999999964e+02
2.110000000000000000e+02,1.846195800000000133e+02
2.120000000000000000e+02,1.851083199999999920e+02
2.130000000000000000e+02,1.855932200000000023e+02
2.140000000000000000e+02,1.860745499999999879e+02
2.150000000000000000e+02,1.865526299999999935e+02
2.160000000000000000e+02,1.870277399999999943e+02
2.170000000000000000e+02,1.875002299999999877e+02
2.180000000000000000e+02,1.879704099999999869e+02
2.190000000000000000e+02,1.884385800000000017e+02
2.200000000000000000e+02,1.889050599999999918e+02
2.210000000000000000e+02,1.893701800000000048e+02
2.220000000000000000e+02,1.898343000000000131e+02
2.230000000000000000e+02,1.902977600000000109e+02
2.240000000000000000e+02,1.907608299999999986e+02
2.250000000000000000e+02,1.912238900000000115e+02
2.260000000000000000e+02,1.916872700000000123e+02
2.270000000000000000e+02,1.921513099999999952e+02
2.280000000000000000e+02,1.926163799999999924e+02
2.290000000000000000e+02,1.930827800000000138e+02
2.300000000000000000e+02,1.935508399999999938e+02
2.310000000000000000e+02,1.940209499999999991e+02
2.320000000000000000e+02,1.944934700000000021e+02
2.330000000000000000e+02,1.949687299999999937e+02
2.340000000000000000e+02,1.954470799999999997e+02
2.350000000000000000e+02,1.959288799999999924e+02
2.360000000000000000e+02,1.964144900000000007e+02
2.370000000000000000e+02,1.969042699999999968e+02
2.380000000000000000e+02,1.973986400000000003e+02
2.390000000000000000e+02,1.978978999999999928e+02
2.400000000000000000e+02,1.984024699999999939e+02
2.410000000000000000e+02,1.989127300000000105e+02
2.420000000000000000e+02,1.994290599999999927e+02
2.430000000000000000e+02,1.999518700000000138e+02
2.440000000000000000e+02,2.004815499999999986e+02
2.450000000000000000e+02,2.010185099999999920e+02
2.460000000000000000e+02,2.015631700000000137e+02
2.470000000000000000e+02,2.021159800000000075e+02
2.480000000000000000e+02,2.026773499999999899e+02
2.490000000000000000e+02,2.032478199999999902e+02
2.500000000000000000e+02,2.038277400000000057e+02
2.510000000000000000e+02,2.044176899999999932e+02
2.520000000000000000e+02,2.050181300000000135e+02
2.530000000000000000e+02,2.056296399999999949e+02
2.540000000000000000e+02,2.062526599999999917e+02
2.550000000000000000e+02,2.068878799999999956e+02
2.560000000000000000e+02,2.075357999999999947e+02
2.570000000000000000e+02,2.081970200000000091e+02
2.580000000000000000e+02,2.088722099999999955e+02
2.590000000000000000e+02,2.095620600000000024e+02
2.600000000000000000e+02,2.102672699999999963e+02
2.610000000000000000e+02,2.109885600000000068e+02
2.620000000000000000e+02,2.117266799999999876e+02
2.630000000000000000e+02,2.124825299999999970e+02
2.640000000000000000e+02,2.132569599999999923e+02
2.650000000000000000e+02,2.140508900000000096e+02
2.660000000000000000e+02,2.148652800000000127e+02
2.670000000000000000e+02,2.157011400000000094e+02
2.680000000000000000e+02,2.165596299999999985e+02
2.690000000000000000e+02,2.174418499999999881e+02
2.700000000000000000e+02,2.183490799999999865e+02
2.710000000000000000e+02,2.192826499999999896e+02
2.720000000000000000e+02,2.202439400000000091e+02
2.730000000000000000e+02,2.212345599999999877e+02
2.740000000000000000e+02,2.222559799999999939e+02
2.750000000000000000e+02,2.233100900000000024e+02
2.760000000000000000e+02,2.243986500000000035e+02
2.770000000000000000e+02,2.255236400000000003e+02
2.780000000000000000e+02,2.266872899999999902e+02
2.790000000000000000e+02,2.278919999999999959e+02
2.800000000000000000e+02,2.291400800000000118e+02
2.810000000000000000e+02,2.304342000000000041e+02
2.820000000000000000e+02,2.317773400000000095e+02
2.830000000000000000e+02,2.331726400000000012e+02
2.840000000000000000e+02,2.346234300000000133e+02
2.850000000000000000e+02,2.361331900000000132e+02
2.860000000000000000e+02,2.377059299999999951e+02
2.870000000000000000e+02,2.393459200000000067e+02
2.880000000000000000e+02,2.410573599999999885e+02
2.890000000000000000e+02,2.428452599999999961e+02
2.900000000000000000e+02,2.447147500000000093e+02
2.910000000000000000e+02,2.466713300000000118e+02
2.920000000000000000e+02,2.487206299999999999e+02
2.930000000000000000e+02,2.508688999999999965e+02
2.940000000000000000e+02,2.531224200000000053e+02
2.950000000000000000e+02,2.554879599999999868e+02
2.960000000000000000e+02,2.579719200000000114e+02
2.970000000000000000e+02,2.605811800000000176e+02
2.980000000000000000e+02,2.633220200000000091e+02
2.990000000000000000e+02,2.662006200000000149e+02
3.000000000000000000e+02,2.692224699999999871e+02
3.010000000000000000e+02,2.723919399999999769e+02
3.020000000000000000e+02,2.757121599999999830e+02
3.030000000000000000e+02,2.791843299999999886e+02
3.040000000000000000e+02,2.828070399999999722e+02
3.050000000000000000e+02,2.865767500000000041e+02
3.060000000000000000e+02,2.904870900000000233e+02
3.070000000000000000e+02,2.945282900000000268e+02
3.080000000000000000e+02,2.986871899999999869e+02
3.090000000000000000e+02,3.029486699999999928e+02
3.100000000000000000e+02,3.072956800000000044e+02
3.110000000000000000e+02,3.117093800000000101e+02
3.120000000000000000e+02,3.161709299999999985e+02
3.130000000000000000e+02,3.206620199999999841e+02
3.140000000000000000e+02,3.251656500000000278e+02
3.150000000000000000e+02,3.296667800000000170e+02
3.160000000000000000e+02,3.341528000000000134e+02
3.170000000000000000e+02,3.386133399999999938e+02
3.180000000000000000e+02,3.430404100000000085e+02
3.190000000000000000e+02,3.474278899999999908e+02
3.200000000000000000e+02,3.517715499999999906e+02
3.210000000000000000e+02,3.560684499999999844e+02
3.220000000000000000e+02,3.603173499999999763e+02
3.230000000000000000e+02,3.645172400000000152e+02
3.240000000000000000e+02,3.686681199999999876e+02
3.250000000000000000e+02,3.727700199999999882e+02
3.260000000000000000e+02,3.768236699999999928e+02
3.270000000000000000e+02,3.808303199999999720e+02
3.280000000000000000e+02,3.847908600000000092e+02
3.290000000000000000e+02,3.887063899999999990e+02
3.300000000000000000e+02,3.925778799999999933e+02
3.310000000000000000e+02,3.964067400000000134e+02
3.320000000000000000e+02,4.001939100000000167e+02
3.330000000000000000e+02,4.039406999999999925e+02
3.340000000000000000e+02,4.076480999999999995e+02
3.350000000000000000e+02,4.113170499999999947e+02
3.360000000000000000e+02,4.149486699999999928e+02
3.370000000000000000e+02,4.185439099999999826e+02
3.380000000000000000e+02,4.221037600000000225e+02
3.390000000000000000e+02,4.256288799999999810e+02
3.400000000000000000e+02,4.291201199999999858e+02
3.410000000000000000e+02,4.325781200000000126e+02
3.420000000000000000e+02,4.360038099999999872e+02
3.430000000000000000e+02,4.393975800000000049e+02
3.440000000000000000e+02,4.427604400000000169e+02
3.450000000000000000e+02,4.460928599999999733e+02
3.460000000000000000e+02,4.493952600000000075e+02
3.470000000000000000e+02,4.526684900000000198e+02
3.480000000000000000e+02,4.559128699999999981e+02
3.490000000000000000e+02,4.591289100000000190e+02
3.500000000000000000e+02,4.623171399999999949e+02
3.510000000000000000e+02,4.654778699999999958e+02
3.520000000000000000e+02,4.686116900000000101e+02
3.530000000000000000e+02,4.717189000000000192e+02
3.540000000000000000e+02,4.747999899999999798e+02
3.550000000000000000e+02,4.778553800000000251e+02
3.560000000000000000e+02,4.808852200000000039e+02
3.570000000000000000e+02,4.838901399999999740e+02
3.580000000000000000e+02,4.868702700000000050e+02
3.590000000000000000e+02,4.898259600000000091e+02
3.600000000000000000e+02,4.927575699999999870e+02
3.610000000000000000e+02,4.956652799999999957e+02
3.620000000000000000e+02,4.985494400000000041e+02
3.630000000000000000e+02,5.014104600000000005e+02
3.640000000000000000e+02,5.042484099999999785e+02
3.650000000000000000e+02,5.070635700000000270e+02
3.660000000000000000e+02,5.098562299999999823e+02
3.670000000000000000e+02,5.126265300000000025e+02
3.680000000000000000e+02,5.153746899999999869e+02
3.690000000000000000e+02,5.181011999999999489e+02
3.700000000000000000e+02,5.208061500000000024e+02
3.710000000000000000e+02,5.234896899999999960e+02
3.720000000000000000e+02,5.261519200000000183e+02
3.730000000000000000e+02,5.287932100000000446e+02
3.740000000000000000e+02,5.314137600000000248e+02
3.750000000000000000e+02,5.340135500000000093e+02
3.760000000000000000e+02,5.365930200000000241e+02
3.770000000000000000e+02,5.391521599999999808e+02
3.780000000000000000e+02,5.416911599999999680e+02
3.790000000000000000e+02,5.442102700000000368e+02
3.800000000000000000e+02,5.467097199999999475e+02
3.810000000000000000e+02,5.491894499999999653e+02
3.820000000000000000e+02,5.516497799999999643e+02
3.830000000000000000e+02,5.540908200000000079e+02
3.840000000000000000e+02,5.565128200000000334e+02
3.850000000000000000e+02,5.589158300000000281e+02
3.860000000000000000e+02,5.613000500000000557e+02
3.870000000000000000e+02,5.636655899999999519e+02
3.880000000000000000e+02,5.660125100000000202e+02
3.890000000000000000e+02,5.683411899999999832e+02
3.900000000000000000e+02,5.706516699999999673e+02
3.910000000000000000e+02,5.729439099999999598e+02
3.920000000000000000e+02,5.752181399999999485e+02
3.930000000000000000e+02,5.774746099999999842e+02
3.940000000000000000e+02,5.797133199999999533e+02
3.950000000000000000e+02,5.819345100000000457e+02
3.960000000000000000e+02,5.841382399999999961e+02
3.970000000000000000e+02,5.863245200000000068e+02
3.980000000000000000e+02,5.884937099999999646e+02
3.990000000000000000e+02,5.906458099999999831e+02
