# Time [s], Convective Heat Transfer Coefficient [W/m2K]
1.000000000000000000e+00,0.000000000000000000e+00
2.000000000000000000e+00,0.000000000000000000e+00
3.000000000000000000e+00,0.000000000000000000e+00
4.000000000000000000e+00,0.000000000000000000e+00
5.000000000000000000e+00,2.762023300960968902e-02
6.000000000000000000e+00,4.825699198029582276e-02
7.000000000000000000e+00,7.778189519290648613e-02
8.000000000000000000e+00,1.175900526856897693e-01
9.000000000000000000e+00,1.687762775225354894e-01
1.000000000000000000e+01,2.312851783226551883e-01
1.100000000000000000e+01,3.048085144458588802e-01
1.200000000000000000e+01,3.886151525818163921e-01
1.300000000000000000e+01,4.816432156596668346e-01
1.400000000000000000e+01,5.826780321244544592e-01
1.500000000000000000e+01,6.904960046092458725e-01
1.600000000000000000e+01,8.039099731379726332e-01
1.700000000000000000e+01,9.218313412210890068e-01
1.800000000000000000e+01,1.043291542269787486e+00
1.900000000000000000e+01,1.167440885960703501e+00
2.000000000000000000e+01,1.293536055416951491e+00
2.100000000000000000e+01,1.420941251377601411e+00
2.200000000000000000e+01,1.549131321483803392e+00
2.300000000000000000e+01,1.677648028908228506e+00
2.400000000000000000e+01,1.806110788566385406e+00
2.500000000000000000e+01,1.934196377187991311e+00
2.600000000000000000e+01,2.061650846812504767e+00
2.700000000000000000e+01,2.188247404224831438e+00
2.800000000000000000e+01,2.313806160133171197e+00
2.900000000000000000e+01,2.438180260427557755e+00
3.000000000000000000e+01,2.561245482261342410e+00
3.100000000000000000e+01,2.682908132293033265e+00
3.200000000000000000e+01,2.803091185992318213e+00
3.300000000000000000e+01,2.921735480361788095e+00
3.400000000000000000e+01,3.038793020853335136e+00
3.500000000000000000e+01,3.154232759713010648e+00
3.600000000000000000e+01,3.268027401969622936e+00
3.700000000000000000e+01,3.380167600222108160e+00
3.800000000000000000e+01,3.490645079790807959e+00
3.900000000000000000e+01,3.599463903973390444e+00
4.000000000000000000e+01,3.706625205313249349e+00
4.100000000000000000e+01,3.812137082329642990e+00
4.200000000000000000e+01,3.916009444815243601e+00
4.300000000000000000e+01,4.018258343364169427e+00
4.400000000000000000e+01,4.118905531252605279e+00
4.500000000000000000e+01,4.217963721680239253e+00
4.600000000000000000e+01,4.315459042594298467e+00
4.700000000000000000e+01,4.411410161749850900e+00
4.800000000000000000e+01,4.505838869042355199e+00
4.900000000000000000e+01,4.598769585092802537e+00
5.000000000000000000e+01,4.690224471561364794e+00
5.100000000000000000e+01,4.780227436326088153e+00
5.200000000000000000e+01,4.868800281876430880e+00
5.300000000000000000e+01,4.955971588731205024e+00
5.400000000000000000e+01,5.041755587996873622e+00
5.500000000000000000e+01,5.126181693207677803e+00
5.600000000000000000e+01,5.209271163608105049e+00
5.700000000000000000e+01,5.291043453779094463e+00
5.800000000000000000e+01,5.371522901734902433e+00
5.900000000000000000e+01,5.450730163104315906e+00
6.000000000000000000e+01,5.528686279180733187e+00
6.100000000000000000e+01,5.605412474036595150e+00
6.200000000000000000e+01,5.680929665628101866e+00
6.300000000000000000e+01,5.755261275866725867e+00
6.400000000000000000e+01,5.828422394285883712e+00
6.500000000000000000e+01,5.900432114800485017e+00
6.600000000000000000e+01,5.971312532050635724e+00
6.700000000000000000e+01,6.041084742919553108e+00
6.800000000000000000e+01,6.109765268259472748e+00
6.900000000000000000e+01,6.177375492057723072e+00
7.000000000000000000e+01,6.243929960038482108e+00
7.100000000000000000e+01,6.309452928589610821e+00
7.200000000000000000e+01,6.373958878671920125e+00
7.300000000000000000e+01,6.437471246759984389e+00
7.400000000000000000e+01,6.500004164122618278e+00
7.500000000000000000e+01,6.561582448896314368e+00
7.600000000000000000e+01,6.622220747122399942e+00
7.700000000000000000e+01,6.681936749980020629e+00
7.800000000000000000e+01,6.740754259524624814e+00
7.900000000000000000e+01,6.798685435649445274e+00
8.000000000000000000e+01,6.855751681502545658e+00
8.100000000000000000e+01,6.911972588947365104e+00
8.200000000000000000e+01,6.967362702967593080e+00
8.300000000000000000e+01,7.021938319129110262e+00
8.400000000000000000e+01,7.075722487777780678e+00
8.500000000000000000e+01,7.128729537115535031e+00
8.600000000000000000e+01,7.180972520071032150e+00
8.700000000000000000e+01,7.232472252816737779e+00
8.800000000000000000e+01,7.283244855168814702e+00
8.900000000000000000e+01,7.333301422002256764e+00
9.000000000000000000e+01,7.382659957099614090e+00
9.100000000000000000e+01,7.431336864323179192e+00
9.200000000000000000e+01,7.479343915490471062e+00
9.300000000000000000e+01,7.526693090286443066e+00
9.400000000000000000e+01,7.573402890144510735e+00
9.500000000000000000e+01,7.619483831356597570e+00
9.600000000000000000e+01,7.664947093234081521e+00
9.700000000000000000e+01,7.709809403214561208e+00
9.800000000000000000e+01,7.754079872520978078e+00
9.900000000000000000e+01,7.797770053808263491e+00
1.000000000000000000e+02,7.840894569087713428e+00
1.010000000000000000e+02,7.883463224460106389e+00
1.020000000000000000e+02,7.925485183666138411e+00
1.030000000000000000e+02,7.966974167059943213e+00
1.040000000000000000e+02,8.007938545697507848e+00
1.050000000000000000e+02,8.048391011756248048e+00
1.060000000000000000e+02,8.088339599178508976e+00
1.070000000000000000e+02,8.127795356282490502e+00
1.080000000000000000e+02,8.166766587230956276e+00
1.090000000000000000e+02,8.205263852520630508e+00
1.100000000000000000e+02,8.243294871198363793e+00
1.110000000000000000e+02,8.280870115758348859e+00
1.120000000000000000e+02,8.317996769638241972e+00
1.130000000000000000e+02,8.354683570769413592e+00
1.140000000000000000e+02,8.390936922162046230e+00
1.150000000000000000e+02,8.426766268837308616e+00
1.160000000000000000e+02,8.462177269697775728e+00
1.170000000000000000e+02,8.497178279439077997e+00
1.180000000000000000e+02,8.531777345746284880e+00
1.190000000000000000e+02,8.565979671661082762e+00
1.200000000000000000e+02,8.599792161674834290e+00
1.210000000000000000e+02,8.633222728670610024e+00
1.220000000000000000e+02,8.666275269881040799e+00
1.230000000000000000e+02,8.698956781316990572e+00
1.240000000000000000e+02,8.731275093942249654e+00
1.250000000000000000e+02,8.763234729714055149e+00
1.260000000000000000e+02,8.794841260421508267e+00
1.270000000000000000e+02,8.826099768742688312e+00
1.280000000000000000e+02,8.857016358979567627e+00
1.290000000000000000e+02,8.887596493037339229e+00
1.300000000000000000e+02,8.917846191520661492e+00
1.310000000000000000e+02,8.947768799926567596e+00
1.320000000000000000e+02,8.977369871685841218e+00
1.330000000000000000e+02,9.006654643790765746e+00
1.340000000000000000e+02,9.035626901463341909e+00
1.350000000000000000e+02,9.064291874964544249e+00
1.360000000000000000e+02,9.092653222014718040e+00
1.370000000000000000e+02,9.120715469795396046e+00
1.380000000000000000e+02,9.148482590708347573e+00
1.390000000000000000e+02,9.175958437229951414e+00
1.400000000000000000e+02,9.203147161019407108e+00
1.410000000000000000e+02,9.230051693664634627e+00
1.420000000000000000e+02,9.256676788309706083e+00
1.430000000000000000e+02,9.283025572537269454e+00
1.440000000000000000e+02,9.309101621378843561e+00
1.450000000000000000e+02,9.334908273931786127e+00
1.460000000000000000e+02,9.360449175044966097e+00
1.470000000000000000e+02,9.385725344397373604e+00
1.480000000000000000e+02,9.410743177809221649e+00
1.490000000000000000e+02,9.435504181767932153e+00
1.500000000000000000e+02,9.460010726574614282e+00
1.510000000000000000e+02,9.484266544893262818e+00
1.520000000000000000e+02,9.508274367156220208e+00
1.530000000000000000e+02,9.532035947476050097e+00
1.540000000000000000e+02,9.555555421496121582e+00
1.550000000000000000e+02,9.578834017996317840e+00
1.560000000000000000e+02,9.601875335411952150e+00
1.570000000000000000e+02,9.624680357436398381e+00
1.580000000000000000e+02,9.647252420368943149e+00
1.590000000000000000e+02,9.669593152490190135e+00
1.600000000000000000e+02,9.691704881720795584e+00
1.610000000000000000e+02,9.713589007247618312e+00
1.620000000000000000e+02,9.735248737946875508e+00
1.630000000000000000e+02,9.756684871783999569e+00
1.640000000000000000e+02,9.777899032274996571e+00
1.650000000000000000e+02,9.798893894599471466e+00
1.660000000000000000e+02,9.819670007247848886e+00
1.670000000000000000e+02,9.840228980240063095e+00
1.680000000000000000e+02,9.860572379588958825e+00
1.690000000000000000e+02,9.880701488654050735e+00
1.700000000000000000e+02,9.900618150033372089e+00
1.710000000000000000e+02,9.920322851459220104e+00
1.720000000000000000e+02,9.939816174491934220e+00
1.730000000000000000e+02,9.959098910629752055e+00
1.740000000000000000e+02,9.978172174811531292e+00
1.750000000000000000e+02,9.997036462298385828e+00
1.760000000000000000e+02,1.001569236050136702e+01
1.770000000000000000e+02,1.003413961709359192e+01
1.780000000000000000e+02,1.005237935622203338e+01
1.790000000000000000e+02,1.007041151411937641e+01
1.800000000000000000e+02,1.008823670057518562e+01
1.810000000000000000e+02,1.010585481150398834e+01
1.820000000000000000e+02,1.012326481274655166e+01
1.830000000000000000e+02,1.014046726005028809e+01
1.840000000000000000e+02,1.015746257002405706e+01
1.850000000000000000e+02,1.017424966539277875e+01
1.860000000000000000e+02,1.019082791541095823e+01
1.870000000000000000e+02,1.020719802696506839e+01
1.880000000000000000e+02,1.022335888698269812e+01
1.890000000000000000e+02,1.023930937725106816e+01
1.900000000000000000e+02,1.025504970961406670e+01
1.910000000000000000e+02,1.027057863093235035e+01
1.920000000000000000e+02,1.028589587891690904e+01
1.930000000000000000e+02,1.030100073280853756e+01
1.940000000000000000e+02,1.031589212970296821e+01
1.950000000000000000e+02,1.033056976583607245e+01
1.960000000000000000e+02,1.034503244466339922e+01
1.970000000000000000e+02,1.035927972504991956e+01
1.980000000000000000e+02,1.037331071377243319e+01
1.990000000000000000e+02,1.038712493915618928e+01
2.000000000000000000e+02,1.040072158754998810e+01
2.010000000000000000e+02,1.041410069465250920e+01
2.020000000000000000e+02,1.042726141169167775e+01
2.030000000000000000e+02,1.044020298279368220e+01
2.040000000000000000e+02,1.045292474335271216e+01
2.050000000000000000e+02,1.046542782855425102e+01
2.060000000000000000e+02,1.047771163309366926e+01
2.070000000000000000e+02,1.048977649106573473e+01
2.080000000000000000e+02,1.050162292196765002e+01
2.090000000000000000e+02,1.051325003997815166e+01
2.100000000000000000e+02,1.052465990211867997e+01
2.110000000000000000e+02,1.053585294191727684e+01
2.120000000000000000e+02,1.054683061785613774e+01
2.130000000000000000e+02,1.055759340753990294e+01
2.140000000000000000e+02,1.056814406708653742e+01
2.150000000000000000e+02,1.057848332001490554e+01
2.160000000000000000e+02,1.058861353185709397e+01
2.170000000000000000e+02,1.059853744440090750e+01
2.180000000000000000e+02,1.060825702877695953e+01
2.190000000000000000e+02,1.061777567378965514e+01
2.200000000000000000e+02,1.062709641200872746e+01
2.210000000000000000e+02,1.063622244131096117e+01
2.220000000000000000e+02,1.064515681456460250e+01
2.230000000000000000e+02,1.065390481386719657e+01
2.240000000000000000e+02,1.066246930013596383e+01
2.250000000000000000e+02,1.067085515437933729e+01
2.260000000000000000e+02,1.067906669688001209e+01
2.270000000000000000e+02,1.068710933275919750e+01
2.280000000000000000e+02,1.069498811249060033e+01
2.290000000000000000e+02,1.070270834917346647e+01
2.300000000000000000e+02,1.071027520989269277e+01
2.310000000000000000e+02,1.071769392198312865e+01
2.320000000000000000e+02,1.072497130051632119e+01
2.330000000000000000e+02,1.073211258840997928e+01
2.340000000000000000e+02,1.073912319386218073e+01
2.350000000000000000e+02,1.074600970422674173e+01
2.360000000000000000e+02,1.075277886736629362e+01
2.370000000000000000e+02,1.075943678310846074e+01
2.380000000000000000e+02,1.076598911053044993e+01
2.390000000000000000e+02,1.077244167700183475e+01
2.400000000000000000e+02,1.077880259407421093e+01
2.410000000000000000e+02,1.078507711263521784e+01
2.420000000000000000e+02,1.079127216409948353e+01
2.430000000000000000e+02,1.079739313857160532e+01
2.440000000000000000e+02,1.080344770565903723e+01
2.450000000000000000e+02,1.080944079325289309e+01
2.460000000000000000e+02,1.081537930694335792e+01
2.470000000000000000e+02,1.082126942067510811e+01
2.480000000000000000e+02,1.082711668116232850e+01
2.490000000000000000e+02,1.083292710899096534e+01
2.500000000000000000e+02,1.083870679788853941e+01
2.510000000000000000e+02,1.084446141697957700e+01
2.520000000000000000e+02,1.085019710820913730e+01
2.530000000000000000e+02,1.085591869612755644e+01
2.540000000000000000e+02,1.086163267170136137e+01
2.550000000000000000e+02,1.086734341706353035e+01
2.560000000000000000e+02,1.087305717725767984e+01
2.570000000000000000e+02,1.087877819285863978e+01
2.580000000000000000e+02,1.088451256393368816e+01
2.590000000000000000e+02,1.089026439069119689e+01
2.600000000000000000e+02,1.089604051660976758e+01
2.610000000000000000e+02,1.090184233867132590e+01
2.620000000000000000e+02,1.090767892179961684e+01
2.630000000000000000e+02,1.091355093746613925e+01
2.640000000000000000e+02,1.091946572944763538e+01
2.650000000000000000e+02,1.092542648979535258e+01
2.660000000000000000e+02,1.093144031383663695e+01
2.670000000000000000e+02,1.093750956719210166e+01
2.680000000000000000e+02,1.094363982868172869e+01
2.690000000000000000e+02,1.094983567369640909e+01
2.700000000000000000e+02,1.095610038668345609e+01
2.710000000000000000e+02,1.096244113063658432e+01
2.720000000000000000e+02,1.096885977831214021e+01
2.730000000000000000e+02,1.097536139704118163e+01
2.740000000000000000e+02,1.098195335572434672e+01
2.750000000000000000e+02,1.098863833001805013e+01
2.760000000000000000e+02,1.099542217275989131e+01
2.770000000000000000e+02,1.100230799469245824e+01
2.780000000000000000e+02,1.100930274821879706e+01
2.790000000000000000e+02,1.101640996780456483e+01
2.800000000000000000e+02,1.102363797890337338e+01
2.810000000000000000e+02,1.103099091854805103e+01
2.820000000000000000e+02,1.103847394959148609e+01
2.830000000000000000e+02,1.104609478763245178e+01
2.840000000000000000e+02,1.105385879579569064e+01
2.850000000000000000e+02,1.106177024314029644e+01
2.860000000000000000e+02,1.106983651432180160e+01
2.870000000000000000e+02,1.107806512828511813e+01
2.880000000000000000e+02,1.108646373501201410e+01
2.890000000000000000e+02,1.109504267965276725e+01
2.900000000000000000e+02,1.110380197144533554e+01
2.910000000000000000e+02,1.111275506102466260e+01
2.920000000000000000e+02,1.112191302050952579e+01
2.930000000000000000e+02,1.113127851199971197e+01
2.940000000000000000e+02,1.114086396360632847e+01
2.950000000000000000e+02,1.115067604234837617e+01
2.960000000000000000e+02,1.116072791778945827e+01
2.970000000000000000e+02,1.117103188241983958e+01
2.980000000000000000e+02,1.118159373616284036e+01
2.990000000000000000e+02,1.119242087952250486e+01
3.000000000000000000e+02,1.120352947586446746e+01
3.010000000000000000e+02,1.121492872255888784e+01
3.020000000000000000e+02,1.122662880932036877e+01
3.030000000000000000e+02,1.123864488756435165e+01
3.040000000000000000e+02,1.125098461824686957e+01
3.050000000000000000e+02,1.126365978030116466e+01
3.060000000000000000e+02,1.127668051079099243e+01
3.070000000000000000e+02,1.129005173496617509e+01
3.080000000000000000e+02,1.130379035444496161e+01
3.090000000000000000e+02,1.131789420611560182e+01
3.100000000000000000e+02,1.133236562863134544e+01
3.110000000000000000e+02,1.134721595030495500e+01
3.120000000000000000e+02,1.136243988826479523e+01
3.130000000000000000e+02,1.137803484676414101e+01
3.140000000000000000e+02,1.139398203735755111e+01
3.150000000000000000e+02,1.141026757092430444e+01
3.160000000000000000e+02,1.142687800517056473e+01
3.170000000000000000e+02,1.144377683765769049e+01
3.180000000000000000e+02,1.146092954469917480e+01
3.190000000000000000e+02,1.147829237482937437e+01
3.200000000000000000e+02,1.149580834174357591e+01
3.210000000000000000e+02,1.151342784203879965e+01
3.220000000000000000e+02,1.153108425863798558e+01
3.230000000000000000e+02,1.154871046687433100e+01
3.240000000000000000e+02,1.156624042074295033e+01
3.250000000000000000e+02,1.158361349451393352e+01
3.260000000000000000e+02,1.160076586656766295e+01
3.270000000000000000e+02,1.161765665484449883e+01
3.280000000000000000e+02,1.163424853903912570e+01
3.290000000000000000e+02,1.165051502322629595e+01
3.300000000000000000e+02,1.166644465563865651e+01
3.310000000000000000e+02,1.168203935543114369e+01
3.320000000000000000e+02,1.169730447873060974e+01
3.330000000000000000e+02,1.171225543162494453e+01
3.340000000000000000e+02,1.172690690693932503e+01
3.350000000000000000e+02,1.174127731569477362e+01
3.360000000000000000e+02,1.175538358175351128e+01
3.370000000000000000e+02,1.176924581511877399e+01
3.380000000000000000e+02,1.178287379127065115e+01
3.390000000000000000e+02,1.179628196579307264e+01
3.400000000000000000e+02,1.180948262666613857e+01
3.410000000000000000e+02,1.182248391275001786e+01
3.420000000000000000e+02,1.183529746732077825e+01
3.430000000000000000e+02,1.184793073103412198e+01
3.440000000000000000e+02,1.186039081724730515e+01
3.450000000000000000e+02,1.187268277342356981e+01
3.460000000000000000e+02,1.188481109575568695e+01
3.470000000000000000e+02,1.189678569094820837e+01
3.480000000000000000e+02,1.190860779104421496e+01
3.490000000000000000e+02,1.192028519903183792e+01
3.500000000000000000e+02,1.193181964540027806e+01
3.510000000000000000e+02,1.194321784465249792e+01
3.520000000000000000e+02,1.195448137351754525e+01
3.530000000000000000e+02,1.196561571364204646e+01
3.540000000000000000e+02,1.197662099413123471e+01
3.550000000000000000e+02,1.198750564520578088e+01
3.560000000000000000e+02,1.199826737730766446e+01
3.570000000000000000e+02,1.200891121643597259e+01
3.580000000000000000e+02,1.201944068851827829e+01
3.590000000000000000e+02,1.202985953191736535e+01
3.600000000000000000e+02,1.204016765867273975e+01
3.610000000000000000e+02,1.205036820086666616e+01
3.620000000000000000e+02,1.206046345970859690e+01
3.630000000000000000e+02,1.207045515392864310e+01
3.640000000000000000e+02,1.208034651045275609e+01
3.650000000000000000e+02,1.209013864864915178e+01
3.660000000000000000e+02,1.209983299635177367e+01
3.670000000000000000e+02,1.210943240517362263e+01
3.680000000000000000e+02,1.211893827018967862e+01
3.690000000000000000e+02,1.212835253113478906e+01
3.700000000000000000e+02,1.213767504628180660e+01
3.710000000000000000e+02,1.214690971748837889e+01
3.720000000000000000e+02,1.215605685482072751e+01
3.730000000000000000e+02,1.216511826620139125e+01
3.740000000000000000e+02,1.217409440299230283e+01
3.750000000000000000e+02,1.218298657842139221e+01
3.760000000000000000e+02,1.219179554382577813e+01
3.770000000000000000e+02,1.220052566082918588e+01
3.780000000000000000e+02,1.220917568781955964e+01
3.790000000000000000e+02,1.221774689702306382e+01
3.800000000000000000e+02,1.222624109911054902e+01
3.810000000000000000e+02,1.223465868454781003e+01
3.820000000000000000e+02,1.224300121066527858e+01
3.830000000000000000e+02,1.225127053591474358e+01
3.840000000000000000e+02,1.225946453422266380e+01
3.850000000000000000e+02,1.226758777798920796e+01
3.860000000000000000e+02,1.227563867637574724e+01
3.870000000000000000e+02,1.228362029961055768e+01
3.880000000000000000e+02,1.229153190334899470e+01
3.890000000000000000e+02,1.229937529867767054e+01
3.900000000000000000e+02,1.230715066250873591e+01
3.910000000000000000e+02,1.231485832331046204e+01
3.920000000000000000e+02,1.232250076458263877e+01
3.930000000000000000e+02,1.233007645182715528e+01
3.940000000000000000e+02,1.233758693240919868e+01
3.950000000000000000e+02,1.234503581827106977e+01
3.960000000000000000e+02,1.235241995100079215e+01
3.970000000000000000e+02,1.235974200934881040e+01
3.980000000000000000e+02,1.236700213195996767e+01
