# Time [s], Convective Heat Transfer Coefficient [W/m2K]
1.000000000000000000e+00,0.000000000000000000e+00
2.000000000000000000e+00,0.000000000000000000e+00
3.000000000000000000e+00,0.000000000000000000e+00
4.000000000000000000e+00,0.000000000000000000e+00
5.000000000000000000e+00,3.040000000141642594e-02
6.000000000000000000e+00,5.366129469656785722e-02
7.000000000000000000e+00,8.859284558557586897e-02
8.000000000000000000e+00,1.359186133584405765e-01
9.000000000000000000e+00,1.966359352664734106e-01
1.000000000000000000e+01,2.708355363270222860e-01
1.100000000000000000e+01,3.581071254790347824e-01
1.200000000000000000e+01,4.574814043813725251e-01
1.300000000000000000e+01,5.677233037028808216e-01
1.400000000000000000e+01,6.873909638181077142e-01
1.500000000000000000e+01,8.150273519218156348e-01
1.600000000000000000e+01,9.492346005624919814e-01
1.700000000000000000e+01,1.088715483537444850e+00
1.800000000000000000e+01,1.232316418641863143e+00
1.900000000000000000e+01,1.379018892102040539e+00
2.000000000000000000e+01,1.527944484738707365e+00
2.100000000000000000e+01,1.678338584564876612e+00
2.200000000000000000e+01,1.829555340747803349e+00
2.300000000000000000e+01,1.981048958036494945e+00
2.400000000000000000e+01,2.132357452216563143e+00
2.500000000000000000e+01,2.283088732301273627e+00
2.600000000000000000e+01,2.432901571984996902e+00
2.700000000000000000e+01,2.581518105983164002e+00
2.800000000000000000e+01,2.728700807661890604e+00
2.900000000000000000e+01,2.874241930785071730e+00
3.000000000000000000e+01,3.017982176390581639e+00
3.100000000000000000e+01,3.159788903554864969e+00
3.200000000000000000e+01,3.299553581506801780e+00
3.300000000000000000e+01,3.437198581182630441e+00
3.400000000000000000e+01,3.572671086829022791e+00
3.500000000000000000e+01,3.705938942812080583e+00
3.600000000000000000e+01,3.836980604605572776e+00
3.700000000000000000e+01,3.965792948952038710e+00
3.800000000000000000e+01,4.092385484190295131e+00
3.900000000000000000e+01,4.216765092376594914e+00
4.000000000000000000e+01,4.338951054912631555e+00
4.100000000000000000e+01,4.458963382342777670e+00
4.200000000000000000e+01,4.576827503094927252e+00
4.300000000000000000e+01,4.692573949903486863e+00
4.400000000000000000e+01,4.806240226621117273e+00
4.500000000000000000e+01,4.917859804583711636e+00
4.600000000000000000e+01,5.027467698018130982e+00
4.700000000000000000e+01,5.135107412190662579e+00
4.800000000000000000e+01,5.240816827250023735e+00
4.900000000000000000e+01,5.344635438745637401e+00
5.000000000000000000e+01,5.446601898788750340e+00
5.100000000000000000e+01,5.546750745933727522e+00
5.200000000000000000e+01,5.645123249748229100e+00
5.300000000000000000e+01,5.741753455002410078e+00
5.400000000000000000e+01,5.836683206213329811e+00
5.500000000000000000e+01,5.929948144274343136e+00
5.600000000000000000e+01,6.021585217665760048e+00
5.700000000000000000e+01,6.111631554605954086e+00
5.800000000000000000e+01,6.200122783488628109e+00
5.900000000000000000e+01,6.287096798534604680e+00
6.000000000000000000e+01,6.372586874932001599e+00
6.100000000000000000e+01,6.456626117342842974e+00
6.200000000000000000e+01,6.539248286234175644e+00
6.300000000000000000e+01,6.620481489064161451e+00
6.400000000000000000e+01,6.700357250174781676e+00
6.500000000000000000e+01,6.778904620911875512e+00
6.600000000000000000e+01,6.856155130656171437e+00
6.700000000000000000e+01,6.932135643672150849e+00
6.800000000000000000e+01,7.006873580658758094e+00
6.900000000000000000e+01,7.080401490462524094e+00
7.000000000000000000e+01,7.152745059520038140e+00
7.100000000000000000e+01,7.223931164424022278e+00
7.200000000000000000e+01,7.293985971865485141e+00
7.300000000000000000e+01,7.362934336704757499e+00
7.400000000000000000e+01,7.430798844010148230e+00
7.500000000000000000e+01,7.497602077582161684e+00
7.600000000000000000e+01,7.563365991460235804e+00
7.700000000000000000e+01,7.628111146638128837e+00
7.800000000000000000e+01,7.691861168926547698e+00
7.900000000000000000e+01,7.754635874108111615e+00
8.000000000000000000e+01,7.816455204972429627e+00
8.100000000000000000e+01,7.877339404328500549e+00
8.200000000000000000e+01,7.937308616879632517e+00
8.300000000000000000e+01,7.996382528323889183e+00
8.400000000000000000e+01,8.054580397774396161e+00
8.500000000000000000e+01,8.111919842739720110e+00
8.600000000000000000e+01,8.168418707627804309e+00
8.700000000000000000e+01,8.224093317966888250e+00
8.800000000000000000e+01,8.278959265398137646e+00
8.900000000000000000e+01,8.333031287409799148e+00
9.000000000000000000e+01,8.386323988149595010e+00
9.100000000000000000e+01,8.438851518780106531e+00
9.200000000000000000e+01,8.490627281674315796e+00
9.300000000000000000e+01,8.541665420637990280e+00
9.400000000000000000e+01,8.591980144814810316e+00
9.500000000000000000e+01,8.641584943918227069e+00
9.600000000000000000e+01,8.690492941900538781e+00
9.700000000000000000e+01,8.738717533313128172e+00
9.800000000000000000e+01,8.786272978385012422e+00
9.900000000000000000e+01,8.833170310156154059e+00
1.000000000000000000e+02,8.879420624894653002e+00
1.010000000000000000e+02,8.925035669007826300e+00
1.020000000000000000e+02,8.970023735567624001e+00
1.030000000000000000e+02,9.014395887812975516e+00
1.040000000000000000e+02,9.058161831695175081e+00
1.050000000000000000e+02,9.101327863735358292e+00
1.060000000000000000e+02,9.143905852265891809e+00
1.070000000000000000e+02,9.185903133404034193e+00
1.080000000000000000e+02,9.227329043089955718e+00
1.090000000000000000e+02,9.268192377279536487e+00
1.100000000000000000e+02,9.308502363901983045e+00
1.110000000000000000e+02,9.348265566298215035e+00
1.120000000000000000e+02,9.387491576511074243e+00
1.130000000000000000e+02,9.426187754306718958e+00
1.140000000000000000e+02,9.464360627549256222e+00
1.150000000000000000e+02,9.502016316125788009e+00
1.160000000000000000e+02,9.539162350368110665e+00
1.170000000000000000e+02,9.575804427012760911e+00
1.180000000000000000e+02,9.611945340210310107e+00
1.190000000000000000e+02,9.647590875175911407e+00
1.200000000000000000e+02,9.682747201851247709e+00
1.210000000000000000e+02,9.717418755261867602e+00
1.220000000000000000e+02,9.751610267709500235e+00
1.230000000000000000e+02,9.785326514733622361e+00
1.240000000000000000e+02,9.818571707507230073e+00
1.250000000000000000e+02,9.851350477637202729e+00
1.260000000000000000e+02,9.883665347729214901e+00
1.270000000000000000e+02,9.915517633612823900e+00
1.280000000000000000e+02,9.946909966642342837e+00
1.290000000000000000e+02,9.977843077189291421e+00
1.300000000000000000e+02,1.000831631980207170e+01
1.310000000000000000e+02,1.003832933921851200e+01
1.320000000000000000e+02,1.006788125107370035e+01
1.330000000000000000e+02,1.009697054016857543e+01
1.340000000000000000e+02,1.012559496161275341e+01
1.350000000000000000e+02,1.015375212579994191e+01
1.360000000000000000e+02,1.018143938592818643e+01
1.370000000000000000e+02,1.020865372893003098e+01
1.380000000000000000e+02,1.023539211644797930e+01
1.390000000000000000e+02,1.026165003622361205e+01
1.400000000000000000e+02,1.028742286218519553e+01
1.410000000000000000e+02,1.031270475120780006e+01
1.420000000000000000e+02,1.033749129578026604e+01
1.430000000000000000e+02,1.036177577685696782e+01
1.440000000000000000e+02,1.038555192457181597e+01
1.450000000000000000e+02,1.040881454901092518e+01
1.460000000000000000e+02,1.043155628226747389e+01
1.470000000000000000e+02,1.045377276007180001e+01
1.480000000000000000e+02,1.047545903104559528e+01
1.490000000000000000e+02,1.049661105030570063e+01
1.500000000000000000e+02,1.051722502049941177e+01
1.510000000000000000e+02,1.053729811966710095e+01
1.520000000000000000e+02,1.055682868809589081e+01
1.530000000000000000e+02,1.057581515661140870e+01
1.540000000000000000e+02,1.059425854498879538e+01
1.550000000000000000e+02,1.061216054431595524e+01
1.560000000000000000e+02,1.062952526686085442e+01
1.570000000000000000e+02,1.064635807200247442e+01
1.580000000000000000e+02,1.066266606456708743e+01
1.590000000000000000e+02,1.067845899674610344e+01
1.600000000000000000e+02,1.069374831440968165e+01
1.610000000000000000e+02,1.070854867270784005e+01
1.620000000000000000e+02,1.072287606980397889e+01
1.630000000000000000e+02,1.073674713036600181e+01
1.640000000000000000e+02,1.075018194635864965e+01
1.650000000000000000e+02,1.076320111727961226e+01
1.660000000000000000e+02,1.077582747259386231e+01
1.670000000000000000e+02,1.078808455196716665e+01
1.680000000000000000e+02,1.079999801746282628e+01
1.690000000000000000e+02,1.081159454371365491e+01
1.700000000000000000e+02,1.082290072274007819e+01
1.710000000000000000e+02,1.083394527292892917e+01
1.720000000000000000e+02,1.084475544738927866e+01
1.730000000000000000e+02,1.085535934534566138e+01
1.740000000000000000e+02,1.086578621184123961e+01
1.750000000000000000e+02,1.087606416007539067e+01
1.760000000000000000e+02,1.088622019005727459e+01
1.770000000000000000e+02,1.089628119121979566e+01
1.780000000000000000e+02,1.090627473559945848e+01
1.790000000000000000e+02,1.091622779810091082e+01
1.800000000000000000e+02,1.092616509720812523e+01
1.810000000000000000e+02,1.093611303148724723e+01
1.820000000000000000e+02,1.094609477905620487e+01
1.830000000000000000e+02,1.095613549407901210e+01
1.840000000000000000e+02,1.096625965804208214e+01
1.850000000000000000e+02,1.097648797323084757e+01
1.860000000000000000e+02,1.098684495776377901e+01
1.870000000000000000e+02,1.099735251628547061e+01
1.880000000000000000e+02,1.100803227703714171e+01
1.890000000000000000e+02,1.101890732313079013e+01
1.900000000000000000e+02,1.103000063077616133e+01
1.910000000000000000e+02,1.104133477312449330e+01
1.920000000000000000e+02,1.105293162690111686e+01
1.930000000000000000e+02,1.106481705405133553e+01
1.940000000000000000e+02,1.107701617164812014e+01
1.950000000000000000e+02,1.108955572512042309e+01
1.960000000000000000e+02,1.110246224932700976e+01
1.970000000000000000e+02,1.111576622156930760e+01
1.980000000000000000e+02,1.112949386624992876e+01
1.990000000000000000e+02,1.114368217324845745e+01
2.000000000000000000e+02,1.115836679433974155e+01
2.010000000000000000e+02,1.117358568450182510e+01
2.020000000000000000e+02,1.118937866063538067e+01
2.030000000000000000e+02,1.120579218207190131e+01
2.040000000000000000e+02,1.122287028247844631e+01
2.050000000000000000e+02,1.124066557644642650e+01
2.060000000000000000e+02,1.125923111947584410e+01
2.070000000000000000e+02,1.127862501954647811e+01
2.080000000000000000e+02,1.129890678203897814e+01
2.090000000000000000e+02,1.132013353517179510e+01
2.100000000000000000e+02,1.134237243877748469e+01
2.110000000000000000e+02,1.136567644936947552e+01
2.120000000000000000e+02,1.139010082284505820e+01
2.130000000000000000e+02,1.141568004562774874e+01
2.140000000000000000e+02,1.144243025403214631e+01
2.150000000000000000e+02,1.147033847783959537e+01
2.160000000000000000e+02,1.149935191277914015e+01
2.170000000000000000e+02,1.152934780355969657e+01
2.180000000000000000e+02,1.156014469485996266e+01
2.190000000000000000e+02,1.159147660971640370e+01
2.200000000000000000e+02,1.162300867698001916e+01
2.210000000000000000e+02,1.165436428803819169e+01
2.220000000000000000e+02,1.168517847428284107e+01
2.230000000000000000e+02,1.171516882014160110e+01
2.240000000000000000e+02,1.174417997431255145e+01
2.250000000000000000e+02,1.177220328811785777e+01
2.260000000000000000e+02,1.179931998969677842e+01
2.270000000000000000e+02,1.182564853327160392e+01
2.280000000000000000e+02,1.185128805963978138e+01
2.290000000000000000e+02,1.187631436867440549e+01
2.300000000000000000e+02,1.190077941959644470e+01
2.310000000000000000e+02,1.192472825619058163e+01
2.320000000000000000e+02,1.194819573914545430e+01
2.330000000000000000e+02,1.197121363530628813e+01
2.340000000000000000e+02,1.199380833913707001e+01
2.350000000000000000e+02,1.201600253192169099e+01
2.360000000000000000e+02,1.203781574894705564e+01
2.370000000000000000e+02,1.205926927745123933e+01
2.380000000000000000e+02,1.208037643023868846e+01
2.390000000000000000e+02,1.210115148610734082e+01
2.400000000000000000e+02,1.212161039670506035e+01
2.410000000000000000e+02,1.214176441274002549e+01
2.420000000000000000e+02,1.216162333327893030e+01
2.430000000000000000e+02,1.218119797921306535e+01
2.440000000000000000e+02,1.220049876533756184e+01
2.450000000000000000e+02,1.221953437797978737e+01
2.460000000000000000e+02,1.223831141447730353e+01
2.470000000000000000e+02,1.225683893713468109e+01
2.480000000000000000e+02,1.227512369970682826e+01
2.490000000000000000e+02,1.229317312774608517e+01
2.500000000000000000e+02,1.231099345731708006e+01
2.510000000000000000e+02,1.232859121754422205e+01
2.520000000000000000e+02,1.234597007954073078e+01
2.530000000000000000e+02,1.236313802048876020e+01
2.540000000000000000e+02,1.238009848234194443e+01
2.550000000000000000e+02,1.239685591957944943e+01
2.560000000000000000e+02,1.241341654625137636e+01
2.570000000000000000e+02,1.242978422252642723e+01
2.580000000000000000e+02,1.244596313183130931e+01
2.590000000000000000e+02,1.246195845602559338e+01
2.600000000000000000e+02,1.247777185261039357e+01
2.610000000000000000e+02,1.249340802483645341e+01
2.620000000000000000e+02,1.250887042010607786e+01
2.630000000000000000e+02,1.252416214192762922e+01
2.640000000000000000e+02,1.253928707155971267e+01
2.650000000000000000e+02,1.255424777977630235e+01
2.660000000000000000e+02,1.256904769194731308e+01
2.670000000000000000e+02,1.258369004366159416e+01
2.680000000000000000e+02,1.259817692478461559e+01
2.690000000000000000e+02,1.261251054411056494e+01
2.700000000000000000e+02,1.262669388922109093e+01
2.710000000000000000e+02,1.264072910654049764e+01
2.720000000000000000e+02,1.265462087368346999e+01
2.730000000000000000e+02,1.266836820306372680e+01
2.740000000000000000e+02,1.268197512999040022e+01
2.750000000000000000e+02,1.269544346883705899e+01
2.760000000000000000e+02,1.270877580863702150e+01
2.770000000000000000e+02,1.272197376950665415e+01
2.780000000000000000e+02,1.273503960095719734e+01
2.790000000000000000e+02,1.274797538341709213e+01
2.800000000000000000e+02,1.276078223953519952e+01
2.810000000000000000e+02,1.277346278335440388e+01
2.820000000000000000e+02,1.278601766883358870e+01
2.830000000000000000e+02,1.279844932549263170e+01
2.840000000000000000e+02,1.281076022956893468e+01
2.850000000000000000e+02,1.282295069699155299e+01
2.860000000000000000e+02,1.283502345182084525e+01
2.870000000000000000e+02,1.284697870995517022e+01
2.880000000000000000e+02,1.285881929992730655e+01
2.890000000000000000e+02,1.287054576310866949e+01
2.900000000000000000e+02,1.288216011333550526e+01
2.910000000000000000e+02,1.289366378184212003e+01
2.920000000000000000e+02,1.290505811471596687e+01
2.930000000000000000e+02,1.291634409317049403e+01
2.940000000000000000e+02,1.292752324746835235e+01
2.950000000000000000e+02,1.293859723279671137e+01
2.960000000000000000e+02,1.294956713034418705e+01
2.970000000000000000e+02,1.296043380078208074e+01
2.980000000000000000e+02,1.297119865154759921e+01
2.990000000000000000e+02,1.298186259055619551e+01
3.000000000000000000e+02,1.299242693195506959e+01
3.010000000000000000e+02,1.300289332372791584e+01
3.020000000000000000e+02,1.301326284657056576e+01
3.030000000000000000e+02,1.302353615660372910e+01
3.040000000000000000e+02,1.303371466026140091e+01
3.050000000000000000e+02,1.304379920132522841e+01
3.060000000000000000e+02,1.305379102715365036e+01
3.070000000000000000e+02,1.306369055105166588e+01
3.080000000000000000e+02,1.307349982430456059e+01
3.090000000000000000e+02,1.308321889948636141e+01
3.100000000000000000e+02,1.309284973778705741e+01
3.110000000000000000e+02,1.310239237657981271e+01
3.120000000000000000e+02,1.311184753092823208e+01
3.130000000000000000e+02,1.312121692870424638e+01
3.140000000000000000e+02,1.313050160609378203e+01
3.150000000000000000e+02,1.313970204823522714e+01
3.160000000000000000e+02,1.314881975041949147e+01
3.170000000000000000e+02,1.315785389809533790e+01
3.180000000000000000e+02,1.316680718966772190e+01
3.190000000000000000e+02,1.317568001363030916e+01
3.200000000000000000e+02,1.318447228248531289e+01
3.210000000000000000e+02,1.319318552075566231e+01
3.220000000000000000e+02,1.320182124247061850e+01
3.230000000000000000e+02,1.321037981106893078e+01
3.240000000000000000e+02,1.321886145181053962e+01
3.250000000000000000e+02,1.322726725628458766e+01
3.260000000000000000e+02,1.323559797417039618e+01
3.270000000000000000e+02,1.324385468286693879e+01
3.280000000000000000e+02,1.325203725243489394e+01
3.290000000000000000e+02,1.326014754869406254e+01
3.300000000000000000e+02,1.326818583040771315e+01
3.310000000000000000e+02,1.327615235306032915e+01
3.320000000000000000e+02,1.328404856294232239e+01
3.330000000000000000e+02,1.329187477113677573e+01
3.340000000000000000e+02,1.329963161624556989e+01
3.350000000000000000e+02,1.330732012862588753e+01
3.360000000000000000e+02,1.331494047366390276e+01
3.370000000000000000e+02,1.332249373751651156e+01
3.380000000000000000e+02,1.332998053848145581e+01
3.390000000000000000e+02,1.333740076647059247e+01
3.400000000000000000e+02,1.334475647935895282e+01
3.410000000000000000e+02,1.335204768877036585e+01
3.420000000000000000e+02,1.335927440464370264e+01
3.430000000000000000e+02,1.336643820773337055e+01
3.440000000000000000e+02,1.337353877236047239e+01
3.450000000000000000e+02,1.338057753797833271e+01
3.460000000000000000e+02,1.338755423829553060e+01
3.470000000000000000e+02,1.339447036827473170e+01
3.480000000000000000e+02,1.340132604646131043e+01
3.490000000000000000e+02,1.340812184526900808e+01
3.500000000000000000e+02,1.341485878870733650e+01
3.510000000000000000e+02,1.342153659561670764e+01
3.520000000000000000e+02,1.342815621805101323e+01
3.530000000000000000e+02,1.343471873267163907e+01
3.540000000000000000e+02,1.344122417393378832e+01
3.550000000000000000e+02,1.344767270433147210e+01
3.560000000000000000e+02,1.345406538982793165e+01
3.570000000000000000e+02,1.346040309725890083e+01
3.580000000000000000e+02,1.346668520436533356e+01
3.590000000000000000e+02,1.347291341159712452e+01
3.600000000000000000e+02,1.347908786562280525e+01
3.610000000000000000e+02,1.348520838956591206e+01
3.620000000000000000e+02,1.349127667113342532e+01
3.630000000000000000e+02,1.349729201337122575e+01
3.640000000000000000e+02,1.350325577508908204e+01
3.650000000000000000e+02,1.350916841121400047e+01
3.660000000000000000e+02,1.351502941271707137e+01
3.670000000000000000e+02,1.352083993612790636e+01
3.680000000000000000e+02,1.352660100501473117e+01
3.690000000000000000e+02,1.353231223213970758e+01
3.700000000000000000e+02,1.353797463574075621e+01
3.710000000000000000e+02,1.354358827241891383e+01
3.720000000000000000e+02,1.354915370775932715e+01
3.730000000000000000e+02,1.355467175940757940e+01
3.740000000000000000e+02,1.356014184087409724e+01
3.750000000000000000e+02,1.356556514775981270e+01
3.760000000000000000e+02,1.357094229890621584e+01
3.770000000000000000e+02,1.357627365629027949e+01
3.780000000000000000e+02,1.358155900875457611e+01
3.790000000000000000e+02,1.358679960344014148e+01
3.800000000000000000e+02,1.359199516208683711e+01
3.810000000000000000e+02,1.359714654616277585e+01
3.820000000000000000e+02,1.360225391777951742e+01
3.830000000000000000e+02,1.360731769066746111e+01
3.840000000000000000e+02,1.361233833973198060e+01
3.850000000000000000e+02,1.361731602208159764e+01
3.860000000000000000e+02,1.362225152444995047e+01
3.870000000000000000e+02,1.362714500019105834e+01
3.880000000000000000e+02,1.363199691646943101e+01
3.890000000000000000e+02,1.363680736072948818e+01
3.900000000000000000e+02,1.364157711142190266e+01
3.910000000000000000e+02,1.364630600123475013e+01
3.920000000000000000e+02,1.365099511899827966e+01
3.930000000000000000e+02,1.365564429440783734e+01
3.940000000000000000e+02,1.366025429796599511e+01
3.950000000000000000e+02,1.366482483173145646e+01
3.960000000000000000e+02,1.366935672561288939e+01
3.970000000000000000e+02,1.367385011802230288e+01
3.980000000000000000e+02,1.367830583464343697e+01
