# Time [s], Convective Heat Transfer Coefficient [W/m2K]
1.000000000000000000e+00,0.000000000000000000e+00
2.000000000000000000e+00,0.000000000000000000e+00
3.000000000000000000e+00,0.000000000000000000e+00
4.000000000000000000e+00,0.000000000000000000e+00
5.000000000000000000e+00,3.040000000141642594e-02
6.000000000000000000e+00,5.366129469656785722e-02
7.000000000000000000e+00,8.889013924160209246e-02
8.000000000000000000e+00,1.366747825388013871e-01
9.000000000000000000e+00,1.976599423668176647e-01
1.000000000000000000e+01,2.722642714127737062e-01
1.100000000000000000e+01,3.600229015883337769e-01
1.200000000000000000e+01,4.599735701512938091e-01
1.300000000000000000e+01,5.708584634764934940e-01
1.400000000000000000e+01,6.912391306578923311e-01
1.500000000000000000e+01,8.196533600485212956e-01
1.600000000000000000e+01,9.546869735215594011e-01
1.700000000000000000e+01,1.095053467760522148e+00
1.800000000000000000e+01,1.239589465039950822e+00
1.900000000000000000e+01,1.387269615191763616e+00
2.000000000000000000e+01,1.537215872856486643e+00
2.100000000000000000e+01,1.688667197626992467e+00
2.200000000000000000e+01,1.840977031656997331e+00
2.300000000000000000e+01,1.993592726060233966e+00
2.400000000000000000e+01,2.146045694249398839e+00
2.500000000000000000e+01,2.297948364774971441e+00
2.600000000000000000e+01,2.448957733106660761e+00
2.700000000000000000e+01,2.598791878740971395e+00
2.800000000000000000e+01,2.747208121598731623e+00
2.900000000000000000e+01,2.894002532999280675e+00
3.000000000000000000e+01,3.039008129747938103e+00
3.100000000000000000e+01,3.182078046369821944e+00
3.200000000000000000e+01,3.323101779501571151e+00
3.300000000000000000e+01,3.461993519168411471e+00
3.400000000000000000e+01,3.598677496140929133e+00
3.500000000000000000e+01,3.733119259479175334e+00
3.600000000000000000e+01,3.865288622826430487e+00
3.700000000000000000e+01,3.995173715042769302e+00
3.800000000000000000e+01,4.122778486460369152e+00
3.900000000000000000e+01,4.248103849138107790e+00
4.000000000000000000e+01,4.371171895914392813e+00
4.100000000000000000e+01,4.491998422441559669e+00
4.200000000000000000e+01,4.610613580571945924e+00
4.300000000000000000e+01,4.727042317848403563e+00
4.400000000000000000e+01,4.841321185458749454e+00
4.500000000000000000e+01,4.953481926613903852e+00
4.600000000000000000e+01,5.063571955117978085e+00
4.700000000000000000e+01,5.171627308145994917e+00
4.800000000000000000e+01,5.277692041892493080e+00
4.900000000000000000e+01,5.381816448577085410e+00
5.000000000000000000e+01,5.484039585525943394e+00
5.100000000000000000e+01,5.584406127947725729e+00
5.200000000000000000e+01,5.682953244965073480e+00
5.300000000000000000e+01,5.779730151945618566e+00
5.400000000000000000e+01,5.874774031828990495e+00
5.500000000000000000e+01,5.968124554705801721e+00
5.600000000000000000e+01,6.059820362491983303e+00
5.700000000000000000e+01,6.149903028566197527e+00
5.800000000000000000e+01,6.238411159951762208e+00
5.900000000000000000e+01,6.325385784340190831e+00
6.000000000000000000e+01,6.410861931785316159e+00
6.100000000000000000e+01,6.494878292611944381e+00
6.200000000000000000e+01,6.577466897120689104e+00
6.300000000000000000e+01,6.658664906141253503e+00
6.400000000000000000e+01,6.738504419055744599e+00
6.500000000000000000e+01,6.817016017143997964e+00
6.600000000000000000e+01,6.894231339960695593e+00
6.700000000000000000e+01,6.970179789125469760e+00
6.800000000000000000e+01,7.044887072653295057e+00
6.900000000000000000e+01,7.118385250347408544e+00
7.000000000000000000e+01,7.190702327899259672e+00
7.100000000000000000e+01,7.261865071489020274e+00
7.200000000000000000e+01,7.331900845177122150e+00
7.300000000000000000e+01,7.400835825999408257e+00
7.400000000000000000e+01,7.468695515885930725e+00
7.500000000000000000e+01,7.535503551274501888e+00
7.600000000000000000e+01,7.601283068707286539e+00
7.700000000000000000e+01,7.666055940072513231e+00
7.800000000000000000e+01,7.729843456191249906e+00
7.900000000000000000e+01,7.792666366250897703e+00
8.000000000000000000e+01,7.854543776055092685e+00
8.100000000000000000e+01,7.915495698410317971e+00
8.200000000000000000e+01,7.975543532590400275e+00
8.300000000000000000e+01,8.034703614034434338e+00
8.400000000000000000e+01,8.092996157548363101e+00
8.500000000000000000e+01,8.150438814010909638e+00
8.600000000000000000e+01,8.207049976922196066e+00
8.700000000000000000e+01,8.262847361175026606e+00
8.800000000000000000e+01,8.317847373105541564e+00
8.900000000000000000e+01,8.372065364257917253e+00
9.000000000000000000e+01,8.425516194556125882e+00
9.100000000000000000e+01,8.478213449959676851e+00
9.200000000000000000e+01,8.530171130260789880e+00
9.300000000000000000e+01,8.581402830705016527e+00
9.400000000000000000e+01,8.631921924737094187e+00
9.500000000000000000e+01,8.681740802323693273e+00
9.600000000000000000e+01,8.730872616813405429e+00
9.700000000000000000e+01,8.779328966781772436e+00
9.800000000000000000e+01,8.827122987773853069e+00
9.900000000000000000e+01,8.874268232441822946e+00
1.000000000000000000e+02,8.920776299064593573e+00
1.010000000000000000e+02,8.966656353325676676e+00
1.020000000000000000e+02,9.011920297991725448e+00
1.030000000000000000e+02,9.056578643390064798e+00
1.040000000000000000e+02,9.100640861114783320e+00
1.050000000000000000e+02,9.144115716138578875e+00
1.060000000000000000e+02,9.187009221515991086e+00
1.070000000000000000e+02,9.229332461994367520e+00
1.080000000000000000e+02,9.271093466866030752e+00
1.090000000000000000e+02,9.312298698806557695e+00
1.100000000000000000e+02,9.352958208692269793e+00
1.110000000000000000e+02,9.393079645665944000e+00
1.120000000000000000e+02,9.432670861126846162e+00
1.130000000000000000e+02,9.471739380441039913e+00
1.140000000000000000e+02,9.510292806650198827e+00
1.150000000000000000e+02,9.548335481181567275e+00
1.160000000000000000e+02,9.585874473693657194e+00
1.170000000000000000e+02,9.622918086708407870e+00
1.180000000000000000e+02,9.659468032663642845e+00
1.190000000000000000e+02,9.695529519354748160e+00
1.200000000000000000e+02,9.731107783099201214e+00
1.210000000000000000e+02,9.766207229625884167e+00
1.220000000000000000e+02,9.800832317573853203e+00
1.230000000000000000e+02,9.834987315252254447e+00
1.240000000000000000e+02,9.868673423164137759e+00
1.250000000000000000e+02,9.901896876680279291e+00
1.260000000000000000e+02,9.934660239314881736e+00
1.270000000000000000e+02,9.966964880510488456e+00
1.280000000000000000e+02,9.998812652557917957e+00
1.290000000000000000e+02,1.003020540901830060e+01
1.300000000000000000e+02,1.006114060962754841e+01
1.310000000000000000e+02,1.009161938336075615e+01
1.320000000000000000e+02,1.012163978876736081e+01
1.330000000000000000e+02,1.015119883340425666e+01
1.340000000000000000e+02,1.018029588911609729e+01
1.350000000000000000e+02,1.020892790445173404e+01
1.360000000000000000e+02,1.023709036261186078e+01
1.370000000000000000e+02,1.026478142753392397e+01
1.380000000000000000e+02,1.029199744740114930e+01
1.390000000000000000e+02,1.031873266866715433e+01
1.400000000000000000e+02,1.034498136302481619e+01
1.410000000000000000e+02,1.037073814698896257e+01
1.420000000000000000e+02,1.039599634247176674e+01
1.430000000000000000e+02,1.042075123528359093e+01
1.440000000000000000e+02,1.044499508652957864e+01
1.450000000000000000e+02,1.046872007929609616e+01
1.460000000000000000e+02,1.049192182113912430e+01
1.470000000000000000e+02,1.051459248515290845e+01
1.480000000000000000e+02,1.053672794074618402e+01
1.490000000000000000e+02,1.055832252385603631e+01
1.500000000000000000e+02,1.057937199042181575e+01
1.510000000000000000e+02,1.059987421123494755e+01
1.520000000000000000e+02,1.061982642789176978e+01
1.530000000000000000e+02,1.063922650159330807e+01
1.540000000000000000e+02,1.065807712303841548e+01
1.550000000000000000e+02,1.067637894803371701e+01
1.560000000000000000e+02,1.069413636434670778e+01
1.570000000000000000e+02,1.071135610460295418e+01
1.580000000000000000e+02,1.072804751779144183e+01
1.590000000000000000e+02,1.074422121669903873e+01
1.600000000000000000e+02,1.075989038138211207e+01
1.610000000000000000e+02,1.077507063069063342e+01
1.620000000000000000e+02,1.078977949686559157e+01
1.630000000000000000e+02,1.080403811750520049e+01
1.640000000000000000e+02,1.081786740190093532e+01
1.650000000000000000e+02,1.083129214056383560e+01
1.660000000000000000e+02,1.084433679264483175e+01
1.670000000000000000e+02,1.085703136559033943e+01
1.680000000000000000e+02,1.086940175637050743e+01
1.690000000000000000e+02,1.088147940403418623e+01
1.700000000000000000e+02,1.089329680425224112e+01
1.710000000000000000e+02,1.090488455984596072e+01
1.720000000000000000e+02,1.091627485225504479e+01
1.730000000000000000e+02,1.092749957387367488e+01
1.740000000000000000e+02,1.093859102566279695e+01
1.750000000000000000e+02,1.094958211628343037e+01
1.760000000000000000e+02,1.096050441337721892e+01
1.770000000000000000e+02,1.097138981444191685e+01
1.780000000000000000e+02,1.098226860483734590e+01
1.790000000000000000e+02,1.099317363951411863e+01
1.800000000000000000e+02,1.100413557947440246e+01
1.810000000000000000e+02,1.101518204228463382e+01
1.820000000000000000e+02,1.102634330889701175e+01
1.830000000000000000e+02,1.103764835140696121e+01
1.840000000000000000e+02,1.104912800309955934e+01
1.850000000000000000e+02,1.106081081547930545e+01
1.860000000000000000e+02,1.107272736797394153e+01
1.870000000000000000e+02,1.108490327918571516e+01
1.880000000000000000e+02,1.109737017920581437e+01
1.890000000000000000e+02,1.111016373043256422e+01
1.900000000000000000e+02,1.112331097820157311e+01
1.910000000000000000e+02,1.113684911963172652e+01
1.920000000000000000e+02,1.115081340132739385e+01
1.930000000000000000e+02,1.116524105959308422e+01
1.940000000000000000e+02,1.118017004676869774e+01
1.950000000000000000e+02,1.119564561820298998e+01
1.960000000000000000e+02,1.121171367156185283e+01
1.970000000000000000e+02,1.122842783792207300e+01
1.980000000000000000e+02,1.124583246278124626e+01
1.990000000000000000e+02,1.126399940806319933e+01
2.000000000000000000e+02,1.128298238149088739e+01
2.010000000000000000e+02,1.130286012207693247e+01
2.020000000000000000e+02,1.132369687280707282e+01
2.030000000000000000e+02,1.134557826151467452e+01
2.040000000000000000e+02,1.136858466344590113e+01
2.050000000000000000e+02,1.139279844303003486e+01
2.060000000000000000e+02,1.141829825564390788e+01
2.070000000000000000e+02,1.144516215692592453e+01
2.080000000000000000e+02,1.147345034538025388e+01
2.090000000000000000e+02,1.150320063730107556e+01
2.100000000000000000e+02,1.153440136125250071e+01
2.110000000000000000e+02,1.156697312805053279e+01
2.120000000000000000e+02,1.160077169444993750e+01
2.130000000000000000e+02,1.163553526995085363e+01
2.140000000000000000e+02,1.167087223591830991e+01
2.150000000000000000e+02,1.170631163200848235e+01
2.160000000000000000e+02,1.174132164058627126e+01
2.170000000000000000e+02,1.177543517340272494e+01
2.180000000000000000e+02,1.180834132383653845e+01
2.190000000000000000e+02,1.183995492053690946e+01
2.200000000000000000e+02,1.187035407624347982e+01
2.210000000000000000e+02,1.189970202266950494e+01
2.220000000000000000e+02,1.192814394336734196e+01
2.230000000000000000e+02,1.195578117712150501e+01
2.240000000000000000e+02,1.198269879886752953e+01
2.250000000000000000e+02,1.200895180192447143e+01
2.260000000000000000e+02,1.203459580934398687e+01
2.270000000000000000e+02,1.205967407193080199e+01
2.280000000000000000e+02,1.208421648333871978e+01
2.290000000000000000e+02,1.210825313279373106e+01
2.300000000000000000e+02,1.213182100396529428e+01
2.310000000000000000e+02,1.215493446929509602e+01
2.320000000000000000e+02,1.217762220383115412e+01
2.330000000000000000e+02,1.219990255149036784e+01
2.340000000000000000e+02,1.222179391436115914e+01
2.350000000000000000e+02,1.224331007606220467e+01
2.360000000000000000e+02,1.226446449338256173e+01
2.370000000000000000e+02,1.228527310078836265e+01
2.380000000000000000e+02,1.230574762762585017e+01
2.390000000000000000e+02,1.232590230044593405e+01
2.400000000000000000e+02,1.234574651179962856e+01
2.410000000000000000e+02,1.236528788845564364e+01
2.420000000000000000e+02,1.238453987847951332e+01
2.430000000000000000e+02,1.240350751272050545e+01
2.440000000000000000e+02,1.242220331543393108e+01
2.450000000000000000e+02,1.244063161424801578e+01
2.460000000000000000e+02,1.245880299297700411e+01
2.470000000000000000e+02,1.247672277308835653e+01
2.480000000000000000e+02,1.249439716553827573e+01
2.490000000000000000e+02,1.251183041854088707e+01
2.500000000000000000e+02,1.252903275105201786e+01
2.510000000000000000e+02,1.254600911779100159e+01
2.520000000000000000e+02,1.256276402953776206e+01
2.530000000000000000e+02,1.257930148640196499e+01
2.540000000000000000e+02,1.259562845360003358e+01
2.550000000000000000e+02,1.261174834814409351e+01
2.560000000000000000e+02,1.262766717860357524e+01
2.570000000000000000e+02,1.264338597119303742e+01
2.580000000000000000e+02,1.265891507705040908e+01
2.590000000000000000e+02,1.267425401966076848e+01
2.600000000000000000e+02,1.268940471251256064e+01
2.610000000000000000e+02,1.270437447689250732e+01
2.620000000000000000e+02,1.271916555976502039e+01
2.630000000000000000e+02,1.273378176330088252e+01
2.640000000000000000e+02,1.274822554656755891e+01
2.650000000000000000e+02,1.276250113173270861e+01
2.660000000000000000e+02,1.277661046937595479e+01
2.670000000000000000e+02,1.279055727115609820e+01
2.680000000000000000e+02,1.280434392106889163e+01
2.690000000000000000e+02,1.281797341401969526e+01
2.700000000000000000e+02,1.283144778572335376e+01
2.710000000000000000e+02,1.284477266409014895e+01
2.720000000000000000e+02,1.285794632879401256e+01
2.730000000000000000e+02,1.287097102201377830e+01
2.740000000000000000e+02,1.288385368416418686e+01
2.750000000000000000e+02,1.289659239464596219e+01
2.760000000000000000e+02,1.290919114069414242e+01
2.770000000000000000e+02,1.292165148716106771e+01
2.780000000000000000e+02,1.293397728867310725e+01
2.790000000000000000e+02,1.294616579819353852e+01
2.800000000000000000e+02,1.295822543640497670e+01
2.810000000000000000e+02,1.297015356029583444e+01
2.820000000000000000e+02,1.298195330483149945e+01
2.830000000000000000e+02,1.299362631978386773e+01
2.840000000000000000e+02,1.300517659006220939e+01
2.850000000000000000e+02,1.301660260832997018e+01
2.860000000000000000e+02,1.302790763085773662e+01
2.870000000000000000e+02,1.303909343973990964e+01
2.880000000000000000e+02,1.305016193681569270e+01
2.890000000000000000e+02,1.306111445673651694e+01
2.900000000000000000e+02,1.307195252551714582e+01
2.910000000000000000e+02,1.308267751718949512e+01
2.920000000000000000e+02,1.309329024555579934e+01
2.930000000000000000e+02,1.310379308224800354e+01
2.940000000000000000e+02,1.311418688154576273e+01
2.950000000000000000e+02,1.312447377891653844e+01
2.960000000000000000e+02,1.313465392423066724e+01
2.970000000000000000e+02,1.314472976549310879e+01
2.980000000000000000e+02,1.315470183732929499e+01
2.990000000000000000e+02,1.316457309857035796e+01
3.000000000000000000e+02,1.317434311404789149e+01
3.010000000000000000e+02,1.318401272678021741e+01
3.020000000000000000e+02,1.319358532635147796e+01
3.030000000000000000e+02,1.320306038413344396e+01
3.040000000000000000e+02,1.321244005311193703e+01
3.050000000000000000e+02,1.322172426069671047e+01
3.060000000000000000e+02,1.323091580654951649e+01
3.070000000000000000e+02,1.324001433282189844e+01
3.080000000000000000e+02,1.324902188099365041e+01
3.090000000000000000e+02,1.325793907962956908e+01
3.100000000000000000e+02,1.326676721579822704e+01
3.110000000000000000e+02,1.327550696880106962e+01
3.120000000000000000e+02,1.328415993997798950e+01
3.130000000000000000e+02,1.329272685810827426e+01
3.140000000000000000e+02,1.330120798214476707e+01
3.150000000000000000e+02,1.330960455804456011e+01
3.160000000000000000e+02,1.331791920862470135e+01
3.170000000000000000e+02,1.332615111322613188e+01
3.180000000000000000e+02,1.333430208603704692e+01
3.190000000000000000e+02,1.334237294341180835e+01
3.200000000000000000e+02,1.335036502064345676e+01
3.210000000000000000e+02,1.335827833215329008e+01
3.220000000000000000e+02,1.336611387270431628e+01
3.230000000000000000e+02,1.337387269544027646e+01
3.240000000000000000e+02,1.338155551941452259e+01
3.250000000000000000e+02,1.338916377636751953e+01
3.260000000000000000e+02,1.339669810661435534e+01
3.270000000000000000e+02,1.340415836359060187e+01
3.280000000000000000e+02,1.341154518018021058e+01
3.290000000000000000e+02,1.341886119963108648e+01
3.300000000000000000e+02,1.342610619430148589e+01
3.310000000000000000e+02,1.343328162216077182e+01
3.320000000000000000e+02,1.344038724816746466e+01
3.330000000000000000e+02,1.344742341894655624e+01
3.340000000000000000e+02,1.345439222375208743e+01
3.350000000000000000e+02,1.346129464314170754e+01
3.360000000000000000e+02,1.346812932862974854e+01
3.370000000000000000e+02,1.347489848125172252e+01
3.380000000000000000e+02,1.348160384061618622e+01
3.390000000000000000e+02,1.348824398498212673e+01
3.400000000000000000e+02,1.349482116048467972e+01
3.410000000000000000e+02,1.350133464886919832e+01
3.420000000000000000e+02,1.350778629930542252e+01
3.430000000000000000e+02,1.351417622175836364e+01
3.440000000000000000e+02,1.352050497250487204e+01
3.450000000000000000e+02,1.352677355207164389e+01
3.460000000000000000e+02,1.353298327540543866e+01
3.470000000000000000e+02,1.353913276911312380e+01
3.480000000000000000e+02,1.354522481051212424e+01
3.490000000000000000e+02,1.355125776712691454e+01
3.500000000000000000e+02,1.355723395966005818e+01
3.510000000000000000e+02,1.356315449026799769e+01
3.520000000000000000e+02,1.356901816716647424e+01
3.530000000000000000e+02,1.357482678705664902e+01
3.540000000000000000e+02,1.358058048901520110e+01
3.550000000000000000e+02,1.358627979093867388e+01
3.560000000000000000e+02,1.359192514442533550e+01
3.570000000000000000e+02,1.359751756821060198e+01
3.580000000000000000e+02,1.360305744392926819e+01
3.590000000000000000e+02,1.360854540369756904e+01
3.600000000000000000e+02,1.361398112910686820e+01
3.610000000000000000e+02,1.361936556386207542e+01
3.620000000000000000e+02,1.362469989985295449e+01
3.630000000000000000e+02,1.362998469409824409e+01
3.640000000000000000e+02,1.363521999718997435e+01
3.650000000000000000e+02,1.364040604732127093e+01
3.660000000000000000e+02,1.364554358392040534e+01
3.670000000000000000e+02,1.365063359451341007e+01
3.680000000000000000e+02,1.365567574449428001e+01
3.690000000000000000e+02,1.366067089116571864e+01
3.700000000000000000e+02,1.366561951232128180e+01
3.710000000000000000e+02,1.367052214612802707e+01
3.720000000000000000e+02,1.367537882759799750e+01
3.730000000000000000e+02,1.368019015373542402e+01
3.740000000000000000e+02,1.368495721907431673e+01
3.750000000000000000e+02,1.368968017734926690e+01
3.760000000000000000e+02,1.369435905624012051e+01
3.770000000000000000e+02,1.369899481823412657e+01
3.780000000000000000e+02,1.370358673936980409e+01
3.790000000000000000e+02,1.370813602799560904e+01
3.800000000000000000e+02,1.371264432427980395e+01
3.810000000000000000e+02,1.371711089926983718e+01
3.820000000000000000e+02,1.372153589563841614e+01
3.830000000000000000e+02,1.372591970352038082e+01
3.840000000000000000e+02,1.373026320811445622e+01
3.850000000000000000e+02,1.373456760198740056e+01
3.860000000000000000e+02,1.373883146937541788e+01
3.870000000000000000e+02,1.374305562860937258e+01
3.880000000000000000e+02,1.374724201029633974e+01
3.890000000000000000e+02,1.375138956836756954e+01
3.900000000000000000e+02,1.375549837227383065e+01
3.910000000000000000e+02,1.375956960362817405e+01
3.920000000000000000e+02,1.376360413169166641e+01
3.930000000000000000e+02,1.376760047632837924e+01
3.940000000000000000e+02,1.377156135738449372e+01
3.950000000000000000e+02,1.377548535486528181e+01
3.960000000000000000e+02,1.377937320930557341e+01
3.970000000000000000e+02,1.378322615197291867e+01
3.980000000000000000e+02,1.378704276276623375e+01
