# Time [s], Convective Heat Transfer Coefficient [W/m2K]
1.000000000000000000e+00,0.000000000000000000e+00
2.000000000000000000e+00,0.000000000000000000e+00
3.000000000000000000e+00,0.000000000000000000e+00
4.000000000000000000e+00,1.915079995362458862e-02
5.000000000000000000e+00,3.040000000141642594e-02
6.000000000000000000e+00,5.283560500250115977e-02
7.000000000000000000e+00,8.420280550277842169e-02
8.000000000000000000e+00,1.255104017028736973e-01
9.000000000000000000e+00,1.779283054280840770e-01
1.000000000000000000e+01,2.414256274349564635e-01
1.100000000000000000e+01,3.155743942883361686e-01
1.200000000000000000e+01,3.996248290268724634e-01
1.300000000000000000e+01,4.925416556450714078e-01
1.400000000000000000e+01,5.931795071542139697e-01
1.500000000000000000e+01,7.003617736600499244e-01
1.600000000000000000e+01,8.129656063037167257e-01
1.700000000000000000e+01,9.299613461870244180e-01
1.800000000000000000e+01,1.050418281681084309e+00
1.900000000000000000e+01,1.173522756474782547e+00
2.000000000000000000e+01,1.298559270762454920e+00
2.100000000000000000e+01,1.424917784649270214e+00
2.200000000000000000e+01,1.552081707180252623e+00
2.300000000000000000e+01,1.679606794810182269e+00
2.400000000000000000e+01,1.807113594261654077e+00
2.500000000000000000e+01,1.934281482794895979e+00
2.600000000000000000e+01,2.060843029004918670e+00
2.700000000000000000e+01,2.186572025615053594e+00
2.800000000000000000e+01,2.311279489727466441e+00
2.900000000000000000e+01,2.434812309156488830e+00
3.000000000000000000e+01,2.557037952496797217e+00
3.100000000000000000e+01,2.677862681200019246e+00
3.200000000000000000e+01,2.797203856299354641e+00
3.300000000000000000e+01,2.915000809420105199e+00
3.400000000000000000e+01,3.031206977886173881e+00
3.500000000000000000e+01,3.145793287763658075e+00
3.600000000000000000e+01,3.258743980734128964e+00
3.700000000000000000e+01,3.370042824691556582e+00
3.800000000000000000e+01,3.479695322686098713e+00
3.900000000000000000e+01,3.587698992157560163e+00
4.000000000000000000e+01,3.694061827580068957e+00
4.100000000000000000e+01,3.798796670720567370e+00
4.200000000000000000e+01,3.901916253296758619e+00
4.300000000000000000e+01,4.003438035246454696e+00
4.400000000000000000e+01,4.103378909210890768e+00
4.500000000000000000e+01,4.201760120829701961e+00
4.600000000000000000e+01,4.298602094006970908e+00
4.700000000000000000e+01,4.393925078296489595e+00
4.800000000000000000e+01,4.487755124622881731e+00
4.900000000000000000e+01,4.580111072541820150e+00
5.000000000000000000e+01,4.671017622123928348e+00
5.100000000000000000e+01,4.760493876457704054e+00
5.200000000000000000e+01,4.848562490700145666e+00
5.300000000000000000e+01,4.935249002890278014e+00
5.400000000000000000e+01,5.020570814921920366e+00
5.500000000000000000e+01,5.104554445207902802e+00
5.600000000000000000e+01,5.187217808777027095e+00
5.700000000000000000e+01,5.268586298519109867e+00
5.800000000000000000e+01,5.348679370966610946e+00
5.900000000000000000e+01,5.427517347400256931e+00
6.000000000000000000e+01,5.505120435750000318e+00
6.100000000000000000e+01,5.581508747418769012e+00
6.200000000000000000e+01,5.656703160484850557e+00
6.300000000000000000e+01,5.730723668884762034e+00
6.400000000000000000e+01,5.803589550225018101e+00
6.500000000000000000e+01,5.875321006551005532e+00
6.600000000000000000e+01,5.945939716645453288e+00
6.700000000000000000e+01,6.015459710777851576e+00
6.800000000000000000e+01,6.083904367212761066e+00
6.900000000000000000e+01,6.151294017795255975e+00
7.000000000000000000e+01,6.217643840238440411e+00
7.100000000000000000e+01,6.282975385569830706e+00
7.200000000000000000e+01,6.347309214960873192e+00
7.300000000000000000e+01,6.410661409380244535e+00
7.400000000000000000e+01,6.473054647200608969e+00
7.500000000000000000e+01,6.534506512917060306e+00
7.600000000000000000e+01,6.595033472640838390e+00
7.700000000000000000e+01,6.654659176683572319e+00
7.800000000000000000e+01,6.713397194250315891e+00
7.900000000000000000e+01,6.771270502344751918e+00
8.000000000000000000e+01,6.828295875510630886e+00
8.100000000000000000e+01,6.884488585402393390e+00
8.200000000000000000e+01,6.939871991490958791e+00
8.300000000000000000e+01,6.994458480139876144e+00
8.400000000000000000e+01,7.048267973764674288e+00
8.500000000000000000e+01,7.101317148411109947e+00
8.600000000000000000e+01,7.153619671077859010e+00
8.700000000000000000e+01,7.205193403124154905e+00
8.800000000000000000e+01,7.256053878779664679e+00
8.900000000000000000e+01,7.306213588957527705e+00
9.000000000000000000e+01,7.355688892597558315e+00
9.100000000000000000e+01,7.404493355590521908e+00
9.200000000000000000e+01,7.452637722439062529e+00
9.300000000000000000e+01,7.500138835218399080e+00
9.400000000000000000e+01,7.547008978688865000e+00
9.500000000000000000e+01,7.593257176778189788e+00
9.600000000000000000e+01,7.638898415313981616e+00
9.700000000000000000e+01,7.683944767062164338e+00
9.800000000000000000e+01,7.728404975098201568e+00
9.900000000000000000e+01,7.772292975037873752e+00
1.000000000000000000e+02,7.815619175693471199e+00
1.010000000000000000e+02,7.858392171262498671e+00
1.020000000000000000e+02,7.900626528830392736e+00
1.030000000000000000e+02,7.942327630387262083e+00
1.040000000000000000e+02,7.983509415146186505e+00
1.050000000000000000e+02,8.024180128367330411e+00
1.060000000000000000e+02,8.064347829515616795e+00
1.070000000000000000e+02,8.104023967417251839e+00
1.080000000000000000e+02,8.143215451536455873e+00
1.090000000000000000e+02,8.181932564102577743e+00
1.100000000000000000e+02,8.220181008591545435e+00
1.110000000000000000e+02,8.257971906543396301e+00
1.120000000000000000e+02,8.295311007366441558e+00
1.130000000000000000e+02,8.332207528965444254e+00
1.140000000000000000e+02,8.368666151672913500e+00
1.150000000000000000e+02,8.404696163989862967e+00
1.160000000000000000e+02,8.440305517483597697e+00
1.170000000000000000e+02,8.475497952059630080e+00
1.180000000000000000e+02,8.510282544650999981e+00
1.190000000000000000e+02,8.544664836841118216e+00
1.200000000000000000e+02,8.578651113477326007e+00
1.210000000000000000e+02,8.612248217011815754e+00
1.220000000000000000e+02,8.645462431424235206e+00
1.230000000000000000e+02,8.678297484679692531e+00
1.240000000000000000e+02,8.710760507989634860e+00
1.250000000000000000e+02,8.742857929643822246e+00
1.260000000000000000e+02,8.774595806732099490e+00
1.270000000000000000e+02,8.805977877808585319e+00
1.280000000000000000e+02,8.837008943678791084e+00
1.290000000000000000e+02,8.867694533502236354e+00
1.300000000000000000e+02,8.898039846179315759e+00
1.310000000000000000e+02,8.928049762979352266e+00
1.320000000000000000e+02,8.957728713560637601e+00
1.330000000000000000e+02,8.987081416631937714e+00
1.340000000000000000e+02,9.016113159725824389e+00
1.350000000000000000e+02,9.044826634420248368e+00
1.360000000000000000e+02,9.073225431689374787e+00
1.370000000000000000e+02,9.101315851620148223e+00
1.380000000000000000e+02,9.129101343882318531e+00
1.390000000000000000e+02,9.156586644143331455e+00
1.400000000000000000e+02,9.183774960917371999e+00
1.410000000000000000e+02,9.210671057065395573e+00
1.420000000000000000e+02,9.237279422270006535e+00
1.430000000000000000e+02,9.263603736509200104e+00
1.440000000000000000e+02,9.289648114800151291e+00
1.450000000000000000e+02,9.315417770572240741e+00
1.460000000000000000e+02,9.340916035253009397e+00
1.470000000000000000e+02,9.366147746479359881e+00
1.480000000000000000e+02,9.391115890588343618e+00
1.490000000000000000e+02,9.415825349554008739e+00
1.500000000000000000e+02,9.440280882306010923e+00
1.510000000000000000e+02,9.464483862241992895e+00
1.520000000000000000e+02,9.488440685424620824e+00
1.530000000000000000e+02,9.512152813043957877e+00
1.540000000000000000e+02,9.535625005298001611e+00
1.550000000000000000e+02,9.558860373065591887e+00
1.560000000000000000e+02,9.581860291296063536e+00
1.570000000000000000e+02,9.604629516689469071e+00
1.580000000000000000e+02,9.627168656863799967e+00
1.590000000000000000e+02,9.649481182075112073e+00
1.600000000000000000e+02,9.671569229955485625e+00
1.610000000000000000e+02,9.693434383904230955e+00
1.620000000000000000e+02,9.715079050127163995e+00
1.630000000000000000e+02,9.736503723165581548e+00
1.640000000000000000e+02,9.757709978609485191e+00
1.650000000000000000e+02,9.778701184279825043e+00
1.660000000000000000e+02,9.799476855105977435e+00
1.670000000000000000e+02,9.820037832958744772e+00
1.680000000000000000e+02,9.840385412555074041e+00
1.690000000000000000e+02,9.860520128266180961e+00
1.700000000000000000e+02,9.880444287713103790e+00
1.710000000000000000e+02,9.900157159068246671e+00
1.720000000000000000e+02,9.919659195020763320e+00
1.730000000000000000e+02,9.938951179768759303e+00
1.740000000000000000e+02,9.958033042076795738e+00
1.750000000000000000e+02,9.976905753101563690e+00
1.760000000000000000e+02,9.995569666372519535e+00
1.770000000000000000e+02,1.001402406232195474e+01
1.780000000000000000e+02,1.003226902859805492e+01
1.790000000000000000e+02,1.005030509742668166e+01
1.800000000000000000e+02,1.006813219820852368e+01
1.810000000000000000e+02,1.008575024338527371e+01
1.820000000000000000e+02,1.010315855506820881e+01
1.830000000000000000e+02,1.012035667485317170e+01
1.840000000000000000e+02,1.013734549877962365e+01
1.850000000000000000e+02,1.015412294030574536e+01
1.860000000000000000e+02,1.017068975032616862e+01
1.870000000000000000e+02,1.018704507144645888e+01
1.880000000000000000e+02,1.020318747546821569e+01
1.890000000000000000e+02,1.021911710154641284e+01
1.900000000000000000e+02,1.023483261415511336e+01
1.910000000000000000e+02,1.025033434476471861e+01
1.920000000000000000e+02,1.026562048958991902e+01
1.930000000000000000e+02,1.028069057420847265e+01
1.940000000000000000e+02,1.029554344566986224e+01
1.950000000000000000e+02,1.031017915383029759e+01
1.960000000000000000e+02,1.032459651799438660e+01
1.970000000000000000e+02,1.033879380071308063e+01
1.980000000000000000e+02,1.035277166354991607e+01
1.990000000000000000e+02,1.036652899510681891e+01
2.000000000000000000e+02,1.038006456387311971e+01
2.010000000000000000e+02,1.039337842791184663e+01
2.020000000000000000e+02,1.040646997228289372e+01
2.030000000000000000e+02,1.041933899546651254e+01
2.040000000000000000e+02,1.043198505853681723e+01
2.050000000000000000e+02,1.044440791697062387e+01
2.060000000000000000e+02,1.045660751803397481e+01
2.070000000000000000e+02,1.046858421195326017e+01
2.080000000000000000e+02,1.048033864063556386e+01
2.090000000000000000e+02,1.049187109639136217e+01
2.100000000000000000e+02,1.050318141968156205e+01
2.110000000000000000e+02,1.051427228640394951e+01
2.120000000000000000e+02,1.052514336653647220e+01
2.130000000000000000e+02,1.053579694463651428e+01
2.140000000000000000e+02,1.054623484151309221e+01
2.150000000000000000e+02,1.055645810433634502e+01
2.160000000000000000e+02,1.056646963567433417e+01
2.170000000000000000e+02,1.057627250216602022e+01
2.180000000000000000e+02,1.058586784478334764e+01
2.190000000000000000e+02,1.059525938081293184e+01
2.200000000000000000e+02,1.060445077946371484e+01
2.210000000000000000e+02,1.061344504000897437e+01
2.220000000000000000e+02,1.062224657349673151e+01
2.230000000000000000e+02,1.063085870638346364e+01
2.240000000000000000e+02,1.063928586227350870e+01
2.250000000000000000e+02,1.064753293494223207e+01
2.260000000000000000e+02,1.065560435827213048e+01
2.270000000000000000e+02,1.066350555240333620e+01
2.280000000000000000e+02,1.067124158155250413e+01
2.290000000000000000e+02,1.067881767137176574e+01
2.300000000000000000e+02,1.068623910675132649e+01
2.310000000000000000e+02,1.069351153995724246e+01
2.320000000000000000e+02,1.070064088735520258e+01
2.330000000000000000e+02,1.070763394172977812e+01
2.340000000000000000e+02,1.071449622679074487e+01
2.350000000000000000e+02,1.072123343250341776e+01
2.360000000000000000e+02,1.072785202559349393e+01
2.370000000000000000e+02,1.073435853492323844e+01
2.380000000000000000e+02,1.074075914655465525e+01
2.390000000000000000e+02,1.074705980836256103e+01
2.400000000000000000e+02,1.075326764981199368e+01
2.410000000000000000e+02,1.075938774043341439e+01
2.420000000000000000e+02,1.076542744575357879e+01
2.430000000000000000e+02,1.077139268226172852e+01
2.440000000000000000e+02,1.077728984122008171e+01
2.450000000000000000e+02,1.078312467941357689e+01
2.460000000000000000e+02,1.078890312780545813e+01
2.470000000000000000e+02,1.079463119074730315e+01
2.480000000000000000e+02,1.080031464507727357e+01
2.490000000000000000e+02,1.080596004429349399e+01
2.500000000000000000e+02,1.081157201100343634e+01
2.510000000000000000e+02,1.081715704887919038e+01
2.520000000000000000e+02,1.082271993541414901e+01
2.530000000000000000e+02,1.082826692579794958e+01
2.540000000000000000e+02,1.083380195558612868e+01
2.550000000000000000e+02,1.083933073761147448e+01
2.560000000000000000e+02,1.084485866281450939e+01
2.570000000000000000e+02,1.085038950929634360e+01
2.580000000000000000e+02,1.085593021828680094e+01
2.590000000000000000e+02,1.086148303896745126e+01
2.600000000000000000e+02,1.086705596051145939e+01
2.610000000000000000e+02,1.087265010650362740e+01
2.620000000000000000e+02,1.087827134382787264e+01
2.630000000000000000e+02,1.088392482298429087e+01
2.640000000000000000e+02,1.088961369817771008e+01
2.650000000000000000e+02,1.089534416664365679e+01
2.660000000000000000e+02,1.090111796576570669e+01
2.670000000000000000e+02,1.090694144932001919e+01
2.680000000000000000e+02,1.091281720732491856e+01
2.690000000000000000e+02,1.091875076270471823e+01
2.700000000000000000e+02,1.092474437580090374e+01
2.710000000000000000e+02,1.093080617327285253e+01
2.720000000000000000e+02,1.093693709919324597e+01
2.730000000000000000e+02,1.094314112086900259e+01
2.740000000000000000e+02,1.094942355150195823e+01
2.750000000000000000e+02,1.095578723826544909e+01
2.760000000000000000e+02,1.096223900515421512e+01
2.770000000000000000e+02,1.096878233165553063e+01
2.780000000000000000e+02,1.097542252221070669e+01
2.790000000000000000e+02,1.098216193852114486e+01
2.800000000000000000e+02,1.098900699637281875e+01
2.810000000000000000e+02,1.099596252427227938e+01
2.820000000000000000e+02,1.100303186899942887e+01
2.830000000000000000e+02,1.101022202214795875e+01
2.840000000000000000e+02,1.101753780901165136e+01
2.850000000000000000e+02,1.102498305722679994e+01
2.860000000000000000e+02,1.103256637285984887e+01
2.870000000000000000e+02,1.104029351892026156e+01
2.880000000000000000e+02,1.104816963904931981e+01
2.890000000000000000e+02,1.105619993073445606e+01
2.900000000000000000e+02,1.106439012151427370e+01
2.910000000000000000e+02,1.107274951867170820e+01
2.920000000000000000e+02,1.108128449744817345e+01
2.930000000000000000e+02,1.109000251857458430e+01
2.940000000000000000e+02,1.109890974168701483e+01
2.950000000000000000e+02,1.110801587177295424e+01
2.960000000000000000e+02,1.111732929685507365e+01
2.970000000000000000e+02,1.112685709549764468e+01
2.980000000000000000e+02,1.113660891466061464e+01
2.990000000000000000e+02,1.114659439989878464e+01
3.000000000000000000e+02,1.115682121624309175e+01
3.010000000000000000e+02,1.116730022506233944e+01
3.020000000000000000e+02,1.117804048434457265e+01
3.030000000000000000e+02,1.118905197266149720e+01
3.040000000000000000e+02,1.120034492205773091e+01
3.050000000000000000e+02,1.121192878580173868e+01
3.060000000000000000e+02,1.122381270560878619e+01
3.070000000000000000e+02,1.123600393333213354e+01
3.080000000000000000e+02,1.124850932682697646e+01
3.090000000000000000e+02,1.126134254985301553e+01
3.100000000000000000e+02,1.127450538607647168e+01
3.110000000000000000e+02,1.128800826759136910e+01
3.120000000000000000e+02,1.130184551505100643e+01
3.130000000000000000e+02,1.131602761949654479e+01
3.140000000000000000e+02,1.133054684533702705e+01
3.150000000000000000e+02,1.134539537768457862e+01
3.160000000000000000e+02,1.136056514641303750e+01
3.170000000000000000e+02,1.137604412538116350e+01
3.180000000000000000e+02,1.139180998715178461e+01
3.190000000000000000e+02,1.140783897941181380e+01
3.200000000000000000e+02,1.142409600048267038e+01
3.210000000000000000e+02,1.144054237573280908e+01
3.220000000000000000e+02,1.145713538833819101e+01
3.230000000000000000e+02,1.147382346044527424e+01
3.240000000000000000e+02,1.149055356329202304e+01
3.250000000000000000e+02,1.150726611925389520e+01
3.260000000000000000e+02,1.152390223995533347e+01
3.270000000000000000e+02,1.154041241569585807e+01
3.280000000000000000e+02,1.155674068583998171e+01
3.290000000000000000e+02,1.157284988982204155e+01
3.300000000000000000e+02,1.158870256478904182e+01
3.310000000000000000e+02,1.160427562702375148e+01
3.320000000000000000e+02,1.161955782575121177e+01
3.330000000000000000e+02,1.163454542902937838e+01
3.340000000000000000e+02,1.164924635021362676e+01
3.350000000000000000e+02,1.166366468563245107e+01
3.360000000000000000e+02,1.167781801782221685e+01
3.370000000000000000e+02,1.169172132882644632e+01
3.380000000000000000e+02,1.170539002774402526e+01
3.390000000000000000e+02,1.171883807614632289e+01
3.400000000000000000e+02,1.173207749949531475e+01
3.410000000000000000e+02,1.174511926178407428e+01
3.420000000000000000e+02,1.175797615972486732e+01
3.430000000000000000e+02,1.177065435715657316e+01
3.440000000000000000e+02,1.178316222729467455e+01
3.450000000000000000e+02,1.179550839612411295e+01
3.460000000000000000e+02,1.180769620043484203e+01
3.470000000000000000e+02,1.181973413371528991e+01
3.480000000000000000e+02,1.183162592770762522e+01
3.490000000000000000e+02,1.184337736144867037e+01
3.500000000000000000e+02,1.185499224395121054e+01
3.510000000000000000e+02,1.186647351514612758e+01
3.520000000000000000e+02,1.187782574411167857e+01
3.530000000000000000e+02,1.188905320948141231e+01
3.540000000000000000e+02,1.190015915904841393e+01
3.550000000000000000e+02,1.191114689265775439e+01
3.560000000000000000e+02,1.192202017408745540e+01
3.570000000000000000e+02,1.193277862364577224e+01
3.580000000000000000e+02,1.194342727511690683e+01
3.590000000000000000e+02,1.195396940100255812e+01
3.600000000000000000e+02,1.196440497493119359e+01
3.610000000000000000e+02,1.197473682325131783e+01
3.620000000000000000e+02,1.198496840027872246e+01
3.630000000000000000e+02,1.199510101722948185e+01
3.640000000000000000e+02,1.200513727196255331e+01
3.650000000000000000e+02,1.201507860587591736e+01
3.660000000000000000e+02,1.202492685187811894e+01
3.670000000000000000e+02,1.203468309986727824e+01
3.680000000000000000e+02,1.204434915542730167e+01
3.690000000000000000e+02,1.205392688974901461e+01
3.700000000000000000e+02,1.206341831978124901e+01
3.710000000000000000e+02,1.207282520575690299e+01
3.720000000000000000e+02,1.208214744961490261e+01
3.730000000000000000e+02,1.209138791346503972e+01
3.740000000000000000e+02,1.210054640117969527e+01
3.750000000000000000e+02,1.210962383263849063e+01
3.760000000000000000e+02,1.211862303249185224e+01
3.770000000000000000e+02,1.212754417956963060e+01
3.780000000000000000e+02,1.213638927707524928e+01
3.790000000000000000e+02,1.214515944117966484e+01
3.800000000000000000e+02,1.215385451134853589e+01
3.810000000000000000e+02,1.216247487959611462e+01
3.820000000000000000e+02,1.217102377825576376e+01
3.830000000000000000e+02,1.217950142066521124e+01
3.840000000000000000e+02,1.218790707123838502e+01
3.850000000000000000e+02,1.219624456074232910e+01
3.860000000000000000e+02,1.220451306023084292e+01
3.870000000000000000e+02,1.221271244967025460e+01
3.880000000000000000e+02,1.222084527263906217e+01
3.890000000000000000e+02,1.222891194385248070e+01
3.900000000000000000e+02,1.223691209229127708e+01
3.910000000000000000e+02,1.224484800155283004e+01
3.920000000000000000e+02,1.225271936856645638e+01
3.930000000000000000e+02,1.226052838206906337e+01
3.940000000000000000e+02,1.226827426256115849e+01
3.950000000000000000e+02,1.227595825247886907e+01
3.960000000000000000e+02,1.228358096579361991e+01
3.970000000000000000e+02,1.229114316684921171e+01
3.980000000000000000e+02,1.229864460861820241e+01
