# Time [s], Convective Heat Transfer Coefficient [W/m2K]
1.000000000000000000e+00,0.000000000000000000e+00
2.000000000000000000e+00,0.000000000000000000e+00
3.000000000000000000e+00,0.000000000000000000e+00
4.000000000000000000e+00,0.000000000000000000e+00
5.000000000000000000e+00,2.762023300960968902e-02
6.000000000000000000e+00,4.774898591629385403e-02
7.000000000000000000e+00,7.778189519290648613e-02
8.000000000000000000e+00,1.175053335981447039e-01
9.000000000000000000e+00,1.685705529432419414e-01
1.000000000000000000e+01,2.310003440709690603e-01
1.100000000000000000e+01,3.045184486563130566e-01
1.200000000000000000e+01,3.883203827014927167e-01
1.300000000000000000e+01,4.813453096435236778e-01
1.400000000000000000e+01,5.824020709985548994e-01
1.500000000000000000e+01,6.902479401336777398e-01
1.600000000000000000e+01,8.037124909802026984e-01
1.700000000000000000e+01,9.216990776888810410e-01
1.800000000000000000e+01,1.043236690436742720e+00
1.900000000000000000e+01,1.167473523030972293e+00
2.000000000000000000e+01,1.293664070323195192e+00
2.100000000000000000e+01,1.421176599841584842e+00
2.200000000000000000e+01,1.549480012959176589e+00
2.300000000000000000e+01,1.678117469057644140e+00
2.400000000000000000e+01,1.806707369733765889e+00
2.500000000000000000e+01,1.934929541598068958e+00
2.600000000000000000e+01,2.062518573006130840e+00
2.700000000000000000e+01,2.189252671293140384e+00
2.800000000000000000e+01,2.314950243116001616e+00
2.900000000000000000e+01,2.439468582446715050e+00
3.000000000000000000e+01,2.562680455592517781e+00
3.100000000000000000e+01,2.684493153395601794e+00
3.200000000000000000e+01,2.804827989702706414e+00
3.300000000000000000e+01,2.923624848926420050e+00
3.400000000000000000e+01,3.040835263817037060e+00
3.500000000000000000e+01,3.156429084366075610e+00
3.600000000000000000e+01,3.270378533071024663e+00
3.700000000000000000e+01,3.382674146131253057e+00
3.800000000000000000e+01,3.493303008786480923e+00
3.900000000000000000e+01,3.602273439386880494e+00
4.000000000000000000e+01,3.709586010958712876e+00
4.100000000000000000e+01,3.815248815531759430e+00
4.200000000000000000e+01,3.919271028651179378e+00
4.300000000000000000e+01,4.021670741566403251e+00
4.400000000000000000e+01,4.122465793359483044e+00
4.500000000000000000e+01,4.221670933301019168e+00
4.600000000000000000e+01,4.319307440299845702e+00
4.700000000000000000e+01,4.415400625549899871e+00
4.800000000000000000e+01,4.509968514264450334e+00
4.900000000000000000e+01,4.603035852256383897e+00
5.000000000000000000e+01,4.694629342274769357e+00
5.100000000000000000e+01,4.784766076914237054e+00
5.200000000000000000e+01,4.873469627322563724e+00
5.300000000000000000e+01,4.960768094430379804e+00
5.400000000000000000e+01,5.046679326000825583e+00
5.500000000000000000e+01,5.131230255796511486e+00
5.600000000000000000e+01,5.214440985524770866e+00
5.700000000000000000e+01,5.296334218165716479e+00
5.800000000000000000e+01,5.376933016983252323e+00
5.900000000000000000e+01,5.456257390769123639e+00
6.000000000000000000e+01,5.534328724614610451e+00
6.100000000000000000e+01,5.611168921208153471e+00
6.200000000000000000e+01,5.686797805079863544e+00
6.300000000000000000e+01,5.761233862010335827e+00
6.400000000000000000e+01,5.834499377236246787e+00
6.500000000000000000e+01,5.906614596393295891e+00
6.600000000000000000e+01,5.977594034644654997e+00
6.700000000000000000e+01,6.047460806069064887e+00
6.800000000000000000e+01,6.116234650308875587e+00
6.900000000000000000e+01,6.183931979006204394e+00
7.000000000000000000e+01,6.250575533635641001e+00
7.100000000000000000e+01,6.316179223724752489e+00
7.200000000000000000e+01,6.380768019373908473e+00
7.300000000000000000e+01,6.444354279724264778e+00
7.400000000000000000e+01,6.506961860058495084e+00
7.500000000000000000e+01,6.568606531539032289e+00
7.600000000000000000e+01,6.629305573412851871e+00
7.700000000000000000e+01,6.689083295597000323e+00
7.800000000000000000e+01,6.747952930505895175e+00
7.900000000000000000e+01,6.805930960856102274e+00
8.000000000000000000e+01,6.863042053544307741e+00
8.100000000000000000e+01,6.919301026904824070e+00
8.200000000000000000e+01,6.974721571622879424e+00
8.300000000000000000e+01,7.029326753544856032e+00
8.400000000000000000e+01,7.083133363406333594e+00
8.500000000000000000e+01,7.136153763804510497e+00
8.600000000000000000e+01,7.188409120575121491e+00
8.700000000000000000e+01,7.239915596903774286e+00
8.800000000000000000e+01,7.290688669125980681e+00
8.900000000000000000e+01,7.340739698039693728e+00
9.000000000000000000e+01,7.390089921360381453e+00
9.100000000000000000e+01,7.438752460126902832e+00
9.200000000000000000e+01,7.486739110202686120e+00
9.300000000000000000e+01,7.534067025058611478e+00
9.400000000000000000e+01,7.580750849909379419e+00
9.500000000000000000e+01,7.626801066781343508e+00
9.600000000000000000e+01,7.672230010947213685e+00
9.700000000000000000e+01,7.717054515709968143e+00
9.800000000000000000e+01,7.761283416194977747e+00
9.900000000000000000e+01,7.804927802169713935e+00
1.000000000000000000e+02,7.848004315716986312e+00
1.010000000000000000e+02,7.890519625667797854e+00
1.020000000000000000e+02,7.932487703835504611e+00
1.030000000000000000e+02,7.973919319989436261e+00
1.040000000000000000e+02,8.014822939003614977e+00
1.050000000000000000e+02,8.055212235774257934e+00
1.060000000000000000e+02,8.095094407916850088e+00
1.070000000000000000e+02,8.134481639317915125e+00
1.080000000000000000e+02,8.173382453199604214e+00
1.090000000000000000e+02,8.211806921752941690e+00
1.100000000000000000e+02,8.249762985120126402e+00
1.110000000000000000e+02,8.287260982514998986e+00
1.120000000000000000e+02,8.324308479629443980e+00
1.130000000000000000e+02,8.360915082200964576e+00
1.140000000000000000e+02,8.397086207569364191e+00
1.150000000000000000e+02,8.432831989576264675e+00
1.160000000000000000e+02,8.468159573771526283e+00
1.170000000000000000e+02,8.503074862631200048e+00
1.180000000000000000e+02,8.537587224959098720e+00
1.190000000000000000e+02,8.571702508600399284e+00
1.200000000000000000e+02,8.605426817261141892e+00
1.210000000000000000e+02,8.638769011705420553e+00
1.220000000000000000e+02,8.671733445985564614e+00
1.230000000000000000e+02,8.704326164676098543e+00
1.240000000000000000e+02,8.736552847515067555e+00
1.250000000000000000e+02,8.768421869342292396e+00
1.260000000000000000e+02,8.799937402816434329e+00
1.270000000000000000e+02,8.831105423290701140e+00
1.280000000000000000e+02,8.861930069585358893e+00
1.290000000000000000e+02,8.892418001632259816e+00
1.300000000000000000e+02,8.922574199153443075e+00
1.310000000000000000e+02,8.952404064495322444e+00
1.320000000000000000e+02,8.981913264947166908e+00
1.330000000000000000e+02,9.011104986587705312e+00
1.340000000000000000e+02,9.039984312375208830e+00
1.350000000000000000e+02,9.068555885487743495e+00
1.360000000000000000e+02,9.096824207291270170e+00
1.370000000000000000e+02,9.124793502300070358e+00
1.380000000000000000e+02,9.152467028977225638e+00
1.390000000000000000e+02,9.179850721258118185e+00
1.400000000000000000e+02,9.206947310564833842e+00
1.410000000000000000e+02,9.233760402031634840e+00
1.420000000000000000e+02,9.260294313430501134e+00
1.430000000000000000e+02,9.286552427027308099e+00
1.440000000000000000e+02,9.312538431626842694e+00
1.450000000000000000e+02,9.338254301318658079e+00
1.460000000000000000e+02,9.363704481729442364e+00
1.470000000000000000e+02,9.388893168111838605e+00
1.480000000000000000e+02,9.413822331806072086e+00
1.490000000000000000e+02,9.438494276073763345e+00
1.500000000000000000e+02,9.462914242289835798e+00
1.510000000000000000e+02,9.487083052207657019e+00
1.520000000000000000e+02,9.511003302641453772e+00
1.530000000000000000e+02,9.534679707567137896e+00
1.540000000000000000e+02,9.558113152634694742e+00
1.550000000000000000e+02,9.581306909775895164e+00
1.560000000000000000e+02,9.604263534391796142e+00
1.570000000000000000e+02,9.626985261970565588e+00
1.580000000000000000e+02,9.649473890356450312e+00
1.590000000000000000e+02,9.671732291936018910e+00
1.600000000000000000e+02,9.693761648910653506e+00
1.610000000000000000e+02,9.715565460331189840e+00
1.620000000000000000e+02,9.737144305319338500e+00
1.630000000000000000e+02,9.758500456065471340e+00
1.640000000000000000e+02,9.779636250010780074e+00
1.650000000000000000e+02,9.800552260836129292e+00
1.660000000000000000e+02,9.821250248743485400e+00
1.670000000000000000e+02,9.841731806270416882e+00
1.680000000000000000e+02,9.861999204562135191e+00
1.690000000000000000e+02,9.882052982450622025e+00
1.700000000000000000e+02,9.901894608244903750e+00
1.710000000000000000e+02,9.921524915315874438e+00
1.720000000000000000e+02,9.940944825454765876e+00
1.730000000000000000e+02,9.960155583189239437e+00
1.740000000000000000e+02,9.979157691754219073e+00
1.750000000000000000e+02,9.997952566703364852e+00
1.760000000000000000e+02,1.001653983541876691e+01
1.770000000000000000e+02,1.003492016000513232e+01
1.780000000000000000e+02,1.005309405996546701e+01
1.790000000000000000e+02,1.007106168390901146e+01
1.800000000000000000e+02,1.008882327605769547e+01
1.810000000000000000e+02,1.010637940363108278e+01
1.820000000000000000e+02,1.012372878106743102e+01
1.830000000000000000e+02,1.014087262686046031e+01
1.840000000000000000e+02,1.015781053693373437e+01
1.850000000000000000e+02,1.017454232076977405e+01
1.860000000000000000e+02,1.019106664505751070e+01
1.870000000000000000e+02,1.020738453458531758e+01
1.880000000000000000e+02,1.022349563849890508e+01
1.890000000000000000e+02,1.023939802851276859e+01
1.900000000000000000e+02,1.025509278638195276e+01
1.910000000000000000e+02,1.027057818703791980e+01
1.920000000000000000e+02,1.028585405556585641e+01
1.930000000000000000e+02,1.030091953731787946e+01
1.940000000000000000e+02,1.031577431747871287e+01
1.950000000000000000e+02,1.033041806446122557e+01
1.960000000000000000e+02,1.034484922659591355e+01
1.970000000000000000e+02,1.035906733936363899e+01
1.980000000000000000e+02,1.037307224842995090e+01
1.990000000000000000e+02,1.038686236913301997e+01
2.000000000000000000e+02,1.040043762683905726e+01
2.010000000000000000e+02,1.041379760179149194e+01
2.020000000000000000e+02,1.042694207160895203e+01
2.030000000000000000e+02,1.043987025668682023e+01
2.040000000000000000e+02,1.045258243385715069e+01
2.050000000000000000e+02,1.046507778557987045e+01
2.060000000000000000e+02,1.047735729189139775e+01
2.070000000000000000e+02,1.048942009196260727e+01
2.080000000000000000e+02,1.050126690192299606e+01
2.090000000000000000e+02,1.051289703127038955e+01
2.100000000000000000e+02,1.052431252004266504e+01
2.110000000000000000e+02,1.053551410181699310e+01
2.120000000000000000e+02,1.054650205989519485e+01
2.130000000000000000e+02,1.055727801751736017e+01
2.140000000000000000e+02,1.056784335217420434e+01
2.150000000000000000e+02,1.057819951233505940e+01
2.160000000000000000e+02,1.058834874804920645e+01
2.170000000000000000e+02,1.059829316589825510e+01
2.180000000000000000e+02,1.060803483505369194e+01
2.190000000000000000e+02,1.061757672281992448e+01
2.200000000000000000e+02,1.062692248007218687e+01
2.210000000000000000e+02,1.063607395286898161e+01
2.220000000000000000e+02,1.064503543426619636e+01
2.230000000000000000e+02,1.065381065385624204e+01
2.240000000000000000e+02,1.066240329850925939e+01
2.250000000000000000e+02,1.067081742508702646e+01
2.260000000000000000e+02,1.067905766400604328e+01
2.270000000000000000e+02,1.068712839619489507e+01
2.280000000000000000e+02,1.069503467736142710e+01
2.290000000000000000e+02,1.070278162121793386e+01
2.300000000000000000e+02,1.071037480867459557e+01
2.310000000000000000e+02,1.071781855359605373e+01
2.320000000000000000e+02,1.072511937295498896e+01
2.330000000000000000e+02,1.073228282267947087e+01
2.340000000000000000e+02,1.073931401302791144e+01
2.350000000000000000e+02,1.074621943737051133e+01
2.360000000000000000e+02,1.075300504107207722e+01
2.370000000000000000e+02,1.075967713631080969e+01
2.380000000000000000e+02,1.076624179511562573e+01
2.390000000000000000e+02,1.077270424681114847e+01
2.400000000000000000e+02,1.077907251111938436e+01
2.410000000000000000e+02,1.078535104294593516e+01
2.420000000000000000e+02,1.079154708672561647e+01
2.430000000000000000e+02,1.079766644434628198e+01
2.440000000000000000e+02,1.080371549004938103e+01
2.450000000000000000e+02,1.080970036656518829e+01
2.460000000000000000e+02,1.081562698712433068e+01
2.470000000000000000e+02,1.082150193700964458e+01
2.480000000000000000e+02,1.082733027370806056e+01
2.490000000000000000e+02,1.083311862779361867e+01
2.500000000000000000e+02,1.083887220570672660e+01
2.510000000000000000e+02,1.084459629072783571e+01
2.520000000000000000e+02,1.085029793319571922e+01
2.530000000000000000e+02,1.085598137240535799e+01
2.540000000000000000e+02,1.086165321115139015e+01
2.550000000000000000e+02,1.086731764571737635e+01
2.560000000000000000e+02,1.087298043917694201e+01
2.570000000000000000e+02,1.087864693496582369e+01
2.580000000000000000e+02,1.088432255308189589e+01
2.590000000000000000e+02,1.089001130897224279e+01
2.600000000000000000e+02,1.089571976493105154e+01
2.610000000000000000e+02,1.090145041701014961e+01
2.620000000000000000e+02,1.090721047351705408e+01
2.630000000000000000e+02,1.091300170575620854e+01
2.640000000000000000e+02,1.091883166998404775e+01
2.650000000000000000e+02,1.092470249485505462e+01
2.660000000000000000e+02,1.093062109968961870e+01
2.670000000000000000e+02,1.093658947912448554e+01
2.680000000000000000e+02,1.094261479895993538e+01
2.690000000000000000e+02,1.094869940666027475e+01
2.700000000000000000e+02,1.095484934382016284e+01
2.710000000000000000e+02,1.096106847899188530e+01
2.720000000000000000e+02,1.096736163361906868e+01
2.730000000000000000e+02,1.097373331227248272e+01
2.740000000000000000e+02,1.098018712124041762e+01
2.750000000000000000e+02,1.098672829459832734e+01
2.760000000000000000e+02,1.099336223089245657e+01
2.770000000000000000e+02,1.100009207266888467e+01
2.780000000000000000e+02,1.100692461344674022e+01
2.790000000000000000e+02,1.101386226458290452e+01
2.800000000000000000e+02,1.102091387617313245e+01
2.810000000000000000e+02,1.102808256698180500e+01
2.820000000000000000e+02,1.103537412318501687e+01
2.830000000000000000e+02,1.104279381188346498e+01
2.840000000000000000e+02,1.105034868400292680e+01
2.850000000000000000e+02,1.105804363559025916e+01
2.860000000000000000e+02,1.106588428907747002e+01
2.870000000000000000e+02,1.107387670032559335e+01
2.880000000000000000e+02,1.108202783042130513e+01
2.890000000000000000e+02,1.109034696470798131e+01
2.900000000000000000e+02,1.109884246187642631e+01
2.910000000000000000e+02,1.110751435750544935e+01
2.920000000000000000e+02,1.111637593100267374e+01
2.930000000000000000e+02,1.112543704726216021e+01
2.940000000000000000e+02,1.113470125322626991e+01
2.950000000000000000e+02,1.114418043759847343e+01
2.960000000000000000e+02,1.115388017250082875e+01
2.970000000000000000e+02,1.116381385353727218e+01
2.980000000000000000e+02,1.117398912551602486e+01
2.990000000000000000e+02,1.118441663289643806e+01
3.000000000000000000e+02,1.119510550428668694e+01
3.010000000000000000e+02,1.120606867549932950e+01
3.020000000000000000e+02,1.121731372961869155e+01
3.030000000000000000e+02,1.122885139359544659e+01
3.040000000000000000e+02,1.124069475977876920e+01
3.050000000000000000e+02,1.125285370752833636e+01
3.060000000000000000e+02,1.126533548445182298e+01
3.070000000000000000e+02,1.127814896359070573e+01
3.080000000000000000e+02,1.129130774159232153e+01
3.090000000000000000e+02,1.130481157381961665e+01
3.100000000000000000e+02,1.131867476894170466e+01
3.110000000000000000e+02,1.133289574648976128e+01
3.120000000000000000e+02,1.134748041302989208e+01
3.130000000000000000e+02,1.136242021271857894e+01
3.140000000000000000e+02,1.137771890288199828e+01
3.150000000000000000e+02,1.139335956503184022e+01
3.160000000000000000e+02,1.140933070045696418e+01
3.170000000000000000e+02,1.142561056042329604e+01
3.180000000000000000e+02,1.144217785166748591e+01
3.190000000000000000e+02,1.145899007833989636e+01
3.200000000000000000e+02,1.147600857739516300e+01
3.210000000000000000e+02,1.149318935165488398e+01
3.220000000000000000e+02,1.151047424031846234e+01
3.230000000000000000e+02,1.152780823352074080e+01
3.240000000000000000e+02,1.154512476863207482e+01
3.250000000000000000e+02,1.156236009202511461e+01
3.260000000000000000e+02,1.157945653233886141e+01
3.270000000000000000e+02,1.159635265275540483e+01
3.280000000000000000e+02,1.161300464356163253e+01
3.290000000000000000e+02,1.162937384823916886e+01
3.300000000000000000e+02,1.164543090365702049e+01
3.310000000000000000e+02,1.166116609854586272e+01
3.320000000000000000e+02,1.167657021045506838e+01
3.330000000000000000e+02,1.169165102185882787e+01
3.340000000000000000e+02,1.170641875012041488e+01
3.350000000000000000e+02,1.172088798092174322e+01
3.360000000000000000e+02,1.173507728020996410e+01
3.370000000000000000e+02,1.174900152135177578e+01
3.380000000000000000e+02,1.176267819658608182e+01
3.390000000000000000e+02,1.177612173740427082e+01
3.400000000000000000e+02,1.178934523975770787e+01
3.410000000000000000e+02,1.180235880302198836e+01
3.420000000000000000e+02,1.181517719755779616e+01
3.430000000000000000e+02,1.182780718290796784e+01
3.440000000000000000e+02,1.184025736578374044e+01
3.450000000000000000e+02,1.185253293318430146e+01
3.460000000000000000e+02,1.186463976425940103e+01
3.470000000000000000e+02,1.187658890612777896e+01
3.480000000000000000e+02,1.188838070441114603e+01
3.490000000000000000e+02,1.190002392308351098e+01
3.500000000000000000e+02,1.191152155512552291e+01
3.510000000000000000e+02,1.192287969050746632e+01
3.520000000000000000e+02,1.193410091233244685e+01
3.530000000000000000e+02,1.194519155009867539e+01
3.540000000000000000e+02,1.195615001760063301e+01
3.550000000000000000e+02,1.196698486879907541e+01
3.560000000000000000e+02,1.197769675598443584e+01
3.570000000000000000e+02,1.198828770506697516e+01
3.580000000000000000e+02,1.199876313639989611e+01
3.590000000000000000e+02,1.200912566705237161e+01
3.600000000000000000e+02,1.201937837682071120e+01
3.610000000000000000e+02,1.202952286330677367e+01
3.620000000000000000e+02,1.203956046613314790e+01
3.630000000000000000e+02,1.204949380118908309e+01
3.640000000000000000e+02,1.205932626746065495e+01
3.650000000000000000e+02,1.206905882653787820e+01
3.660000000000000000e+02,1.207869395411174018e+01
3.670000000000000000e+02,1.208823354531131322e+01
3.680000000000000000e+02,1.209767947946946087e+01
3.690000000000000000e+02,1.210703226286451972e+01
3.700000000000000000e+02,1.211629367084170106e+01
3.710000000000000000e+02,1.212546809178360796e+01
3.720000000000000000e+02,1.213455344488878751e+01
3.730000000000000000e+02,1.214355496161942938e+01
3.740000000000000000e+02,1.215247149824766382e+01
3.750000000000000000e+02,1.216130444756214679e+01
3.760000000000000000e+02,1.217005519133157243e+01
3.770000000000000000e+02,1.217872494269859196e+01
3.780000000000000000e+02,1.218731734832850577e+01
3.790000000000000000e+02,1.219583099485648425e+01
3.800000000000000000e+02,1.220426651767831139e+01
3.810000000000000000e+02,1.221262572341232655e+01
3.820000000000000000e+02,1.222091134688941594e+01
3.830000000000000000e+02,1.222912313140581375e+01
3.840000000000000000e+02,1.223726378983897334e+01
3.850000000000000000e+02,1.224533117833574103e+01
3.860000000000000000e+02,1.225332706039679032e+01
3.870000000000000000e+02,1.226125458972417093e+01
3.880000000000000000e+02,1.226911254690228681e+01
3.890000000000000000e+02,1.227690352240434457e+01
3.900000000000000000e+02,1.228462636836851374e+01
3.910000000000000000e+02,1.229228427921202105e+01
3.920000000000000000e+02,1.229987501530195892e+01
3.930000000000000000e+02,1.230740306971399534e+01
3.940000000000000000e+02,1.231486581055709983e+01
3.950000000000000000e+02,1.232226593652987212e+01
3.960000000000000000e+02,1.232960412960578367e+01
3.970000000000000000e+02,1.233688045160254276e+01
3.980000000000000000e+02,1.234409665255190092e+01
