# Time [s], Temperature [C]
1.000000000000000000e+00,2.499997099999999861e+01
2.000000000000000000e+00,3.394538099999999758e+01
3.000000000000000000e+00,3.881826000000000221e+01
4.000000000000000000e+00,4.280786499999999961e+01
5.000000000000000000e+00,4.612523699999999849e+01
6.000000000000000000e+00,4.904354099999999761e+01
7.000000000000000000e+00,5.165952300000000008e+01
8.000000000000000000e+00,5.404776799999999781e+01
9.000000000000000000e+00,5.625305600000000084e+01
1.000000000000000000e+01,5.830873100000000164e+01
1.100000000000000000e+01,6.023816699999999713e+01
1.200000000000000000e+01,6.205959699999999657e+01
1.300000000000000000e+01,6.378724299999999658e+01
1.400000000000000000e+01,6.543312099999999987e+01
1.500000000000000000e+01,6.700585200000000441e+01
1.600000000000000000e+01,6.851306900000000155e+01
1.700000000000000000e+01,6.996134899999999845e+01
1.800000000000000000e+01,7.135623900000000219e+01
1.900000000000000000e+01,7.270211000000000467e+01
2.000000000000000000e+01,7.400313599999999781e+01
2.100000000000000000e+01,7.526292399999999816e+01
2.200000000000000000e+01,7.648401599999999689e+01
2.300000000000000000e+01,7.766985300000000336e+01
2.400000000000000000e+01,7.882235000000000014e+01
2.500000000000000000e+01,7.994370999999999583e+01
2.600000000000000000e+01,8.103607200000000432e+01
2.700000000000000000e+01,8.210124999999999318e+01
2.800000000000000000e+01,8.314057200000000591e+01
2.900000000000000000e+01,8.415525100000000691e+01
3.000000000000000000e+01,8.514704100000000153e+01
3.100000000000000000e+01,8.611687499999999318e+01
3.200000000000000000e+01,8.706599400000000344e+01
3.300000000000000000e+01,8.799521599999999921e+01
3.400000000000000000e+01,8.890573100000000295e+01
3.500000000000000000e+01,8.979830900000000327e+01
3.600000000000000000e+01,9.067347700000000543e+01
3.700000000000000000e+01,9.153234100000000240e+01
3.800000000000000000e+01,9.237568699999999922e+01
3.900000000000000000e+01,9.320385699999999929e+01
4.000000000000000000e+01,9.401750900000000399e+01
4.100000000000000000e+01,9.481677200000000028e+01
4.200000000000000000e+01,9.560301200000000676e+01
4.300000000000000000e+01,9.637626600000000110e+01
4.400000000000000000e+01,9.713745099999999866e+01
4.500000000000000000e+01,9.788651299999999367e+01
4.600000000000000000e+01,9.862441300000000410e+01
4.700000000000000000e+01,9.935098299999999938e+01
4.800000000000000000e+01,1.000666499999999957e+02
4.900000000000000000e+01,1.007718500000000006e+02
5.000000000000000000e+01,1.014671199999999942e+02
5.100000000000000000e+01,1.021528600000000040e+02
5.200000000000000000e+01,1.028293199999999956e+02
5.300000000000000000e+01,1.034966299999999961e+02
5.400000000000000000e+01,1.041551400000000029e+02
5.500000000000000000e+01,1.048048100000000034e+02
5.600000000000000000e+01,1.054467400000000055e+02
5.700000000000000000e+01,1.060806000000000040e+02
5.800000000000000000e+01,1.067063100000000020e+02
5.900000000000000000e+01,1.073249699999999933e+02
6.000000000000000000e+01,1.079362699999999933e+02
6.100000000000000000e+01,1.085404000000000053e+02
6.200000000000000000e+01,1.091378100000000018e+02
6.300000000000000000e+01,1.097284899999999936e+02
6.400000000000000000e+01,1.103127099999999956e+02
6.500000000000000000e+01,1.108907200000000017e+02
6.600000000000000000e+01,1.114625900000000058e+02
6.700000000000000000e+01,1.120284699999999987e+02
6.800000000000000000e+01,1.125886699999999934e+02
6.900000000000000000e+01,1.131433999999999997e+02
7.000000000000000000e+01,1.136922100000000029e+02
7.100000000000000000e+01,1.142362399999999951e+02
7.200000000000000000e+01,1.147745699999999971e+02
7.300000000000000000e+01,1.153083199999999948e+02
7.400000000000000000e+01,1.158372999999999990e+02
7.500000000000000000e+01,1.163610699999999980e+02
7.600000000000000000e+01,1.168806199999999933e+02
7.700000000000000000e+01,1.173957500000000067e+02
7.800000000000000000e+01,1.179062500000000000e+02
7.900000000000000000e+01,1.184123900000000020e+02
8.000000000000000000e+01,1.189147300000000058e+02
8.100000000000000000e+01,1.194127500000000026e+02
8.200000000000000000e+01,1.199067500000000024e+02
8.300000000000000000e+01,1.203972299999999933e+02
8.400000000000000000e+01,1.208836900000000014e+02
8.500000000000000000e+01,1.213666599999999960e+02
8.600000000000000000e+01,1.218461700000000008e+02
8.700000000000000000e+01,1.223220400000000012e+02
8.800000000000000000e+01,1.227945100000000025e+02
8.900000000000000000e+01,1.232638500000000050e+02
9.000000000000000000e+01,1.237299299999999960e+02
9.100000000000000000e+01,1.241929599999999994e+02
9.200000000000000000e+01,1.246528100000000023e+02
9.300000000000000000e+01,1.251094999999999970e+02
9.400000000000000000e+01,1.255633600000000030e+02
9.500000000000000000e+01,1.260145899999999983e+02
9.600000000000000000e+01,1.264630400000000066e+02
9.700000000000000000e+01,1.269087799999999930e+02
9.800000000000000000e+01,1.273518399999999957e+02
9.900000000000000000e+01,1.277917400000000043e+02
1.000000000000000000e+02,1.282295799999999986e+02
1.010000000000000000e+02,1.286650699999999858e+02
1.020000000000000000e+02,1.290981099999999913e+02
1.030000000000000000e+02,1.295287500000000023e+02
1.040000000000000000e+02,1.299570799999999906e+02
1.050000000000000000e+02,1.303831000000000131e+02
1.060000000000000000e+02,1.308069600000000037e+02
1.070000000000000000e+02,1.312284400000000062e+02
1.080000000000000000e+02,1.316479300000000023e+02
1.090000000000000000e+02,1.320653700000000015e+02
1.100000000000000000e+02,1.324808800000000133e+02
1.110000000000000000e+02,1.328941000000000088e+02
1.120000000000000000e+02,1.333055600000000140e+02
1.130000000000000000e+02,1.337151900000000069e+02
1.140000000000000000e+02,1.341229399999999998e+02
1.150000000000000000e+02,1.345288700000000119e+02
1.160000000000000000e+02,1.349330600000000118e+02
1.170000000000000000e+02,1.353354199999999992e+02
1.180000000000000000e+02,1.357360400000000027e+02
1.190000000000000000e+02,1.361350400000000036e+02
1.200000000000000000e+02,1.365323500000000081e+02
1.210000000000000000e+02,1.369280100000000004e+02
1.220000000000000000e+02,1.373218200000000024e+02
1.230000000000000000e+02,1.377142299999999864e+02
1.240000000000000000e+02,1.381050600000000088e+02
1.250000000000000000e+02,1.384944000000000131e+02
1.260000000000000000e+02,1.388822900000000118e+02
1.270000000000000000e+02,1.392686899999999923e+02
1.280000000000000000e+02,1.396537199999999928e+02
1.290000000000000000e+02,1.400372900000000129e+02
1.300000000000000000e+02,1.404194799999999930e+02
1.310000000000000000e+02,1.408003500000000088e+02
1.320000000000000000e+02,1.411800399999999911e+02
1.330000000000000000e+02,1.415581699999999898e+02
1.340000000000000000e+02,1.419351000000000056e+02
1.350000000000000000e+02,1.423106999999999971e+02
1.360000000000000000e+02,1.426850100000000054e+02
1.370000000000000000e+02,1.430581400000000087e+02
1.380000000000000000e+02,1.434302700000000073e+02
1.390000000000000000e+02,1.438010099999999909e+02
1.400000000000000000e+02,1.441705800000000011e+02
1.410000000000000000e+02,1.445389299999999935e+02
1.420000000000000000e+02,1.449060800000000029e+02
1.430000000000000000e+02,1.452721699999999885e+02
1.440000000000000000e+02,1.456370699999999943e+02
1.450000000000000000e+02,1.460008500000000140e+02
1.460000000000000000e+02,1.463635999999999910e+02
1.470000000000000000e+02,1.467254200000000139e+02
1.480000000000000000e+02,1.470859199999999873e+02
1.490000000000000000e+02,1.474454499999999939e+02
1.500000000000000000e+02,1.478038799999999924e+02
1.510000000000000000e+02,1.481612499999999955e+02
1.520000000000000000e+02,1.485176400000000001e+02
1.530000000000000000e+02,1.488729899999999873e+02
1.540000000000000000e+02,1.492273299999999949e+02
1.550000000000000000e+02,1.495808299999999917e+02
1.560000000000000000e+02,1.499336099999999874e+02
1.570000000000000000e+02,1.502853900000000067e+02
1.580000000000000000e+02,1.506359999999999957e+02
1.590000000000000000e+02,1.509856699999999989e+02
1.600000000000000000e+02,1.513343500000000006e+02
1.610000000000000000e+02,1.516821700000000135e+02
1.620000000000000000e+02,1.520290200000000027e+02
1.630000000000000000e+02,1.523749500000000126e+02
1.640000000000000000e+02,1.527200499999999863e+02
1.650000000000000000e+02,1.530641899999999964e+02
1.660000000000000000e+02,1.534076399999999865e+02
1.670000000000000000e+02,1.537502900000000068e+02
1.680000000000000000e+02,1.540919299999999907e+02
1.690000000000000000e+02,1.544326599999999985e+02
1.700000000000000000e+02,1.547726000000000113e+02
1.710000000000000000e+02,1.551116900000000101e+02
1.720000000000000000e+02,1.554499800000000107e+02
1.730000000000000000e+02,1.557876699999999914e+02
1.740000000000000000e+02,1.561242699999999957e+02
1.750000000000000000e+02,1.564600499999999954e+02
1.760000000000000000e+02,1.567952999999999975e+02
1.770000000000000000e+02,1.571295200000000136e+02
1.780000000000000000e+02,1.574628899999999874e+02
1.790000000000000000e+02,1.577956700000000012e+02
1.800000000000000000e+02,1.581273999999999944e+02
1.810000000000000000e+02,1.584584499999999991e+02
1.820000000000000000e+02,1.587887699999999995e+02
1.830000000000000000e+02,1.591182399999999859e+02
1.840000000000000000e+02,1.594471399999999903e+02
1.850000000000000000e+02,1.597753600000000063e+02
1.860000000000000000e+02,1.601025400000000047e+02
1.870000000000000000e+02,1.604290200000000084e+02
1.880000000000000000e+02,1.607547800000000109e+02
1.890000000000000000e+02,1.610797300000000121e+02
1.900000000000000000e+02,1.614039899999999932e+02
1.910000000000000000e+02,1.617280100000000118e+02
1.920000000000000000e+02,1.620508600000000001e+02
1.930000000000000000e+02,1.623729600000000062e+02
1.940000000000000000e+02,1.626943499999999858e+02
1.950000000000000000e+02,1.630149700000000053e+02
1.960000000000000000e+02,1.633350199999999859e+02
1.970000000000000000e+02,1.636545000000000130e+02
1.980000000000000000e+02,1.639731400000000008e+02
1.990000000000000000e+02,1.642910500000000127e+02
2.000000000000000000e+02,1.646082499999999982e+02
2.010000000000000000e+02,1.649248200000000111e+02
2.020000000000000000e+02,1.652404600000000130e+02
2.030000000000000000e+02,1.655557599999999923e+02
2.040000000000000000e+02,1.658701499999999953e+02
2.050000000000000000e+02,1.661838700000000131e+02
2.060000000000000000e+02,1.664971799999999860e+02
2.070000000000000000e+02,1.668095099999999888e+02
2.080000000000000000e+02,1.671211399999999969e+02
2.090000000000000000e+02,1.674323400000000106e+02
2.100000000000000000e+02,1.677426800000000071e+02
2.110000000000000000e+02,1.680525100000000123e+02
2.120000000000000000e+02,1.683615100000000098e+02
2.130000000000000000e+02,1.686698299999999904e+02
2.140000000000000000e+02,1.689777100000000019e+02
2.150000000000000000e+02,1.692849899999999934e+02
2.160000000000000000e+02,1.695913099999999929e+02
2.170000000000000000e+02,1.698969600000000071e+02
2.180000000000000000e+02,1.702020699999999920e+02
2.190000000000000000e+02,1.705067099999999982e+02
2.200000000000000000e+02,1.708106699999999876e+02
2.210000000000000000e+02,1.711137999999999977e+02
2.220000000000000000e+02,1.714162900000000036e+02
2.230000000000000000e+02,1.717181500000000085e+02
2.240000000000000000e+02,1.720198399999999879e+02
2.250000000000000000e+02,1.723204200000000128e+02
2.260000000000000000e+02,1.726203299999999956e+02
2.270000000000000000e+02,1.729196200000000090e+02
2.280000000000000000e+02,1.732184000000000026e+02
2.290000000000000000e+02,1.735166199999999890e+02
2.300000000000000000e+02,1.738141899999999964e+02
2.310000000000000000e+02,1.741109899999999868e+02
2.320000000000000000e+02,1.744072899999999890e+02
2.330000000000000000e+02,1.747030300000000125e+02
2.340000000000000000e+02,1.749980799999999874e+02
2.350000000000000000e+02,1.752924500000000023e+02
2.360000000000000000e+02,1.755863300000000038e+02
2.370000000000000000e+02,1.758795599999999979e+02
2.380000000000000000e+02,1.761720599999999877e+02
2.390000000000000000e+02,1.764640200000000050e+02
2.400000000000000000e+02,1.767554900000000089e+02
2.410000000000000000e+02,1.770460699999999861e+02
2.420000000000000000e+02,1.773363300000000038e+02
2.430000000000000000e+02,1.776257600000000139e+02
2.440000000000000000e+02,1.779147499999999980e+02
2.450000000000000000e+02,1.782030499999999904e+02
2.460000000000000000e+02,1.784908900000000074e+02
2.470000000000000000e+02,1.787780600000000106e+02
2.480000000000000000e+02,1.790645299999999907e+02
2.490000000000000000e+02,1.793504000000000076e+02
2.500000000000000000e+02,1.796358299999999986e+02
2.510000000000000000e+02,1.799207199999999887e+02
2.520000000000000000e+02,1.802047000000000025e+02
2.530000000000000000e+02,1.804881399999999871e+02
2.540000000000000000e+02,1.807712899999999934e+02
2.550000000000000000e+02,1.810537600000000111e+02
2.560000000000000000e+02,1.813353899999999896e+02
2.570000000000000000e+02,1.816165499999999895e+02
2.580000000000000000e+02,1.818974200000000110e+02
2.590000000000000000e+02,1.821772899999999993e+02
2.600000000000000000e+02,1.824566800000000057e+02
2.610000000000000000e+02,1.827358199999999897e+02
2.620000000000000000e+02,1.830140399999999943e+02
2.630000000000000000e+02,1.832916899999999885e+02
2.640000000000000000e+02,1.835686599999999942e+02
2.650000000000000000e+02,1.838454600000000028e+02
2.660000000000000000e+02,1.841214099999999974e+02
2.670000000000000000e+02,1.843967100000000130e+02
2.680000000000000000e+02,1.846715199999999868e+02
2.690000000000000000e+02,1.849458899999999915e+02
2.700000000000000000e+02,1.852195399999999950e+02
2.710000000000000000e+02,1.854926600000000008e+02
2.720000000000000000e+02,1.857652400000000057e+02
2.730000000000000000e+02,1.860371600000000001e+02
2.740000000000000000e+02,1.863086099999999874e+02
2.750000000000000000e+02,1.865793199999999956e+02
2.760000000000000000e+02,1.868496199999999874e+02
2.770000000000000000e+02,1.871192599999999970e+02
2.780000000000000000e+02,1.873885300000000029e+02
2.790000000000000000e+02,1.876571399999999983e+02
2.800000000000000000e+02,1.879250499999999988e+02
2.810000000000000000e+02,1.881925799999999924e+02
2.820000000000000000e+02,1.884593700000000069e+02
2.830000000000000000e+02,1.887257500000000050e+02
2.840000000000000000e+02,1.889916399999999896e+02
2.850000000000000000e+02,1.892567400000000077e+02
2.860000000000000000e+02,1.895214699999999937e+02
2.870000000000000000e+02,1.897856400000000008e+02
2.880000000000000000e+02,1.900490599999999972e+02
2.890000000000000000e+02,1.903121500000000026e+02
2.900000000000000000e+02,1.905747100000000103e+02
2.910000000000000000e+02,1.908364300000000071e+02
2.920000000000000000e+02,1.910978200000000129e+02
2.930000000000000000e+02,1.913587499999999864e+02
2.940000000000000000e+02,1.916188400000000058e+02
2.950000000000000000e+02,1.918784300000000087e+02
2.960000000000000000e+02,1.921378499999999860e+02
2.970000000000000000e+02,1.923962999999999965e+02
2.980000000000000000e+02,1.926542800000000000e+02
2.990000000000000000e+02,1.929120800000000031e+02
3.000000000000000000e+02,1.931689299999999889e+02
3.010000000000000000e+02,1.934253500000000088e+02
3.020000000000000000e+02,1.936813199999999995e+02
3.030000000000000000e+02,1.939366100000000017e+02
3.040000000000000000e+02,1.941914099999999905e+02
3.050000000000000000e+02,1.944457700000000102e+02
3.060000000000000000e+02,1.946994799999999941e+02
3.070000000000000000e+02,1.949526700000000119e+02
3.080000000000000000e+02,1.952054400000000101e+02
3.090000000000000000e+02,1.954575499999999977e+02
3.100000000000000000e+02,1.957091399999999908e+02
3.110000000000000000e+02,1.959602399999999989e+02
3.120000000000000000e+02,1.962107100000000059e+02
3.130000000000000000e+02,1.964607200000000091e+02
3.140000000000000000e+02,1.967102500000000020e+02
3.150000000000000000e+02,1.969592700000000036e+02
3.160000000000000000e+02,1.972075299999999913e+02
3.170000000000000000e+02,1.974554899999999975e+02
3.180000000000000000e+02,1.977028999999999996e+02
3.190000000000000000e+02,1.979497700000000009e+02
3.200000000000000000e+02,1.981960300000000075e+02
3.210000000000000000e+02,1.984418499999999881e+02
3.220000000000000000e+02,1.986871500000000026e+02
3.230000000000000000e+02,1.989319600000000037e+02
3.240000000000000000e+02,1.991760400000000004e+02
3.250000000000000000e+02,1.994198299999999904e+02
3.260000000000000000e+02,1.996630700000000047e+02
3.270000000000000000e+02,1.999055799999999863e+02
3.280000000000000000e+02,2.001479199999999992e+02
3.290000000000000000e+02,2.003894300000000044e+02
3.300000000000000000e+02,2.006304299999999898e+02
3.310000000000000000e+02,2.008711900000000128e+02
3.320000000000000000e+02,2.011111500000000092e+02
3.330000000000000000e+02,2.013509099999999989e+02
3.340000000000000000e+02,2.015898300000000063e+02
3.350000000000000000e+02,2.018282900000000097e+02
3.360000000000000000e+02,2.020664999999999907e+02
3.370000000000000000e+02,2.023038899999999956e+02
3.380000000000000000e+02,2.025409899999999936e+02
3.390000000000000000e+02,2.027775100000000066e+02
3.400000000000000000e+02,2.030133999999999901e+02
3.410000000000000000e+02,2.032491300000000081e+02
3.420000000000000000e+02,2.034840100000000120e+02
3.430000000000000000e+02,2.037184399999999869e+02
3.440000000000000000e+02,2.039524800000000084e+02
3.450000000000000000e+02,2.041859000000000037e+02
3.460000000000000000e+02,2.044189800000000048e+02
3.470000000000000000e+02,2.046513699999999858e+02
3.480000000000000000e+02,2.048833500000000072e+02
3.490000000000000000e+02,2.051147499999999866e+02
3.500000000000000000e+02,2.053456700000000126e+02
3.510000000000000000e+02,2.055761400000000094e+02
3.520000000000000000e+02,2.058061099999999897e+02
3.530000000000000000e+02,2.060356800000000135e+02
3.540000000000000000e+02,2.062646300000000110e+02
3.550000000000000000e+02,2.064931500000000142e+02
3.560000000000000000e+02,2.067210200000000100e+02
3.570000000000000000e+02,2.069485500000000116e+02
3.580000000000000000e+02,2.071755699999999933e+02
3.590000000000000000e+02,2.074021500000000060e+02
3.600000000000000000e+02,2.076281999999999925e+02
3.610000000000000000e+02,2.078535799999999938e+02
3.620000000000000000e+02,2.080787699999999916e+02
3.630000000000000000e+02,2.083031599999999912e+02
3.640000000000000000e+02,2.085272799999999904e+02
3.650000000000000000e+02,2.087509499999999889e+02
3.660000000000000000e+02,2.089740400000000022e+02
3.670000000000000000e+02,2.091966600000000085e+02
3.680000000000000000e+02,2.094186699999999917e+02
3.690000000000000000e+02,2.096405000000000030e+02
3.700000000000000000e+02,2.098614699999999971e+02
3.710000000000000000e+02,2.100822400000000130e+02
3.720000000000000000e+02,2.103024699999999996e+02
3.730000000000000000e+02,2.105220199999999977e+02
3.740000000000000000e+02,2.107414599999999893e+02
3.750000000000000000e+02,2.109600199999999859e+02
3.760000000000000000e+02,2.111784499999999980e+02
3.770000000000000000e+02,2.113961600000000089e+02
3.780000000000000000e+02,2.116136500000000069e+02
3.790000000000000000e+02,2.118303500000000099e+02
3.800000000000000000e+02,2.120467399999999998e+02
3.810000000000000000e+02,2.122625999999999920e+02
3.820000000000000000e+02,2.124779200000000117e+02
3.830000000000000000e+02,2.126930800000000090e+02
3.840000000000000000e+02,2.129074599999999862e+02
3.850000000000000000e+02,2.131216300000000103e+02
3.860000000000000000e+02,2.133351000000000113e+02
3.870000000000000000e+02,2.135481399999999894e+02
3.880000000000000000e+02,2.137607099999999889e+02
3.890000000000000000e+02,2.139729199999999878e+02
3.900000000000000000e+02,2.141845899999999858e+02
3.910000000000000000e+02,2.143958100000000115e+02
3.920000000000000000e+02,2.146065399999999954e+02
3.930000000000000000e+02,2.148168499999999881e+02
3.940000000000000000e+02,2.150266399999999862e+02
3.950000000000000000e+02,2.152359899999999868e+02
3.960000000000000000e+02,2.154448899999999867e+02
3.970000000000000000e+02,2.156532899999999984e+02
3.980000000000000000e+02,2.158613400000000127e+02
3.990000000000000000e+02,2.160688199999999881e+02
