# Time [s], Convective Heat Transfer Coefficient [W/m2K]
1.000000000000000000e+00,0.000000000000000000e+00
2.000000000000000000e+00,0.000000000000000000e+00
3.000000000000000000e+00,0.000000000000000000e+00
4.000000000000000000e+00,0.000000000000000000e+00
5.000000000000000000e+00,2.412849599104084641e-02
6.000000000000000000e+00,3.574028725257893252e-02
7.000000000000000000e+00,5.524046602194510741e-02
8.000000000000000000e+00,7.797490316849942094e-02
9.000000000000000000e+00,1.070168253740379077e-01
1.000000000000000000e+01,1.416314696991431976e-01
1.100000000000000000e+01,1.814450086800974971e-01
1.200000000000000000e+01,2.263898408456907207e-01
1.300000000000000000e+01,2.758643360436971448e-01
1.400000000000000000e+01,3.293193419433884106e-01
1.500000000000000000e+01,3.862208063089997978e-01
1.600000000000000000e+01,4.459920331581813668e-01
1.700000000000000000e+01,5.081305839924041834e-01
1.800000000000000000e+01,5.721773197624169249e-01
1.900000000000000000e+01,6.377012763479229518e-01
2.000000000000000000e+01,7.043460278963312726e-01
2.100000000000000000e+01,7.717995358049460908e-01
2.200000000000000000e+01,8.397865916520435015e-01
2.300000000000000000e+01,9.080761792645174468e-01
2.400000000000000000e+01,9.764710897892745489e-01
2.500000000000000000e+01,1.044805755631675215e+00
2.600000000000000000e+01,1.112935730362490938e+00
2.700000000000000000e+01,1.180748352262466438e+00
2.800000000000000000e+01,1.248139708225559863e+00
2.900000000000000000e+01,1.315026385778877982e+00
3.000000000000000000e+01,1.381345467783798853e+00
3.100000000000000000e+01,1.447041449048757533e+00
3.200000000000000000e+01,1.512068875262712053e+00
3.300000000000000000e+01,1.576387621525403793e+00
3.400000000000000000e+01,1.639975530644230739e+00
3.500000000000000000e+01,1.702809871549086473e+00
3.600000000000000000e+01,1.764870236588592434e+00
3.700000000000000000e+01,1.826153253355236927e+00
3.800000000000000000e+01,1.886647113958414890e+00
3.900000000000000000e+01,1.946348393726877957e+00
4.000000000000000000e+01,2.005257139162725188e+00
4.100000000000000000e+01,2.063373746906090211e+00
4.200000000000000000e+01,2.120700705459488855e+00
4.300000000000000000e+01,2.177243307062338040e+00
4.400000000000000000e+01,2.233008256044484163e+00
4.500000000000000000e+01,2.288003552018219366e+00
4.600000000000000000e+01,2.342245657842160433e+00
4.700000000000000000e+01,2.395731116439820951e+00
4.800000000000000000e+01,2.448475530671852862e+00
4.900000000000000000e+01,2.500495838013177874e+00
5.000000000000000000e+01,2.551796383239502308e+00
5.100000000000000000e+01,2.602388117387967714e+00
5.200000000000000000e+01,2.652285912832999859e+00
5.300000000000000000e+01,2.701498587402308083e+00
5.400000000000000000e+01,2.750043774093024584e+00
5.500000000000000000e+01,2.797929875869491489e+00
5.600000000000000000e+01,2.845170064002677801e+00
5.700000000000000000e+01,2.891774293341679236e+00
5.800000000000000000e+01,2.937752298691525876e+00
5.900000000000000000e+01,2.983119345246077359e+00
6.000000000000000000e+01,3.027884499488468606e+00
6.100000000000000000e+01,3.072063732510244893e+00
6.200000000000000000e+01,3.115665401311536797e+00
6.300000000000000000e+01,3.158700732149570367e+00
6.400000000000000000e+01,3.201180542471277590e+00
6.500000000000000000e+01,3.243113917258979129e+00
6.600000000000000000e+01,3.284512078459600914e+00
6.700000000000000000e+01,3.325387349311684559e+00
6.800000000000000000e+01,3.365749272540525361e+00
6.900000000000000000e+01,3.405607732470824267e+00
7.000000000000000000e+01,3.444972200517975036e+00
7.100000000000000000e+01,3.483852529704059897e+00
7.200000000000000000e+01,3.522257948848456000e+00
7.300000000000000000e+01,3.560197386959829124e+00
7.400000000000000000e+01,3.597679667949269966e+00
7.500000000000000000e+01,3.634714923271685105e+00
7.600000000000000000e+01,3.671311929311788624e+00
7.700000000000000000e+01,3.707477800657521083e+00
7.800000000000000000e+01,3.743221227495585168e+00
7.900000000000000000e+01,3.778548628238995732e+00
8.000000000000000000e+01,3.813468371806630230e+00
8.100000000000000000e+01,3.847987747812469994e+00
8.200000000000000000e+01,3.882114062928871956e+00
8.300000000000000000e+01,3.915854860929696368e+00
8.400000000000000000e+01,3.949217820918608179e+00
8.500000000000000000e+01,3.982210887820660350e+00
8.600000000000000000e+01,4.014842100336406538e+00
8.700000000000000000e+01,4.047120579477997637e+00
8.800000000000000000e+01,4.079043917079421711e+00
8.900000000000000000e+01,4.110621085498536331e+00
9.000000000000000000e+01,4.141858746017557991e+00
9.100000000000000000e+01,4.172763702987855261e+00
9.200000000000000000e+01,4.203342095500843811e+00
9.300000000000000000e+01,4.233601075083325505e+00
9.400000000000000000e+01,4.263548861182737681e+00
9.500000000000000000e+01,4.293182662405081729e+00
9.600000000000000000e+01,4.322510972630841941e+00
9.700000000000000000e+01,4.351540018326665482e+00
9.800000000000000000e+01,4.380275736851298340e+00
9.900000000000000000e+01,4.408723131463037959e+00
1.000000000000000000e+02,4.436889718834859941e+00
1.010000000000000000e+02,4.464773744092646268e+00
1.020000000000000000e+02,4.492382150069087920e+00
1.030000000000000000e+02,4.519720249824805691e+00
1.040000000000000000e+02,4.546793975209374672e+00
1.050000000000000000e+02,4.573608665011184904e+00
1.060000000000000000e+02,4.600165503376600462e+00
1.070000000000000000e+02,4.626467169478640784e+00
1.080000000000000000e+02,4.652519969396157862e+00
1.090000000000000000e+02,4.678329356692691121e+00
1.100000000000000000e+02,4.703900402367766631e+00
1.110000000000000000e+02,4.729233785396502299e+00
1.120000000000000000e+02,4.754332031573345496e+00
1.130000000000000000e+02,4.779200236101022625e+00
1.140000000000000000e+02,4.803843547270642667e+00
1.150000000000000000e+02,4.828266410948763188e+00
1.160000000000000000e+02,4.852469722537073871e+00
1.170000000000000000e+02,4.876455727198758971e+00
1.180000000000000000e+02,4.900229464704225713e+00
1.190000000000000000e+02,4.923794627877223107e+00
1.200000000000000000e+02,4.947155683343888555e+00
1.210000000000000000e+02,4.970313381514145590e+00
1.220000000000000000e+02,4.993270139028211041e+00
1.230000000000000000e+02,5.016030195104427492e+00
1.240000000000000000e+02,5.038596763337234385e+00
1.250000000000000000e+02,5.060975230926751500e+00
1.260000000000000000e+02,5.083163369006958199e+00
1.270000000000000000e+02,5.105165494913925350e+00
1.280000000000000000e+02,5.126985200790466379e+00
1.290000000000000000e+02,5.148626444470806085e+00
1.300000000000000000e+02,5.170089461905803319e+00
1.310000000000000000e+02,5.191376088839922076e+00
1.320000000000000000e+02,5.212490212490600960e+00
1.330000000000000000e+02,5.233434954141828577e+00
1.340000000000000000e+02,5.254214396060596926e+00
1.350000000000000000e+02,5.274826560412770426e+00
1.360000000000000000e+02,5.295274748390522923e+00
1.370000000000000000e+02,5.315562739219548583e+00
1.380000000000000000e+02,5.335694196962899483e+00
1.390000000000000000e+02,5.355668390205306828e+00
1.400000000000000000e+02,5.375486917190828606e+00
1.410000000000000000e+02,5.395153338826970568e+00
1.420000000000000000e+02,5.414669834060408249e+00
1.430000000000000000e+02,5.434040857110443490e+00
1.440000000000000000e+02,5.453263059193347750e+00
1.450000000000000000e+02,5.472340845023831335e+00
1.460000000000000000e+02,5.491277331107546011e+00
1.470000000000000000e+02,5.510073233747212029e+00
1.480000000000000000e+02,5.528731852325360130e+00
1.490000000000000000e+02,5.547251717182596131e+00
1.500000000000000000e+02,5.565636383941774845e+00
1.510000000000000000e+02,5.583888299372308239e+00
1.520000000000000000e+02,5.602010590957180014e+00
1.530000000000000000e+02,5.620002004934378625e+00
1.540000000000000000e+02,5.637863748118607354e+00
1.550000000000000000e+02,5.655598788105725916e+00
1.560000000000000000e+02,5.673209398265064429e+00
1.570000000000000000e+02,5.690698155486853871e+00
1.580000000000000000e+02,5.708064122900799120e+00
1.590000000000000000e+02,5.725308491255843180e+00
1.600000000000000000e+02,5.742433592132279330e+00
1.610000000000000000e+02,5.759441805666068781e+00
1.620000000000000000e+02,5.776336015539825119e+00
1.630000000000000000e+02,5.793113560388037264e+00
1.640000000000000000e+02,5.809777040106670398e+00
1.650000000000000000e+02,5.826328648351672079e+00
1.660000000000000000e+02,5.842770252922903751e+00
1.670000000000000000e+02,5.859103712026437094e+00
1.680000000000000000e+02,5.875328772261886101e+00
1.690000000000000000e+02,5.891445655995438457e+00
1.700000000000000000e+02,5.907457195050753285e+00
1.710000000000000000e+02,5.923364823717442107e+00
1.720000000000000000e+02,5.939170507936997190e+00
1.730000000000000000e+02,5.954873892463584895e+00
1.740000000000000000e+02,5.970475087344920162e+00
1.750000000000000000e+02,5.985976452491334143e+00
1.760000000000000000e+02,6.001379387224919704e+00
1.770000000000000000e+02,6.016685616146166815e+00
1.780000000000000000e+02,6.031897438478311280e+00
1.790000000000000000e+02,6.047012175662677791e+00
1.800000000000000000e+02,6.062032265372732986e+00
1.810000000000000000e+02,6.076958954207622554e+00
1.820000000000000000e+02,6.091793399506684636e+00
1.830000000000000000e+02,6.106537519211062914e+00
1.840000000000000000e+02,6.121193380188596045e+00
1.850000000000000000e+02,6.135758282134009534e+00
1.860000000000000000e+02,6.150234525551473652e+00
1.870000000000000000e+02,6.164622979940138414e+00
1.880000000000000000e+02,6.178925631375950189e+00
1.890000000000000000e+02,6.193143725761059315e+00
1.900000000000000000e+02,6.207279001162789633e+00
1.910000000000000000e+02,6.221328958731562331e+00
1.920000000000000000e+02,6.235295297886906063e+00
1.930000000000000000e+02,6.249179895894511283e+00
1.940000000000000000e+02,6.262983043400031313e+00
1.950000000000000000e+02,6.276707044865570850e+00
1.960000000000000000e+02,6.290353896930564126e+00
1.970000000000000000e+02,6.303920434921298721e+00
1.980000000000000000e+02,6.317408474492135717e+00
1.990000000000000000e+02,6.330818659797897041e+00
2.000000000000000000e+02,6.344152524226494450e+00
2.010000000000000000e+02,6.357410676184766629e+00
2.020000000000000000e+02,6.370594866288981528e+00
2.030000000000000000e+02,6.383707590537292198e+00
2.040000000000000000e+02,6.396746353680141439e+00
2.050000000000000000e+02,6.409711776821235496e+00
2.060000000000000000e+02,6.422605065593449680e+00
2.070000000000000000e+02,6.435426330907048964e+00
2.080000000000000000e+02,6.448177285300369377e+00
2.090000000000000000e+02,6.460857818265882457e+00
2.100000000000000000e+02,6.473470892463385695e+00
2.110000000000000000e+02,6.486016640784974641e+00
2.120000000000000000e+02,6.498493529766420806e+00
2.130000000000000000e+02,6.510903085649668576e+00
2.140000000000000000e+02,6.523245984976332679e+00
2.150000000000000000e+02,6.535522344758170732e+00
2.160000000000000000e+02,6.547733644237988315e+00
2.170000000000000000e+02,6.559879979362731817e+00
2.180000000000000000e+02,6.571961985563137709e+00
2.190000000000000000e+02,6.583982448148006483e+00
2.200000000000000000e+02,6.595939536802502445e+00
2.210000000000000000e+02,6.607833591324000722e+00
2.220000000000000000e+02,6.619666014053065872e+00
2.230000000000000000e+02,6.631437121508358956e+00
2.240000000000000000e+02,6.643147489918548310e+00
2.250000000000000000e+02,6.654797422036181409e+00
2.260000000000000000e+02,6.666387742150774898e+00
2.270000000000000000e+02,6.677918737103668789e+00
2.280000000000000000e+02,6.689390950363643285e+00
2.290000000000000000e+02,6.700806741917733511e+00
2.300000000000000000e+02,6.712164801227641142e+00
2.310000000000000000e+02,6.723465129245505878e+00
2.320000000000000000e+02,6.734708758273585616e+00
2.330000000000000000e+02,6.745896448675463120e+00
2.340000000000000000e+02,6.757028180666850403e+00
2.350000000000000000e+02,6.768104700431563536e+00
2.360000000000000000e+02,6.779126743495758944e+00
2.370000000000000000e+02,6.790094527164288962e+00
2.380000000000000000e+02,6.801008265053396507e+00
2.390000000000000000e+02,6.811868671705068046e+00
2.400000000000000000e+02,6.822676451704862366e+00
2.410000000000000000e+02,6.833432049206216163e+00
2.420000000000000000e+02,6.844136151860432449e+00
2.430000000000000000e+02,6.854788192298225447e+00
2.440000000000000000e+02,6.865388851131072556e+00
2.450000000000000000e+02,6.875938552160476114e+00
2.460000000000000000e+02,6.886438453711882346e+00
2.470000000000000000e+02,6.896888222682346914e+00
2.480000000000000000e+02,6.907288510623564193e+00
2.490000000000000000e+02,6.917639471245002447e+00
2.500000000000000000e+02,6.927941987328619433e+00
2.510000000000000000e+02,6.938195714572623629e+00
2.520000000000000000e+02,6.948401766727970497e+00
2.530000000000000000e+02,6.958560035005743494e+00
2.540000000000000000e+02,6.968671375354406727e+00
2.550000000000000000e+02,6.978735431323754845e+00
2.560000000000000000e+02,6.988753048176320704e+00
2.570000000000000000e+02,6.998725060804376064e+00
2.580000000000000000e+02,7.008650625776271959e+00
2.590000000000000000e+02,7.018531284865474618e+00
2.600000000000000000e+02,7.028366429102383073e+00
2.610000000000000000e+02,7.038156873523506718e+00
2.620000000000000000e+02,7.047902480807525905e+00
2.630000000000000000e+02,7.057604289548994991e+00
2.640000000000000000e+02,7.067262388821787589e+00
2.650000000000000000e+02,7.076877099830028328e+00
2.660000000000000000e+02,7.086449205876849788e+00
2.670000000000000000e+02,7.095978086342272562e+00
2.680000000000000000e+02,7.105464517781468814e+00
2.690000000000000000e+02,7.114908805375700140e+00
2.700000000000000000e+02,7.124311250471959234e+00
2.710000000000000000e+02,7.133671690589849845e+00
2.720000000000000000e+02,7.142991570349731312e+00
2.730000000000000000e+02,7.152270030426747915e+00
2.740000000000000000e+02,7.161508045761102004e+00
2.750000000000000000e+02,7.170705214735760613e+00
2.760000000000000000e+02,7.179862501740185365e+00
2.770000000000000000e+02,7.188980181285169913e+00
2.780000000000000000e+02,7.198058072697270937e+00
2.790000000000000000e+02,7.207096221935438862e+00
2.800000000000000000e+02,7.216095797962227110e+00
2.810000000000000000e+02,7.225056387854118078e+00
2.820000000000000000e+02,7.233978477019179287e+00
2.830000000000000000e+02,7.242862768708473453e+00
2.840000000000000000e+02,7.251708845778026991e+00
2.850000000000000000e+02,7.260517182876776943e+00
2.860000000000000000e+02,7.269288249548846892e+00
2.870000000000000000e+02,7.278022068332321126e+00
2.880000000000000000e+02,7.286719542926211268e+00
2.890000000000000000e+02,7.295379808393630761e+00
2.900000000000000000e+02,7.304003324050444945e+00
2.910000000000000000e+02,7.312590763301312968e+00
2.920000000000000000e+02,7.321142355968195403e+00
2.930000000000000000e+02,7.329658329267064509e+00
2.940000000000000000e+02,7.338138690458936075e+00
2.950000000000000000e+02,7.346584096944898334e+00
2.960000000000000000e+02,7.354994550468014758e+00
2.970000000000000000e+02,7.363370052311680070e+00
2.980000000000000000e+02,7.371711034126267492e+00
2.990000000000000000e+02,7.380017278438209871e+00
3.000000000000000000e+02,7.388288998176655298e+00
3.010000000000000000e+02,7.396527259803491461e+00
3.020000000000000000e+02,7.404731838905073360e+00
3.030000000000000000e+02,7.412903151713787331e+00
3.040000000000000000e+02,7.421040972711845818e+00
3.050000000000000000e+02,7.429145926320333437e+00
3.060000000000000000e+02,7.437217784576048984e+00
3.070000000000000000e+02,7.445257588152915496e+00
3.080000000000000000e+02,7.453264893293707338e+00
3.090000000000000000e+02,7.461239890478885251e+00
3.100000000000000000e+02,7.469182768169132736e+00
3.110000000000000000e+02,7.477093922218477573e+00
3.120000000000000000e+02,7.484972908981859518e+00
3.130000000000000000e+02,7.492820539184751105e+00
3.140000000000000000e+02,7.500636367965202389e+00
3.150000000000000000e+02,7.508421822539790291e+00
3.160000000000000000e+02,7.516176245834178538e+00
3.170000000000000000e+02,7.523900226544843584e+00
3.180000000000000000e+02,7.531593522728296186e+00
3.190000000000000000e+02,7.539256099998785210e+00
3.200000000000000000e+02,7.546888540470483520e+00
3.210000000000000000e+02,7.554491010971934095e+00
3.220000000000000000e+02,7.562063881348852767e+00
3.230000000000000000e+02,7.569607313853461861e+00
3.240000000000000000e+02,7.577120653542793072e+00
3.250000000000000000e+02,7.584605285207711489e+00
3.260000000000000000e+02,7.592060145315048025e+00
3.270000000000000000e+02,7.599486407959975764e+00
3.280000000000000000e+02,7.606884023952514617e+00
3.290000000000000000e+02,7.614253347982598008e+00
3.300000000000000000e+02,7.621593724086973332e+00
3.310000000000000000e+02,7.628905506685874194e+00
3.320000000000000000e+02,7.636189047159143151e+00
3.330000000000000000e+02,7.643444693891857433e+00
3.340000000000000000e+02,7.650672592328104926e+00
3.350000000000000000e+02,7.657873086124364015e+00
3.360000000000000000e+02,7.665045918334242536e+00
3.370000000000000000e+02,7.672191430239123200e+00
3.380000000000000000e+02,7.679309563278396311e+00
3.390000000000000000e+02,7.686401051568270582e+00
3.400000000000000000e+02,7.693465436897588106e+00
3.410000000000000000e+02,7.700502264121737994e+00
3.420000000000000000e+02,7.707512460472245586e+00
3.430000000000000000e+02,7.714496749458136016e+00
3.440000000000000000e+02,7.721454671040779871e+00
3.450000000000000000e+02,7.728386748159244313e+00
3.460000000000000000e+02,7.735292325900523736e+00
3.470000000000000000e+02,7.742172316070107918e+00
3.480000000000000000e+02,7.749026259108649839e+00
3.490000000000000000e+02,7.755854476840484679e+00
3.500000000000000000e+02,7.762656705766960208e+00
3.510000000000000000e+02,7.769433847496577172e+00
3.520000000000000000e+02,7.776186022747552329e+00
3.530000000000000000e+02,7.782913157894289391e+00
3.540000000000000000e+02,7.789614986642620309e+00
3.550000000000000000e+02,7.796292014622514976e+00
3.560000000000000000e+02,7.802944359225483240e+00
3.570000000000000000e+02,7.809571752920597909e+00
3.580000000000000000e+02,7.816174696176021897e+00
3.590000000000000000e+02,7.822753494542848074e+00
3.600000000000000000e+02,7.829308451277174008e+00
3.610000000000000000e+02,7.835838914118116172e+00
3.620000000000000000e+02,7.842345376904432008e+00
3.630000000000000000e+02,7.848827759897505807e+00
3.640000000000000000e+02,7.855286363056459109e+00
3.650000000000000000e+02,7.861721484131054538e+00
3.660000000000000000e+02,7.868133040514037724e+00
3.670000000000000000e+02,7.874521705031114926e+00
3.680000000000000000e+02,7.880886638107448938e+00
3.690000000000000000e+02,7.887228510743915066e+00
3.700000000000000000e+02,7.893547237910144787e+00
3.710000000000000000e+02,7.899842734892100538e+00
3.720000000000000000e+02,7.906115479113481115e+00
3.730000000000000000e+02,7.912365944749609525e+00
3.740000000000000000e+02,7.918593295965704826e+00
3.750000000000000000e+02,7.924798379501489798e+00
3.760000000000000000e+02,7.930981106065295272e+00
3.770000000000000000e+02,7.937141200892926740e+00
3.780000000000000000e+02,7.943279503872024527e+00
3.790000000000000000e+02,7.949395552799916054e+00
3.800000000000000000e+02,7.955489812898322022e+00
3.810000000000000000e+02,7.961562007627674298e+00
3.820000000000000000e+02,7.967612046319867858e+00
3.830000000000000000e+02,7.973640943350050136e+00
3.840000000000000000e+02,7.979648052202882980e+00
3.850000000000000000e+02,7.985633647874059271e+00
3.860000000000000000e+02,7.991597820217934078e+00
3.870000000000000000e+02,7.997541024390640629e+00
3.880000000000000000e+02,8.003462798911698428e+00
3.890000000000000000e+02,8.009363597224981035e+00
3.900000000000000000e+02,8.015243323276093790e+00
3.910000000000000000e+02,8.021101881378804421e+00
3.920000000000000000e+02,8.026940084612139259e+00
3.930000000000000000e+02,8.032757289803283740e+00
3.940000000000000000e+02,8.038554125402814776e+00
3.950000000000000000e+02,8.044330311574011461e+00
3.960000000000000000e+02,8.050085750535449947e+00
3.970000000000000000e+02,8.055821427155979819e+00
3.980000000000000000e+02,8.061536159028051429e+00
