# Time [s], Mass [Kg]
1.000000000000000000e+00,1.000000000000000000e+00
2.000000000000000000e+00,1.000000000000000000e+00
3.000000000000000000e+00,1.000000000000000000e+00
4.000000000000000000e+00,1.000000000000000000e+00
5.000000000000000000e+00,1.000000000000000000e+00
6.000000000000000000e+00,1.000000000000000000e+00
7.000000000000000000e+00,1.000000000000000000e+00
8.000000000000000000e+00,9.999998799999999521e-01
9.000000000000000000e+00,9.999992800000000459e-01
1.000000000000000000e+01,9.999966599999999817e-01
1.100000000000000000e+01,9.999862299999999760e-01
1.200000000000000000e+01,9.999563099999999594e-01
1.300000000000000000e+01,9.998856799999999989e-01
1.400000000000000000e+01,9.997392899999999472e-01
1.500000000000000000e+01,9.994659999999999656e-01
1.600000000000000000e+01,9.990021000000000040e-01
1.700000000000000000e+01,9.982832699999999448e-01
1.800000000000000000e+01,9.972645599999999666e-01
1.900000000000000000e+01,9.959391399999999450e-01
2.000000000000000000e+01,9.943475099999999900e-01
2.100000000000000000e+01,9.925705799999999801e-01
2.200000000000000000e+01,9.907091300000000489e-01
2.300000000000000000e+01,9.888788499999999759e-01
2.400000000000000000e+01,9.872025300000000225e-01
2.500000000000000000e+01,9.857803600000000221e-01
2.600000000000000000e+01,9.846565699999999532e-01
2.700000000000000000e+01,9.837381800000000176e-01
2.800000000000000000e+01,9.826863399999999915e-01
2.900000000000000000e+01,9.813876700000000453e-01
3.000000000000000000e+01,9.799030399999999474e-01
3.100000000000000000e+01,9.783040299999999911e-01
3.200000000000000000e+01,9.766673999999999634e-01
3.300000000000000000e+01,9.750668399999999902e-01
3.400000000000000000e+01,9.735689800000000282e-01
3.500000000000000000e+01,9.722234600000000393e-01
3.600000000000000000e+01,9.710496699999999759e-01
3.700000000000000000e+01,9.700158199999999731e-01
3.800000000000000000e+01,9.690309200000000178e-01
3.900000000000000000e+01,9.679779400000000367e-01
4.000000000000000000e+01,9.667888300000000434e-01
4.100000000000000000e+01,9.654874799999999535e-01
4.200000000000000000e+01,9.641155000000000141e-01
4.300000000000000000e+01,9.627166400000000124e-01
4.400000000000000000e+01,9.613332700000000175e-01
4.500000000000000000e+01,9.600025399999999598e-01
4.600000000000000000e+01,9.587534100000000281e-01
4.700000000000000000e+01,9.576011899999999910e-01
4.800000000000000000e+01,9.565411200000000225e-01
4.900000000000000000e+01,9.555463199999999491e-01
5.000000000000000000e+01,9.545700000000000296e-01
5.100000000000000000e+01,9.535614799999999613e-01
5.200000000000000000e+01,9.524882999999999544e-01
5.300000000000000000e+01,9.513472899999999566e-01
5.400000000000000000e+01,9.501567499999999944e-01
5.500000000000000000e+01,9.489411100000000321e-01
5.600000000000000000e+01,9.477242200000000061e-01
5.700000000000000000e+01,9.465284299999999762e-01
5.800000000000000000e+01,9.453717499999999552e-01
5.900000000000000000e+01,9.442665000000000086e-01
6.000000000000000000e+01,9.432171000000000305e-01
6.100000000000000000e+01,9.422181200000000478e-01
6.200000000000000000e+01,9.412546200000000418e-01
6.300000000000000000e+01,9.403039199999999598e-01
6.400000000000000000e+01,9.393413699999999533e-01
6.500000000000000000e+01,9.383480499999999891e-01
6.600000000000000000e+01,9.373159399999999586e-01
6.700000000000000000e+01,9.362482399999999538e-01
6.800000000000000000e+01,9.351561099999999849e-01
6.900000000000000000e+01,9.340532400000000068e-01
7.000000000000000000e+01,9.329537700000000155e-01
7.100000000000000000e+01,9.318697500000000522e-01
7.200000000000000000e+01,9.308103899999999875e-01
7.300000000000000000e+01,9.297814399999999591e-01
7.400000000000000000e+01,9.287841900000000095e-01
7.500000000000000000e+01,9.278147799999999501e-01
7.600000000000000000e+01,9.268648600000000126e-01
7.700000000000000000e+01,9.259224499999999525e-01
7.800000000000000000e+01,9.249742600000000481e-01
7.900000000000000000e+01,9.240093799999999913e-01
8.000000000000000000e+01,9.230207799999999851e-01
8.100000000000000000e+01,9.220073800000000430e-01
8.200000000000000000e+01,9.209732999999999947e-01
8.300000000000000000e+01,9.199257499999999865e-01
8.400000000000000000e+01,9.188734299999999910e-01
8.500000000000000000e+01,9.178243299999999660e-01
8.600000000000000000e+01,9.167854800000000415e-01
8.700000000000000000e+01,9.157617099999999510e-01
8.800000000000000000e+01,9.147548699999999977e-01
8.900000000000000000e+01,9.137646000000000379e-01
9.000000000000000000e+01,9.127871400000000524e-01
9.100000000000000000e+01,9.118164199999999608e-01
9.200000000000000000e+01,9.108448599999999784e-01
9.300000000000000000e+01,9.098650200000000243e-01
9.400000000000000000e+01,9.088703999999999672e-01
9.500000000000000000e+01,9.078572400000000098e-01
9.600000000000000000e+01,9.068252999999999453e-01
9.700000000000000000e+01,9.057771000000000017e-01
9.800000000000000000e+01,9.047173299999999863e-01
9.900000000000000000e+01,9.036515999999999993e-01
1.000000000000000000e+02,9.025852699999999951e-01
1.010000000000000000e+02,9.015226400000000417e-01
1.020000000000000000e+02,9.004664999999999475e-01
1.030000000000000000e+02,8.994176999999999866e-01
1.040000000000000000e+02,8.983749699999999949e-01
1.050000000000000000e+02,8.973354700000000239e-01
1.060000000000000000e+02,8.962946499999999705e-01
1.070000000000000000e+02,8.952474000000000265e-01
1.080000000000000000e+02,8.941886999999999475e-01
1.090000000000000000e+02,8.931148599999999549e-01
1.100000000000000000e+02,8.920240400000000180e-01
1.110000000000000000e+02,8.909162900000000551e-01
1.120000000000000000e+02,8.897939900000000346e-01
1.130000000000000000e+02,8.886604299999999457e-01
1.140000000000000000e+02,8.875194199999999478e-01
1.150000000000000000e+02,8.863743499999999775e-01
1.160000000000000000e+02,8.852274999999999450e-01
1.170000000000000000e+02,8.840801099999999746e-01
1.180000000000000000e+02,8.829313500000000037e-01
1.190000000000000000e+02,8.817794899999999991e-01
1.200000000000000000e+02,8.806213699999999589e-01
1.210000000000000000e+02,8.794532999999999934e-01
1.220000000000000000e+02,8.782716999999999885e-01
1.230000000000000000e+02,8.770735899999999585e-01
1.240000000000000000e+02,8.758574700000000268e-01
1.250000000000000000e+02,8.746232400000000240e-01
1.260000000000000000e+02,8.733723199999999798e-01
1.270000000000000000e+02,8.721067900000000206e-01
1.280000000000000000e+02,8.708288699999999771e-01
1.290000000000000000e+02,8.695408100000000529e-01
1.300000000000000000e+02,8.682436300000000440e-01
1.310000000000000000e+02,8.669373999999999691e-01
1.320000000000000000e+02,8.656209099999999657e-01
1.330000000000000000e+02,8.642919100000000521e-01
1.340000000000000000e+02,8.629477599999999526e-01
1.350000000000000000e+02,8.615855000000000041e-01
1.360000000000000000e+02,8.602027300000000265e-01
1.370000000000000000e+02,8.587979100000000532e-01
1.380000000000000000e+02,8.573704399999999559e-01
1.390000000000000000e+02,8.559207899999999869e-01
1.400000000000000000e+02,8.544499899999999926e-01
1.410000000000000000e+02,8.529594499999999524e-01
1.420000000000000000e+02,8.514502000000000459e-01
1.430000000000000000e+02,8.499225400000000041e-01
1.440000000000000000e+02,8.483760399999999979e-01
1.450000000000000000e+02,8.468095100000000430e-01
1.460000000000000000e+02,8.452210399999999790e-01
1.470000000000000000e+02,8.436086799999999997e-01
1.480000000000000000e+02,8.419706799999999713e-01
1.490000000000000000e+02,8.403059800000000079e-01
1.500000000000000000e+02,8.386141099999999682e-01
1.510000000000000000e+02,8.368956400000000517e-01
1.520000000000000000e+02,8.351516700000000126e-01
1.530000000000000000e+02,8.333835000000000548e-01
1.540000000000000000e+02,8.315923800000000199e-01
1.550000000000000000e+02,8.297792699999999577e-01
1.560000000000000000e+02,8.279445800000000411e-01
1.570000000000000000e+02,8.260884299999999847e-01
1.580000000000000000e+02,8.242106999999999628e-01
1.590000000000000000e+02,8.223114599999999941e-01
1.600000000000000000e+02,8.203911200000000292e-01
1.610000000000000000e+02,8.184506900000000362e-01
1.620000000000000000e+02,8.164917800000000003e-01
1.630000000000000000e+02,8.145166000000000350e-01
1.640000000000000000e+02,8.125274200000000002e-01
1.650000000000000000e+02,8.105267299999999731e-01
1.660000000000000000e+02,8.085164999999999713e-01
1.670000000000000000e+02,8.064988299999999999e-01
1.680000000000000000e+02,8.044750099999999904e-01
1.690000000000000000e+02,8.024466599999999783e-01
1.700000000000000000e+02,8.004152799999999512e-01
1.710000000000000000e+02,7.983825199999999844e-01
1.720000000000000000e+02,7.963502999999999554e-01
1.730000000000000000e+02,7.943208200000000385e-01
1.740000000000000000e+02,7.922962900000000142e-01
1.750000000000000000e+02,7.902790299999999934e-01
1.760000000000000000e+02,7.882710099999999942e-01
1.770000000000000000e+02,7.862740799999999863e-01
1.780000000000000000e+02,7.842897800000000474e-01
1.790000000000000000e+02,7.823194900000000063e-01
1.800000000000000000e+02,7.803643900000000189e-01
1.810000000000000000e+02,7.784259900000000121e-01
1.820000000000000000e+02,7.765055299999999994e-01
1.830000000000000000e+02,7.746046800000000454e-01
1.840000000000000000e+02,7.727248100000000397e-01
1.850000000000000000e+02,7.708675900000000469e-01
1.860000000000000000e+02,7.690343899999999566e-01
1.870000000000000000e+02,7.672264600000000545e-01
1.880000000000000000e+02,7.654451700000000081e-01
1.890000000000000000e+02,7.636915399999999465e-01
1.900000000000000000e+02,7.619669399999999815e-01
1.910000000000000000e+02,7.602726199999999546e-01
1.920000000000000000e+02,7.586099499999999773e-01
1.930000000000000000e+02,7.569806000000000035e-01
1.940000000000000000e+02,7.553862300000000474e-01
1.950000000000000000e+02,7.538285300000000522e-01
1.960000000000000000e+02,7.523093199999999481e-01
1.970000000000000000e+02,7.508304700000000276e-01
1.980000000000000000e+02,7.493940000000000046e-01
1.990000000000000000e+02,7.480020499999999739e-01
2.000000000000000000e+02,7.466570099999999544e-01
2.010000000000000000e+02,7.453615700000000288e-01
2.020000000000000000e+02,7.441184499999999868e-01
2.030000000000000000e+02,7.429307699999999626e-01
2.040000000000000000e+02,7.418017999999999557e-01
2.050000000000000000e+02,7.407350499999999505e-01
2.060000000000000000e+02,7.397341699999999687e-01
2.070000000000000000e+02,7.388030300000000272e-01
2.080000000000000000e+02,7.379455000000000320e-01
2.090000000000000000e+02,7.371655099999999683e-01
2.100000000000000000e+02,7.364668800000000459e-01
2.110000000000000000e+02,7.358528399999999525e-01
2.120000000000000000e+02,7.353256900000000318e-01
2.130000000000000000e+02,7.348864699999999583e-01
2.140000000000000000e+02,7.345342000000000260e-01
2.150000000000000000e+02,7.342650899999999536e-01
2.160000000000000000e+02,7.340721500000000344e-01
2.170000000000000000e+02,7.339448299999999925e-01
2.180000000000000000e+02,7.338695499999999816e-01
2.190000000000000000e+02,7.338310500000000403e-01
2.200000000000000000e+02,7.338149499999999659e-01
2.210000000000000000e+02,7.338098299999999963e-01
2.220000000000000000e+02,7.338088200000000283e-01
2.230000000000000000e+02,7.338086999999999804e-01
2.240000000000000000e+02,7.338086999999999804e-01
2.250000000000000000e+02,7.338086999999999804e-01
2.260000000000000000e+02,7.338086999999999804e-01
2.270000000000000000e+02,7.338086999999999804e-01
2.280000000000000000e+02,7.338086999999999804e-01
2.290000000000000000e+02,7.338086999999999804e-01
2.300000000000000000e+02,7.338086999999999804e-01
2.310000000000000000e+02,7.338086999999999804e-01
2.320000000000000000e+02,7.338086999999999804e-01
2.330000000000000000e+02,7.338086999999999804e-01
2.340000000000000000e+02,7.338086999999999804e-01
2.350000000000000000e+02,7.338086999999999804e-01
2.360000000000000000e+02,7.338086999999999804e-01
2.370000000000000000e+02,7.338086999999999804e-01
2.380000000000000000e+02,7.338086999999999804e-01
2.390000000000000000e+02,7.338086999999999804e-01
2.400000000000000000e+02,7.338086999999999804e-01
2.410000000000000000e+02,7.338086999999999804e-01
2.420000000000000000e+02,7.338086999999999804e-01
2.430000000000000000e+02,7.338086999999999804e-01
2.440000000000000000e+02,7.338086999999999804e-01
2.450000000000000000e+02,7.338086999999999804e-01
2.460000000000000000e+02,7.338086999999999804e-01
2.470000000000000000e+02,7.338086999999999804e-01
2.480000000000000000e+02,7.338086999999999804e-01
2.490000000000000000e+02,7.338086999999999804e-01
2.500000000000000000e+02,7.338086999999999804e-01
2.510000000000000000e+02,7.338086999999999804e-01
2.520000000000000000e+02,7.338086999999999804e-01
2.530000000000000000e+02,7.338086999999999804e-01
2.540000000000000000e+02,7.338086999999999804e-01
2.550000000000000000e+02,7.338086999999999804e-01
2.560000000000000000e+02,7.338086999999999804e-01
2.570000000000000000e+02,7.338086999999999804e-01
2.580000000000000000e+02,7.338086999999999804e-01
2.590000000000000000e+02,7.338086999999999804e-01
2.600000000000000000e+02,7.338086999999999804e-01
2.610000000000000000e+02,7.338086999999999804e-01
2.620000000000000000e+02,7.338086999999999804e-01
2.630000000000000000e+02,7.338086999999999804e-01
2.640000000000000000e+02,7.338086999999999804e-01
2.650000000000000000e+02,7.338086999999999804e-01
2.660000000000000000e+02,7.338086999999999804e-01
2.670000000000000000e+02,7.338086999999999804e-01
2.680000000000000000e+02,7.338086999999999804e-01
2.690000000000000000e+02,7.338086999999999804e-01
2.700000000000000000e+02,7.338086999999999804e-01
2.710000000000000000e+02,7.338086999999999804e-01
2.720000000000000000e+02,7.338086999999999804e-01
2.730000000000000000e+02,7.338086999999999804e-01
2.740000000000000000e+02,7.338086999999999804e-01
2.750000000000000000e+02,7.338086999999999804e-01
2.760000000000000000e+02,7.338086999999999804e-01
2.770000000000000000e+02,7.338086999999999804e-01
2.780000000000000000e+02,7.338086999999999804e-01
2.790000000000000000e+02,7.338086999999999804e-01
2.800000000000000000e+02,7.338086999999999804e-01
2.810000000000000000e+02,7.338086999999999804e-01
2.820000000000000000e+02,7.338086999999999804e-01
2.830000000000000000e+02,7.338086999999999804e-01
2.840000000000000000e+02,7.338086999999999804e-01
2.850000000000000000e+02,7.338086999999999804e-01
2.860000000000000000e+02,7.338086999999999804e-01
2.870000000000000000e+02,7.338086999999999804e-01
2.880000000000000000e+02,7.338086999999999804e-01
2.890000000000000000e+02,7.338086999999999804e-01
2.900000000000000000e+02,7.338086999999999804e-01
2.910000000000000000e+02,7.338086999999999804e-01
2.920000000000000000e+02,7.338086999999999804e-01
2.930000000000000000e+02,7.338086999999999804e-01
2.940000000000000000e+02,7.338086999999999804e-01
2.950000000000000000e+02,7.338086999999999804e-01
2.960000000000000000e+02,7.338086999999999804e-01
2.970000000000000000e+02,7.338086999999999804e-01
2.980000000000000000e+02,7.338086999999999804e-01
2.990000000000000000e+02,7.338086999999999804e-01
3.000000000000000000e+02,7.338086999999999804e-01
3.010000000000000000e+02,7.338086999999999804e-01
3.020000000000000000e+02,7.338086999999999804e-01
3.030000000000000000e+02,7.338086999999999804e-01
3.040000000000000000e+02,7.338086999999999804e-01
3.050000000000000000e+02,7.338086999999999804e-01
3.060000000000000000e+02,7.338086999999999804e-01
3.070000000000000000e+02,7.338086999999999804e-01
3.080000000000000000e+02,7.338086999999999804e-01
3.090000000000000000e+02,7.338086999999999804e-01
3.100000000000000000e+02,7.338086999999999804e-01
3.110000000000000000e+02,7.338086999999999804e-01
3.120000000000000000e+02,7.338086999999999804e-01
3.130000000000000000e+02,7.338086999999999804e-01
3.140000000000000000e+02,7.338086999999999804e-01
3.150000000000000000e+02,7.338086999999999804e-01
3.160000000000000000e+02,7.338086999999999804e-01
3.170000000000000000e+02,7.338086999999999804e-01
3.180000000000000000e+02,7.338086999999999804e-01
3.190000000000000000e+02,7.338086999999999804e-01
3.200000000000000000e+02,7.338086999999999804e-01
3.210000000000000000e+02,7.338086999999999804e-01
3.220000000000000000e+02,7.338086999999999804e-01
3.230000000000000000e+02,7.338086999999999804e-01
3.240000000000000000e+02,7.338086999999999804e-01
3.250000000000000000e+02,7.338086999999999804e-01
3.260000000000000000e+02,7.338086999999999804e-01
3.270000000000000000e+02,7.338086999999999804e-01
3.280000000000000000e+02,7.338086999999999804e-01
3.290000000000000000e+02,7.338086999999999804e-01
3.300000000000000000e+02,7.338086999999999804e-01
3.310000000000000000e+02,7.338086999999999804e-01
3.320000000000000000e+02,7.338086999999999804e-01
3.330000000000000000e+02,7.338086999999999804e-01
3.340000000000000000e+02,7.338086999999999804e-01
3.350000000000000000e+02,7.338086999999999804e-01
3.360000000000000000e+02,7.338086999999999804e-01
3.370000000000000000e+02,7.338086999999999804e-01
3.380000000000000000e+02,7.338086999999999804e-01
3.390000000000000000e+02,7.338086999999999804e-01
3.400000000000000000e+02,7.338086999999999804e-01
3.410000000000000000e+02,7.338086999999999804e-01
3.420000000000000000e+02,7.338086999999999804e-01
3.430000000000000000e+02,7.338086999999999804e-01
3.440000000000000000e+02,7.338086999999999804e-01
3.450000000000000000e+02,7.338086999999999804e-01
3.460000000000000000e+02,7.338086999999999804e-01
3.470000000000000000e+02,7.338086999999999804e-01
3.480000000000000000e+02,7.338086999999999804e-01
3.490000000000000000e+02,7.338086999999999804e-01
3.500000000000000000e+02,7.338086999999999804e-01
3.510000000000000000e+02,7.338086999999999804e-01
3.520000000000000000e+02,7.338086999999999804e-01
3.530000000000000000e+02,7.338086999999999804e-01
3.540000000000000000e+02,7.338086999999999804e-01
3.550000000000000000e+02,7.338086999999999804e-01
3.560000000000000000e+02,7.338086999999999804e-01
3.570000000000000000e+02,7.338086999999999804e-01
3.580000000000000000e+02,7.338086999999999804e-01
3.590000000000000000e+02,7.338086999999999804e-01
3.600000000000000000e+02,7.338086999999999804e-01
3.610000000000000000e+02,7.338086999999999804e-01
3.620000000000000000e+02,7.338086999999999804e-01
3.630000000000000000e+02,7.338086999999999804e-01
3.640000000000000000e+02,7.338086999999999804e-01
3.650000000000000000e+02,7.338086999999999804e-01
3.660000000000000000e+02,7.338086999999999804e-01
3.670000000000000000e+02,7.338086999999999804e-01
3.680000000000000000e+02,7.338086999999999804e-01
3.690000000000000000e+02,7.338086999999999804e-01
3.700000000000000000e+02,7.338086999999999804e-01
3.710000000000000000e+02,7.338086999999999804e-01
3.720000000000000000e+02,7.338086999999999804e-01
3.730000000000000000e+02,7.338086999999999804e-01
3.740000000000000000e+02,7.338086999999999804e-01
3.750000000000000000e+02,7.338086999999999804e-01
3.760000000000000000e+02,7.338086999999999804e-01
3.770000000000000000e+02,7.338086999999999804e-01
3.780000000000000000e+02,7.338086999999999804e-01
3.790000000000000000e+02,7.338086999999999804e-01
3.800000000000000000e+02,7.338086999999999804e-01
3.810000000000000000e+02,7.338086999999999804e-01
3.820000000000000000e+02,7.338086999999999804e-01
3.830000000000000000e+02,7.338086999999999804e-01
3.840000000000000000e+02,7.338086999999999804e-01
3.850000000000000000e+02,7.338086999999999804e-01
3.860000000000000000e+02,7.338086999999999804e-01
3.870000000000000000e+02,7.338086999999999804e-01
3.880000000000000000e+02,7.338086999999999804e-01
3.890000000000000000e+02,7.338086999999999804e-01
3.900000000000000000e+02,7.338086999999999804e-01
3.910000000000000000e+02,7.338086999999999804e-01
3.920000000000000000e+02,7.338086999999999804e-01
3.930000000000000000e+02,7.338086999999999804e-01
3.940000000000000000e+02,7.338086999999999804e-01
3.950000000000000000e+02,7.338086999999999804e-01
3.960000000000000000e+02,7.338086999999999804e-01
3.970000000000000000e+02,7.338086999999999804e-01
3.980000000000000000e+02,7.338086999999999804e-01
3.990000000000000000e+02,7.338086999999999804e-01
