# Time [s], Temperature [C]
1.000000000000000000e+00,2.499997099999999861e+01
2.000000000000000000e+00,1.088976700000000051e+02
3.000000000000000000e+00,1.597202599999999961e+02
4.000000000000000000e+00,1.979970399999999984e+02
5.000000000000000000e+00,2.296160700000000077e+02
6.000000000000000000e+00,2.568039200000000051e+02
7.000000000000000000e+00,2.807877799999999979e+02
8.000000000000000000e+00,3.024896499999999833e+02
9.000000000000000000e+00,3.227114900000000262e+02
1.000000000000000000e+01,3.414685400000000186e+02
1.100000000000000000e+01,3.583081999999999994e+02
1.200000000000000000e+01,3.734441199999999981e+02
1.300000000000000000e+01,3.871753199999999993e+02
1.400000000000000000e+01,3.996450199999999882e+02
1.500000000000000000e+01,4.108724100000000021e+02
1.600000000000000000e+01,4.208344999999999914e+02
1.700000000000000000e+01,4.295483399999999961e+02
1.800000000000000000e+01,4.371436800000000176e+02
1.900000000000000000e+01,4.438731700000000160e+02
2.000000000000000000e+01,4.500680199999999900e+02
2.100000000000000000e+01,4.561186500000000024e+02
2.200000000000000000e+01,4.623384399999999914e+02
2.300000000000000000e+01,4.689821200000000090e+02
2.400000000000000000e+01,4.763294700000000148e+02
2.500000000000000000e+01,4.844288300000000049e+02
2.600000000000000000e+01,4.930467499999999745e+02
2.700000000000000000e+01,5.013941699999999742e+02
2.800000000000000000e+01,5.078618500000000040e+02
2.900000000000000000e+01,5.133511399999999867e+02
3.000000000000000000e+01,5.182410899999999856e+02
3.100000000000000000e+01,5.228458900000000540e+02
3.200000000000000000e+01,5.273458900000000540e+02
3.300000000000000000e+01,5.318762799999999515e+02
3.400000000000000000e+01,5.365277700000000323e+02
3.500000000000000000e+01,5.413521700000000010e+02
3.600000000000000000e+01,5.463151900000000296e+02
3.700000000000000000e+01,5.513130499999999756e+02
3.800000000000000000e+01,5.561403199999999742e+02
3.900000000000000000e+01,5.605470000000000255e+02
4.000000000000000000e+01,5.644381700000000137e+02
4.100000000000000000e+01,5.679711899999999787e+02
4.200000000000000000e+01,5.712496899999999869e+02
4.300000000000000000e+01,5.743871500000000196e+02
4.400000000000000000e+01,5.774628900000000158e+02
4.500000000000000000e+01,5.805063499999999976e+02
4.600000000000000000e+01,5.835756199999999581e+02
4.700000000000000000e+01,5.866865800000000490e+02
4.800000000000000000e+01,5.898231799999999794e+02
4.900000000000000000e+01,5.929544700000000148e+02
5.000000000000000000e+01,5.960338100000000168e+02
5.100000000000000000e+01,5.989829700000000230e+02
5.200000000000000000e+01,6.017588500000000522e+02
5.300000000000000000e+01,6.043555300000000443e+02
5.400000000000000000e+01,6.067800899999999729e+02
5.500000000000000000e+01,6.090836799999999585e+02
5.600000000000000000e+01,6.113131100000000515e+02
5.700000000000000000e+01,6.134945699999999533e+02
5.800000000000000000e+01,6.156307399999999461e+02
5.900000000000000000e+01,6.177683700000000044e+02
6.000000000000000000e+01,6.199003300000000536e+02
6.100000000000000000e+01,6.220228899999999612e+02
6.200000000000000000e+01,6.241552699999999732e+02
6.300000000000000000e+01,6.262523800000000165e+02
6.400000000000000000e+01,6.283136600000000271e+02
6.500000000000000000e+01,6.303159200000000055e+02
6.600000000000000000e+01,6.322372400000000425e+02
6.700000000000000000e+01,6.340781899999999496e+02
6.800000000000000000e+01,6.358562600000000202e+02
6.900000000000000000e+01,6.375494999999999663e+02
7.000000000000000000e+01,6.392041600000000017e+02
7.100000000000000000e+01,6.408222700000000032e+02
7.200000000000000000e+01,6.424103400000000192e+02
7.300000000000000000e+01,6.439802200000000312e+02
7.400000000000000000e+01,6.455445600000000468e+02
7.500000000000000000e+01,6.470976600000000190e+02
7.600000000000000000e+01,6.486477099999999609e+02
7.700000000000000000e+01,6.501837799999999561e+02
7.800000000000000000e+01,6.517005000000000337e+02
7.900000000000000000e+01,6.531924999999999955e+02
8.000000000000000000e+01,6.546656500000000278e+02
8.100000000000000000e+01,6.560852099999999609e+02
8.200000000000000000e+01,6.574732099999999946e+02
8.300000000000000000e+01,6.588295900000000529e+02
8.400000000000000000e+01,6.601447100000000319e+02
8.500000000000000000e+01,6.614266999999999825e+02
8.600000000000000000e+01,6.626939099999999598e+02
8.700000000000000000e+01,6.639352999999999838e+02
8.800000000000000000e+01,6.651639999999999873e+02
8.900000000000000000e+01,6.663851300000000037e+02
9.000000000000000000e+01,6.675942999999999756e+02
9.100000000000000000e+01,6.687983400000000529e+02
9.200000000000000000e+01,6.699956100000000561e+02
9.300000000000000000e+01,6.711794999999999618e+02
9.400000000000000000e+01,6.723552200000000312e+02
9.500000000000000000e+01,6.735163000000000011e+02
9.600000000000000000e+01,6.746492899999999509e+02
9.700000000000000000e+01,6.757716100000000097e+02
9.800000000000000000e+01,6.768674300000000130e+02
9.900000000000000000e+01,6.779465300000000525e+02
1.000000000000000000e+02,6.790048199999999952e+02
1.010000000000000000e+02,6.800480999999999767e+02
1.020000000000000000e+02,6.810728800000000547e+02
1.030000000000000000e+02,6.820939899999999625e+02
1.040000000000000000e+02,6.831010700000000497e+02
1.050000000000000000e+02,6.841041300000000547e+02
1.060000000000000000e+02,6.850930799999999863e+02
1.070000000000000000e+02,6.860864299999999503e+02
1.080000000000000000e+02,6.870626200000000381e+02
1.090000000000000000e+02,6.880380900000000111e+02
1.100000000000000000e+02,6.889996300000000247e+02
1.110000000000000000e+02,6.899548300000000154e+02
1.120000000000000000e+02,6.908897699999999986e+02
1.130000000000000000e+02,6.918240399999999681e+02
1.140000000000000000e+02,6.927362699999999904e+02
1.150000000000000000e+02,6.936376299999999446e+02
1.160000000000000000e+02,6.945317400000000134e+02
1.170000000000000000e+02,6.954178500000000440e+02
1.180000000000000000e+02,6.962908300000000281e+02
1.190000000000000000e+02,6.971549700000000485e+02
1.200000000000000000e+02,6.980144000000000233e+02
1.210000000000000000e+02,6.988701800000000048e+02
1.220000000000000000e+02,6.997182599999999866e+02
1.230000000000000000e+02,7.005636600000000271e+02
1.240000000000000000e+02,7.013969700000000103e+02
1.250000000000000000e+02,7.022268100000000004e+02
1.260000000000000000e+02,7.030493199999999661e+02
1.270000000000000000e+02,7.038565099999999575e+02
1.280000000000000000e+02,7.046689499999999953e+02
1.290000000000000000e+02,7.054612399999999752e+02
1.300000000000000000e+02,7.062538500000000568e+02
1.310000000000000000e+02,7.070339999999999918e+02
1.320000000000000000e+02,7.078093900000000076e+02
1.330000000000000000e+02,7.085797099999999773e+02
1.340000000000000000e+02,7.093370400000000018e+02
1.350000000000000000e+02,7.100954000000000406e+02
1.360000000000000000e+02,7.108456400000000031e+02
1.370000000000000000e+02,7.115904500000000326e+02
1.380000000000000000e+02,7.123319099999999935e+02
1.390000000000000000e+02,7.130663500000000568e+02
1.400000000000000000e+02,7.137938799999999446e+02
1.410000000000000000e+02,7.145171500000000151e+02
1.420000000000000000e+02,7.152355999999999767e+02
1.430000000000000000e+02,7.159439700000000357e+02
1.440000000000000000e+02,7.166455099999999447e+02
1.450000000000000000e+02,7.173432000000000244e+02
1.460000000000000000e+02,7.180396700000000010e+02
1.470000000000000000e+02,7.187237499999999955e+02
1.480000000000000000e+02,7.194058800000000247e+02
1.490000000000000000e+02,7.200834399999999960e+02
1.500000000000000000e+02,7.207570200000000114e+02
1.510000000000000000e+02,7.214208399999999983e+02
1.520000000000000000e+02,7.220841100000000097e+02
1.530000000000000000e+02,7.227393200000000206e+02
1.540000000000000000e+02,7.233883700000000090e+02
1.550000000000000000e+02,7.240360100000000330e+02
1.560000000000000000e+02,7.246768200000000206e+02
1.570000000000000000e+02,7.253104899999999589e+02
1.580000000000000000e+02,7.259443999999999733e+02
1.590000000000000000e+02,7.265692099999999982e+02
1.600000000000000000e+02,7.271903700000000299e+02
1.610000000000000000e+02,7.278073100000000295e+02
1.620000000000000000e+02,7.284149200000000519e+02
1.630000000000000000e+02,7.290231899999999996e+02
1.640000000000000000e+02,7.296221900000000460e+02
1.650000000000000000e+02,7.302207600000000411e+02
1.660000000000000000e+02,7.308074299999999539e+02
1.670000000000000000e+02,7.313991099999999506e+02
1.680000000000000000e+02,7.319792499999999791e+02
1.690000000000000000e+02,7.325592699999999695e+02
1.700000000000000000e+02,7.331290900000000192e+02
1.710000000000000000e+02,7.336983599999999797e+02
1.720000000000000000e+02,7.342604400000000169e+02
1.730000000000000000e+02,7.348183599999999842e+02
1.740000000000000000e+02,7.353726799999999457e+02
1.750000000000000000e+02,7.359185800000000199e+02
1.760000000000000000e+02,7.364689300000000003e+02
1.770000000000000000e+02,7.370060999999999467e+02
1.780000000000000000e+02,7.375401000000000522e+02
1.790000000000000000e+02,7.380753200000000334e+02
1.800000000000000000e+02,7.385994899999999461e+02
1.810000000000000000e+02,7.391194500000000289e+02
1.820000000000000000e+02,7.396417199999999639e+02
1.830000000000000000e+02,7.401518600000000561e+02
1.840000000000000000e+02,7.406621099999999842e+02
1.850000000000000000e+02,7.411694899999999961e+02
1.860000000000000000e+02,7.416707800000000361e+02
1.870000000000000000e+02,7.421641799999999876e+02
1.880000000000000000e+02,7.426585099999999784e+02
1.890000000000000000e+02,7.431470900000000483e+02
1.900000000000000000e+02,7.436309199999999464e+02
1.910000000000000000e+02,7.441148699999999963e+02
1.920000000000000000e+02,7.445877100000000155e+02
1.930000000000000000e+02,7.450647000000000162e+02
1.940000000000000000e+02,7.455319799999999759e+02
1.950000000000000000e+02,7.460008500000000140e+02
1.960000000000000000e+02,7.464637500000000045e+02
1.970000000000000000e+02,7.469205899999999474e+02
1.980000000000000000e+02,7.473804900000000089e+02
1.990000000000000000e+02,7.478305699999999661e+02
2.000000000000000000e+02,7.482830800000000409e+02
2.010000000000000000e+02,7.487302200000000312e+02
2.020000000000000000e+02,7.491732799999999770e+02
2.030000000000000000e+02,7.496158400000000483e+02
2.040000000000000000e+02,7.500528600000000097e+02
2.050000000000000000e+02,7.504884600000000319e+02
2.060000000000000000e+02,7.509255399999999554e+02
2.070000000000000000e+02,7.513554100000000062e+02
2.080000000000000000e+02,7.517871699999999464e+02
2.090000000000000000e+02,7.522154500000000326e+02
2.100000000000000000e+02,7.526401399999999740e+02
2.110000000000000000e+02,7.530647000000000162e+02
2.120000000000000000e+02,7.534893799999999828e+02
2.130000000000000000e+02,7.539079000000000406e+02
2.140000000000000000e+02,7.543306900000000041e+02
2.150000000000000000e+02,7.547517100000000028e+02
2.160000000000000000e+02,7.551692500000000337e+02
2.170000000000000000e+02,7.555890500000000429e+02
2.180000000000000000e+02,7.560086099999999760e+02
2.190000000000000000e+02,7.564264500000000453e+02
2.200000000000000000e+02,7.568454000000000406e+02
2.210000000000000000e+02,7.572668499999999767e+02
2.220000000000000000e+02,7.576879300000000512e+02
2.230000000000000000e+02,7.581078499999999849e+02
2.240000000000000000e+02,7.585336300000000165e+02
2.250000000000000000e+02,7.589585600000000341e+02
2.260000000000000000e+02,7.593849500000000035e+02
2.270000000000000000e+02,7.598146400000000540e+02
2.280000000000000000e+02,7.602468300000000454e+02
2.290000000000000000e+02,7.606792599999999993e+02
2.300000000000000000e+02,7.611181000000000267e+02
2.310000000000000000e+02,7.615576800000000048e+02
2.320000000000000000e+02,7.619970100000000457e+02
2.330000000000000000e+02,7.624421999999999571e+02
2.340000000000000000e+02,7.628913000000000011e+02
2.350000000000000000e+02,7.633377100000000155e+02
2.360000000000000000e+02,7.637921099999999797e+02
2.370000000000000000e+02,7.642433499999999640e+02
2.380000000000000000e+02,7.646997099999999818e+02
2.390000000000000000e+02,7.651580199999999650e+02
2.400000000000000000e+02,7.656155400000000100e+02
2.410000000000000000e+02,7.660743999999999687e+02
2.420000000000000000e+02,7.665367999999999711e+02
2.430000000000000000e+02,7.669990199999999732e+02
2.440000000000000000e+02,7.674614299999999503e+02
2.450000000000000000e+02,7.679260299999999688e+02
2.460000000000000000e+02,7.683907500000000255e+02
2.470000000000000000e+02,7.688521100000000388e+02
2.480000000000000000e+02,7.693203099999999495e+02
2.490000000000000000e+02,7.697810699999999997e+02
2.500000000000000000e+02,7.702468300000000454e+02
2.510000000000000000e+02,7.707092900000000100e+02
2.520000000000000000e+02,7.711726700000000392e+02
2.530000000000000000e+02,7.716334200000000010e+02
2.540000000000000000e+02,7.720970499999999674e+02
2.550000000000000000e+02,7.725559700000000021e+02
2.560000000000000000e+02,7.730142200000000230e+02
2.570000000000000000e+02,7.734735699999999952e+02
2.580000000000000000e+02,7.739292599999999993e+02
2.590000000000000000e+02,7.743843399999999519e+02
2.600000000000000000e+02,7.748388700000000426e+02
2.610000000000000000e+02,7.752919299999999794e+02
2.620000000000000000e+02,7.757426799999999503e+02
2.630000000000000000e+02,7.761923199999999952e+02
2.640000000000000000e+02,7.766400800000000118e+02
2.650000000000000000e+02,7.770854500000000371e+02
2.660000000000000000e+02,7.775292399999999589e+02
2.670000000000000000e+02,7.779701499999999896e+02
2.680000000000000000e+02,7.784097900000000436e+02
2.690000000000000000e+02,7.788490000000000464e+02
2.700000000000000000e+02,7.792851600000000190e+02
2.710000000000000000e+02,7.797170999999999594e+02
2.720000000000000000e+02,7.801508199999999533e+02
2.730000000000000000e+02,7.805792199999999639e+02
2.740000000000000000e+02,7.810055499999999711e+02
2.750000000000000000e+02,7.814317600000000539e+02
2.760000000000000000e+02,7.818542499999999791e+02
2.770000000000000000e+02,7.822733200000000124e+02
2.780000000000000000e+02,7.826931200000000217e+02
2.790000000000000000e+02,7.831090100000000120e+02
2.800000000000000000e+02,7.835208699999999453e+02
2.810000000000000000e+02,7.839340200000000323e+02
2.820000000000000000e+02,7.843419199999999591e+02
2.830000000000000000e+02,7.847488399999999729e+02
2.840000000000000000e+02,7.851540499999999838e+02
2.850000000000000000e+02,7.855540200000000368e+02
2.860000000000000000e+02,7.859535499999999502e+02
2.870000000000000000e+02,7.863510099999999738e+02
2.880000000000000000e+02,7.867457299999999805e+02
2.890000000000000000e+02,7.871357400000000553e+02
2.900000000000000000e+02,7.875269200000000183e+02
2.910000000000000000e+02,7.879135099999999738e+02
2.920000000000000000e+02,7.882980999999999767e+02
2.930000000000000000e+02,7.886815199999999777e+02
2.940000000000000000e+02,7.890595700000000079e+02
2.950000000000000000e+02,7.894387799999999515e+02
2.960000000000000000e+02,7.898120699999999488e+02
2.970000000000000000e+02,7.901851199999999835e+02
2.980000000000000000e+02,7.905540200000000368e+02
2.990000000000000000e+02,7.909230300000000398e+02
3.000000000000000000e+02,7.912865600000000086e+02
3.010000000000000000e+02,7.916495999999999640e+02
3.020000000000000000e+02,7.920100099999999657e+02
3.030000000000000000e+02,7.923683499999999640e+02
3.040000000000000000e+02,7.927230200000000195e+02
3.050000000000000000e+02,7.930769000000000233e+02
3.060000000000000000e+02,7.934274900000000343e+02
3.070000000000000000e+02,7.937766699999999673e+02
3.080000000000000000e+02,7.941213999999999942e+02
3.090000000000000000e+02,7.944651499999999942e+02
3.100000000000000000e+02,7.948047500000000127e+02
3.110000000000000000e+02,7.951450800000000072e+02
3.120000000000000000e+02,7.954803500000000440e+02
3.130000000000000000e+02,7.958151199999999790e+02
3.140000000000000000e+02,7.961480699999999615e+02
3.150000000000000000e+02,7.964752200000000357e+02
3.160000000000000000e+02,7.968024900000000343e+02
3.170000000000000000e+02,7.971278099999999540e+02
3.180000000000000000e+02,7.974502599999999575e+02
3.190000000000000000e+02,7.977700200000000450e+02
3.200000000000000000e+02,7.980897800000000188e+02
3.210000000000000000e+02,7.984025299999999561e+02
3.220000000000000000e+02,7.987165499999999838e+02
3.230000000000000000e+02,7.990278899999999567e+02
3.240000000000000000e+02,7.993375200000000405e+02
3.250000000000000000e+02,7.996419100000000526e+02
3.260000000000000000e+02,7.999481799999999794e+02
3.270000000000000000e+02,8.002500000000000000e+02
3.280000000000000000e+02,8.005500500000000557e+02
3.290000000000000000e+02,8.008486900000000333e+02
3.300000000000000000e+02,8.011424600000000282e+02
3.310000000000000000e+02,8.014359699999999975e+02
3.320000000000000000e+02,8.017276000000000522e+02
3.330000000000000000e+02,8.020173999999999523e+02
3.340000000000000000e+02,8.023020000000000209e+02
3.350000000000000000e+02,8.025884999999999536e+02
3.360000000000000000e+02,8.028708500000000186e+02
3.370000000000000000e+02,8.031502100000000155e+02
3.380000000000000000e+02,8.034307300000000396e+02
3.390000000000000000e+02,8.037063000000000557e+02
3.400000000000000000e+02,8.039814499999999953e+02
3.410000000000000000e+02,8.042523200000000543e+02
3.420000000000000000e+02,8.045231899999999996e+02
3.430000000000000000e+02,8.047913200000000415e+02
3.440000000000000000e+02,8.050576200000000426e+02
3.450000000000000000e+02,8.053215300000000525e+02
3.460000000000000000e+02,8.055839200000000346e+02
3.470000000000000000e+02,8.058427699999999732e+02
3.480000000000000000e+02,8.061013199999999870e+02
3.490000000000000000e+02,8.063574200000000474e+02
3.500000000000000000e+02,8.066118800000000419e+02
3.510000000000000000e+02,8.068639500000000453e+02
3.520000000000000000e+02,8.071146899999999960e+02
3.530000000000000000e+02,8.073621200000000044e+02
3.540000000000000000e+02,8.076104699999999639e+02
3.550000000000000000e+02,8.078523599999999760e+02
3.560000000000000000e+02,8.080969800000000305e+02
3.570000000000000000e+02,8.083373400000000402e+02
3.580000000000000000e+02,8.085761700000000474e+02
3.590000000000000000e+02,8.088143300000000409e+02
3.600000000000000000e+02,8.090476099999999633e+02
3.610000000000000000e+02,8.092816199999999753e+02
3.620000000000000000e+02,8.095144000000000233e+02
3.630000000000000000e+02,8.097421900000000505e+02
3.640000000000000000e+02,8.099714400000000296e+02
3.650000000000000000e+02,8.101969599999999900e+02
3.660000000000000000e+02,8.104218100000000504e+02
3.670000000000000000e+02,8.106444099999999935e+02
3.680000000000000000e+02,8.108646199999999453e+02
3.690000000000000000e+02,8.110852099999999609e+02
3.700000000000000000e+02,8.113004799999999932e+02
3.710000000000000000e+02,8.115185500000000047e+02
3.720000000000000000e+02,8.117302200000000312e+02
3.730000000000000000e+02,8.119442699999999604e+02
3.740000000000000000e+02,8.121525900000000320e+02
3.750000000000000000e+02,8.123643200000000206e+02
3.760000000000000000e+02,8.125683599999999842e+02
3.770000000000000000e+02,8.127767900000000054e+02
3.780000000000000000e+02,8.129780299999999897e+02
3.790000000000000000e+02,8.131826800000000048e+02
3.800000000000000000e+02,8.133815899999999601e+02
3.810000000000000000e+02,8.135820899999999938e+02
3.820000000000000000e+02,8.137786899999999832e+02
3.830000000000000000e+02,8.139754000000000360e+02
3.840000000000000000e+02,8.141698599999999715e+02
3.850000000000000000e+02,8.143623700000000554e+02
3.860000000000000000e+02,8.145528000000000475e+02
3.870000000000000000e+02,8.147435299999999643e+02
3.880000000000000000e+02,8.149298099999999749e+02
3.890000000000000000e+02,8.151187099999999646e+02
3.900000000000000000e+02,8.153017599999999447e+02
3.910000000000000000e+02,8.154870600000000422e+02
3.920000000000000000e+02,8.156667499999999791e+02
3.930000000000000000e+02,8.158500999999999976e+02
3.940000000000000000e+02,8.160260600000000295e+02
3.950000000000000000e+02,8.162074000000000069e+02
3.960000000000000000e+02,8.163801300000000083e+02
3.970000000000000000e+02,8.165581700000000183e+02
3.980000000000000000e+02,8.167290600000000040e+02
3.990000000000000000e+02,8.169022800000000188e+02
