# Time [s], Mass [Kg]
1.000000000000000000e+00,1.000000000000000000e+00
2.000000000000000000e+00,1.000000000000000000e+00
3.000000000000000000e+00,1.000000000000000000e+00
4.000000000000000000e+00,1.000000000000000000e+00
5.000000000000000000e+00,1.000000000000000000e+00
6.000000000000000000e+00,1.000000000000000000e+00
7.000000000000000000e+00,1.000000000000000000e+00
8.000000000000000000e+00,1.000000000000000000e+00
9.000000000000000000e+00,1.000000000000000000e+00
1.000000000000000000e+01,1.000000000000000000e+00
1.100000000000000000e+01,1.000000000000000000e+00
1.200000000000000000e+01,1.000000000000000000e+00
1.300000000000000000e+01,1.000000000000000000e+00
1.400000000000000000e+01,9.999999400000000316e-01
1.500000000000000000e+01,9.999999400000000316e-01
1.600000000000000000e+01,9.999998199999999837e-01
1.700000000000000000e+01,9.999997000000000469e-01
1.800000000000000000e+01,9.999994599999999512e-01
1.900000000000000000e+01,9.999989900000000320e-01
2.000000000000000000e+01,9.999982099999999985e-01
2.100000000000000000e+01,9.999970200000000142e-01
2.200000000000000000e+01,9.999951099999999649e-01
2.300000000000000000e+01,9.999921899999999475e-01
2.400000000000000000e+01,9.999878399999999612e-01
2.500000000000000000e+01,9.999815800000000365e-01
2.600000000000000000e+01,9.999727600000000161e-01
2.700000000000000000e+01,9.999605999999999772e-01
2.800000000000000000e+01,9.999441500000000316e-01
2.900000000000000000e+01,9.999222800000000522e-01
3.000000000000000000e+01,9.998936699999999567e-01
3.100000000000000000e+01,9.998567699999999503e-01
3.200000000000000000e+01,9.998097400000000023e-01
3.300000000000000000e+01,9.997506099999999840e-01
3.400000000000000000e+01,9.996771800000000541e-01
3.500000000000000000e+01,9.995870000000000033e-01
3.600000000000000000e+01,9.994774499999999895e-01
3.700000000000000000e+01,9.993459000000000092e-01
3.800000000000000000e+01,9.991893800000000159e-01
3.900000000000000000e+01,9.990052000000000376e-01
4.000000000000000000e+01,9.987905599999999939e-01
4.100000000000000000e+01,9.985429599999999795e-01
4.200000000000000000e+01,9.982598999999999778e-01
4.300000000000000000e+01,9.979395899999999875e-01
4.400000000000000000e+01,9.975802900000000362e-01
4.500000000000000000e+01,9.971809400000000156e-01
4.600000000000000000e+01,9.967410599999999565e-01
4.700000000000000000e+01,9.962605799999999512e-01
4.800000000000000000e+01,9.957401200000000063e-01
4.900000000000000000e+01,9.951807900000000373e-01
5.000000000000000000e+01,9.945843199999999662e-01
5.100000000000000000e+01,9.939529299999999568e-01
5.200000000000000000e+01,9.932892899999999914e-01
5.300000000000000000e+01,9.925963899999999951e-01
5.400000000000000000e+01,9.918777899999999814e-01
5.500000000000000000e+01,9.911370900000000539e-01
5.600000000000000000e+01,9.903780800000000495e-01
5.700000000000000000e+01,9.896050100000000072e-01
5.800000000000000000e+01,9.888217400000000046e-01
5.900000000000000000e+01,9.880324000000000328e-01
6.000000000000000000e+01,9.872410900000000433e-01
6.100000000000000000e+01,9.864513900000000390e-01
6.200000000000000000e+01,9.856666299999999881e-01
6.300000000000000000e+01,9.848900999999999906e-01
6.400000000000000000e+01,9.841241200000000466e-01
6.500000000000000000e+01,9.833704199999999673e-01
6.600000000000000000e+01,9.826300700000000221e-01
6.700000000000000000e+01,9.819031400000000076e-01
6.800000000000000000e+01,9.811887700000000434e-01
6.900000000000000000e+01,9.804853199999999935e-01
7.000000000000000000e+01,9.797902699999999632e-01
7.100000000000000000e+01,9.791004700000000005e-01
7.200000000000000000e+01,9.784125099999999575e-01
7.300000000000000000e+01,9.777231800000000250e-01
7.400000000000000000e+01,9.770293199999999789e-01
7.500000000000000000e+01,9.763288500000000258e-01
7.600000000000000000e+01,9.756203300000000356e-01
7.700000000000000000e+01,9.749034600000000550e-01
7.800000000000000000e+01,9.741787899999999611e-01
7.900000000000000000e+01,9.734475599999999895e-01
8.000000000000000000e+01,9.727115600000000306e-01
8.100000000000000000e+01,9.719729400000000075e-01
8.200000000000000000e+01,9.712338999999999833e-01
8.300000000000000000e+01,9.704964799999999947e-01
8.400000000000000000e+01,9.697627399999999565e-01
8.500000000000000000e+01,9.690340800000000199e-01
8.600000000000000000e+01,9.683117300000000371e-01
8.700000000000000000e+01,9.675965300000000102e-01
8.800000000000000000e+01,9.668887900000000535e-01
8.900000000000000000e+01,9.661883100000000502e-01
9.000000000000000000e+01,9.654946300000000203e-01
9.100000000000000000e+01,9.648066199999999482e-01
9.200000000000000000e+01,9.641230100000000025e-01
9.300000000000000000e+01,9.634422700000000450e-01
9.400000000000000000e+01,9.627625899999999737e-01
9.500000000000000000e+01,9.620823899999999540e-01
9.600000000000000000e+01,9.613999699999999926e-01
9.700000000000000000e+01,9.607140400000000469e-01
9.800000000000000000e+01,9.600236399999999559e-01
9.900000000000000000e+01,9.593281099999999562e-01
1.000000000000000000e+02,9.586274000000000184e-01
1.010000000000000000e+02,9.579216799999999976e-01
1.020000000000000000e+02,9.572116099999999905e-01
1.030000000000000000e+02,9.564979700000000307e-01
1.040000000000000000e+02,9.557818200000000042e-01
1.050000000000000000e+02,9.550642400000000087e-01
1.060000000000000000e+02,9.543463599999999492e-01
1.070000000000000000e+02,9.536291399999999863e-01
1.080000000000000000e+02,9.529133400000000531e-01
1.090000000000000000e+02,9.521996999999999822e-01
1.100000000000000000e+02,9.514885499999999885e-01
1.110000000000000000e+02,9.507800899999999666e-01
1.120000000000000000e+02,9.500741400000000114e-01
1.130000000000000000e+02,9.493703199999999898e-01
1.140000000000000000e+02,9.486681200000000036e-01
1.150000000000000000e+02,9.479668100000000486e-01
1.160000000000000000e+02,9.472654499999999533e-01
1.170000000000000000e+02,9.465631199999999801e-01
1.180000000000000000e+02,9.458588999999999469e-01
1.190000000000000000e+02,9.451518100000000366e-01
1.200000000000000000e+02,9.444412599999999491e-01
1.210000000000000000e+02,9.437264800000000342e-01
1.220000000000000000e+02,9.430072299999999741e-01
1.230000000000000000e+02,9.422832100000000377e-01
1.240000000000000000e+02,9.415545499999999901e-01
1.250000000000000000e+02,9.408214099999999691e-01
1.260000000000000000e+02,9.400841599999999465e-01
1.270000000000000000e+02,9.393433300000000319e-01
1.280000000000000000e+02,9.385995299999999597e-01
1.290000000000000000e+02,9.378532200000000429e-01
1.300000000000000000e+02,9.371049999999999658e-01
1.310000000000000000e+02,9.363553500000000307e-01
1.320000000000000000e+02,9.356046300000000482e-01
1.330000000000000000e+02,9.348530800000000029e-01
1.340000000000000000e+02,9.341006299999999873e-01
1.350000000000000000e+02,9.333473399999999698e-01
1.360000000000000000e+02,9.325928700000000182e-01
1.370000000000000000e+02,9.318368999999999680e-01
1.380000000000000000e+02,9.310789699999999502e-01
1.390000000000000000e+02,9.303185299999999769e-01
1.400000000000000000e+02,9.295550000000000201e-01
1.410000000000000000e+02,9.287877700000000125e-01
1.420000000000000000e+02,9.280164199999999530e-01
1.430000000000000000e+02,9.272403700000000359e-01
1.440000000000000000e+02,9.264593100000000359e-01
1.450000000000000000e+02,9.256730699999999867e-01
1.460000000000000000e+02,9.248814600000000441e-01
1.470000000000000000e+02,9.240845399999999543e-01
1.480000000000000000e+02,9.232823300000000399e-01
1.490000000000000000e+02,9.224750999999999923e-01
1.500000000000000000e+02,9.216631100000000076e-01
1.510000000000000000e+02,9.208465799999999701e-01
1.520000000000000000e+02,9.200258300000000444e-01
1.530000000000000000e+02,9.192010800000000037e-01
1.540000000000000000e+02,9.183725099999999752e-01
1.550000000000000000e+02,9.175401899999999777e-01
1.560000000000000000e+02,9.167041799999999796e-01
1.570000000000000000e+02,9.158643499999999937e-01
1.580000000000000000e+02,9.150204699999999747e-01
1.590000000000000000e+02,9.141724100000000464e-01
1.600000000000000000e+02,9.133197100000000068e-01
1.610000000000000000e+02,9.124619999999999953e-01
1.620000000000000000e+02,9.115989799999999477e-01
1.630000000000000000e+02,9.107301799999999448e-01
1.640000000000000000e+02,9.098551900000000359e-01
1.650000000000000000e+02,9.089737500000000248e-01
1.660000000000000000e+02,9.080856400000000272e-01
1.670000000000000000e+02,9.071906800000000271e-01
1.680000000000000000e+02,9.062886799999999576e-01
1.690000000000000000e+02,9.053796499999999803e-01
1.700000000000000000e+02,9.044635300000000155e-01
1.710000000000000000e+02,9.035404900000000294e-01
1.720000000000000000e+02,9.026104799999999928e-01
1.730000000000000000e+02,9.016736100000000143e-01
1.740000000000000000e+02,9.007298900000000330e-01
1.750000000000000000e+02,8.997794399999999859e-01
1.760000000000000000e+02,8.988220700000000285e-01
1.770000000000000000e+02,8.978577300000000205e-01
1.780000000000000000e+02,8.968862300000000065e-01
1.790000000000000000e+02,8.959074599999999888e-01
1.800000000000000000e+02,8.949209999999999665e-01
1.810000000000000000e+02,8.939266799999999735e-01
1.820000000000000000e+02,8.929240699999999586e-01
1.830000000000000000e+02,8.919129399999999874e-01
1.840000000000000000e+02,8.908929799999999455e-01
1.850000000000000000e+02,8.898638500000000118e-01
1.860000000000000000e+02,8.888253000000000403e-01
1.870000000000000000e+02,8.877771500000000149e-01
1.880000000000000000e+02,8.867192299999999694e-01
1.890000000000000000e+02,8.856514699999999962e-01
1.900000000000000000e+02,8.845737000000000183e-01
1.910000000000000000e+02,8.834858500000000170e-01
1.920000000000000000e+02,8.823879999999999502e-01
1.930000000000000000e+02,8.812798899999999547e-01
1.940000000000000000e+02,8.801616399999999674e-01
1.950000000000000000e+02,8.790331500000000409e-01
1.960000000000000000e+02,8.778942800000000268e-01
1.970000000000000000e+02,8.767449899999999463e-01
1.980000000000000000e+02,8.755850200000000472e-01
1.990000000000000000e+02,8.744142700000000490e-01
2.000000000000000000e+02,8.732326599999999939e-01
2.010000000000000000e+02,8.720399100000000292e-01
2.020000000000000000e+02,8.708359599999999645e-01
2.030000000000000000e+02,8.696206199999999553e-01
2.040000000000000000e+02,8.683938399999999724e-01
2.050000000000000000e+02,8.671556099999999656e-01
2.060000000000000000e+02,8.659058800000000167e-01
2.070000000000000000e+02,8.646445900000000462e-01
2.080000000000000000e+02,8.633719699999999886e-01
2.090000000000000000e+02,8.620879700000000367e-01
2.100000000000000000e+02,8.607928200000000141e-01
2.110000000000000000e+02,8.594866399999999684e-01
2.120000000000000000e+02,8.581696699999999955e-01
2.130000000000000000e+02,8.568420399999999715e-01
2.140000000000000000e+02,8.555039800000000527e-01
2.150000000000000000e+02,8.541556599999999833e-01
2.160000000000000000e+02,8.527973899999999885e-01
2.170000000000000000e+02,8.514293400000000345e-01
2.180000000000000000e+02,8.500517600000000451e-01
2.190000000000000000e+02,8.486649400000000343e-01
2.200000000000000000e+02,8.472691799999999551e-01
2.210000000000000000e+02,8.458647099999999641e-01
2.220000000000000000e+02,8.444519600000000015e-01
2.230000000000000000e+02,8.430313499999999571e-01
2.240000000000000000e+02,8.416032199999999852e-01
2.250000000000000000e+02,8.401680000000000259e-01
2.260000000000000000e+02,8.387261599999999984e-01
2.270000000000000000e+02,8.372782500000000017e-01
2.280000000000000000e+02,8.358247300000000157e-01
2.290000000000000000e+02,8.343661399999999784e-01
2.300000000000000000e+02,8.329029100000000518e-01
2.310000000000000000e+02,8.314356200000000419e-01
2.320000000000000000e+02,8.299648200000000475e-01
2.330000000000000000e+02,8.284909700000000488e-01
2.340000000000000000e+02,8.270145700000000044e-01
2.350000000000000000e+02,8.255361900000000031e-01
2.360000000000000000e+02,8.240562700000000351e-01
2.370000000000000000e+02,8.225753900000000174e-01
2.380000000000000000e+02,8.210939800000000011e-01
2.390000000000000000e+02,8.196126200000000139e-01
2.400000000000000000e+02,8.181317999999999646e-01
2.410000000000000000e+02,8.166520000000000445e-01
2.420000000000000000e+02,8.151737500000000303e-01
2.430000000000000000e+02,8.136975199999999520e-01
2.440000000000000000e+02,8.122237900000000010e-01
2.450000000000000000e+02,8.107530499999999751e-01
2.460000000000000000e+02,8.092858200000000446e-01
2.470000000000000000e+02,8.078224699999999592e-01
2.480000000000000000e+02,8.063634600000000319e-01
2.490000000000000000e+02,8.049091699999999516e-01
2.500000000000000000e+02,8.034601199999999999e-01
2.510000000000000000e+02,8.020165599999999895e-01
2.520000000000000000e+02,8.005790099999999798e-01
2.530000000000000000e+02,7.991477299999999451e-01
2.540000000000000000e+02,7.977231099999999575e-01
2.550000000000000000e+02,7.963054800000000100e-01
2.560000000000000000e+02,7.948952299999999527e-01
2.570000000000000000e+02,7.934926700000000110e-01
2.580000000000000000e+02,7.920981000000000272e-01
2.590000000000000000e+02,7.907118800000000336e-01
2.600000000000000000e+02,7.893343000000000442e-01
2.610000000000000000e+02,7.879656000000000438e-01
2.620000000000000000e+02,7.866060700000000461e-01
2.630000000000000000e+02,7.852560899999999622e-01
2.640000000000000000e+02,7.839158800000000094e-01
2.650000000000000000e+02,7.825856799999999502e-01
2.660000000000000000e+02,7.812658000000000103e-01
2.670000000000000000e+02,7.799564599999999626e-01
2.680000000000000000e+02,7.786579099999999531e-01
2.690000000000000000e+02,7.773705100000000145e-01
2.700000000000000000e+02,7.760944400000000520e-01
2.710000000000000000e+02,7.748299199999999498e-01
2.720000000000000000e+02,7.735772100000000151e-01
2.730000000000000000e+02,7.723002399999999712e-01
2.740000000000000000e+02,7.710435399999999717e-01
2.750000000000000000e+02,7.698059699999999506e-01
2.760000000000000000e+02,7.685866999999999560e-01
2.770000000000000000e+02,7.673850700000000025e-01
2.780000000000000000e+02,7.662006000000000094e-01
2.790000000000000000e+02,7.650330699999999817e-01
2.800000000000000000e+02,7.638822199999999452e-01
2.810000000000000000e+02,7.627478800000000447e-01
2.820000000000000000e+02,7.616300599999999976e-01
2.830000000000000000e+02,7.605286799999999570e-01
2.840000000000000000e+02,7.594438799999999601e-01
2.850000000000000000e+02,7.583758200000000338e-01
2.860000000000000000e+02,7.573245800000000250e-01
2.870000000000000000e+02,7.562903199999999604e-01
2.880000000000000000e+02,7.552733999999999837e-01
2.890000000000000000e+02,7.542740700000000187e-01
2.900000000000000000e+02,7.532926199999999683e-01
2.910000000000000000e+02,7.523294099999999762e-01
2.920000000000000000e+02,7.513847900000000246e-01
2.930000000000000000e+02,7.504591900000000537e-01
2.940000000000000000e+02,7.495530799999999827e-01
2.950000000000000000e+02,7.486668199999999551e-01
2.960000000000000000e+02,7.478010699999999567e-01
2.970000000000000000e+02,7.469561700000000304e-01
2.980000000000000000e+02,7.461328499999999586e-01
2.990000000000000000e+02,7.453315299999999644e-01
3.000000000000000000e+02,7.445529100000000122e-01
3.010000000000000000e+02,7.437975399999999793e-01
3.020000000000000000e+02,7.430661299999999914e-01
3.030000000000000000e+02,7.423593400000000342e-01
3.040000000000000000e+02,7.416777599999999637e-01
3.050000000000000000e+02,7.410221700000000356e-01
3.060000000000000000e+02,7.403931599999999946e-01
3.070000000000000000e+02,7.397915099999999855e-01
3.080000000000000000e+02,7.392178799999999939e-01
3.090000000000000000e+02,7.386729100000000159e-01
3.100000000000000000e+02,7.381572699999999765e-01
3.110000000000000000e+02,7.376714899999999853e-01
3.120000000000000000e+02,7.372161099999999800e-01
3.130000000000000000e+02,7.367915499999999618e-01
3.140000000000000000e+02,7.363982199999999922e-01
3.150000000000000000e+02,7.360362999999999767e-01
3.160000000000000000e+02,7.357057900000000261e-01
3.170000000000000000e+02,7.354065800000000319e-01
3.180000000000000000e+02,7.351383599999999907e-01
3.190000000000000000e+02,7.349004700000000279e-01
3.200000000000000000e+02,7.346920999999999591e-01
3.210000000000000000e+02,7.345119700000000140e-01
3.220000000000000000e+02,7.343587299999999596e-01
3.230000000000000000e+02,7.342305199999999976e-01
3.240000000000000000e+02,7.341253199999999701e-01
3.250000000000000000e+02,7.340408000000000488e-01
3.260000000000000000e+02,7.339744599999999952e-01
3.270000000000000000e+02,7.339237899999999648e-01
3.280000000000000000e+02,7.338861800000000546e-01
3.290000000000000000e+02,7.338591800000000553e-01
3.300000000000000000e+02,7.338404099999999985e-01
3.310000000000000000e+02,7.338278299999999588e-01
3.320000000000000000e+02,7.338197800000000326e-01
3.330000000000000000e+02,7.338147799999999998e-01
3.340000000000000000e+02,7.338119100000000117e-01
3.350000000000000000e+02,7.338103099999999657e-01
3.360000000000000000e+02,7.338094699999999637e-01
3.370000000000000000e+02,7.338090499999999627e-01
3.380000000000000000e+02,7.338088200000000283e-01
3.390000000000000000e+02,7.338087599999999489e-01
3.400000000000000000e+02,7.338086999999999804e-01
3.410000000000000000e+02,7.338086999999999804e-01
3.420000000000000000e+02,7.338086999999999804e-01
3.430000000000000000e+02,7.338086999999999804e-01
3.440000000000000000e+02,7.338086999999999804e-01
3.450000000000000000e+02,7.338086999999999804e-01
3.460000000000000000e+02,7.338086999999999804e-01
3.470000000000000000e+02,7.338086999999999804e-01
3.480000000000000000e+02,7.338086999999999804e-01
3.490000000000000000e+02,7.338086999999999804e-01
3.500000000000000000e+02,7.338086999999999804e-01
3.510000000000000000e+02,7.338086999999999804e-01
3.520000000000000000e+02,7.338086999999999804e-01
3.530000000000000000e+02,7.338086999999999804e-01
3.540000000000000000e+02,7.338086999999999804e-01
3.550000000000000000e+02,7.338086999999999804e-01
3.560000000000000000e+02,7.338086999999999804e-01
3.570000000000000000e+02,7.338086999999999804e-01
3.580000000000000000e+02,7.338086999999999804e-01
3.590000000000000000e+02,7.338086999999999804e-01
3.600000000000000000e+02,7.338086999999999804e-01
3.610000000000000000e+02,7.338086999999999804e-01
3.620000000000000000e+02,7.338086999999999804e-01
3.630000000000000000e+02,7.338086999999999804e-01
3.640000000000000000e+02,7.338086999999999804e-01
3.650000000000000000e+02,7.338086999999999804e-01
3.660000000000000000e+02,7.338086999999999804e-01
3.670000000000000000e+02,7.338086999999999804e-01
3.680000000000000000e+02,7.338086999999999804e-01
3.690000000000000000e+02,7.338086999999999804e-01
3.700000000000000000e+02,7.338086999999999804e-01
3.710000000000000000e+02,7.338086999999999804e-01
3.720000000000000000e+02,7.338086999999999804e-01
3.730000000000000000e+02,7.338086999999999804e-01
3.740000000000000000e+02,7.338086999999999804e-01
3.750000000000000000e+02,7.338086999999999804e-01
3.760000000000000000e+02,7.338086999999999804e-01
3.770000000000000000e+02,7.338086999999999804e-01
3.780000000000000000e+02,7.338086999999999804e-01
3.790000000000000000e+02,7.338086999999999804e-01
3.800000000000000000e+02,7.338086999999999804e-01
3.810000000000000000e+02,7.338086999999999804e-01
3.820000000000000000e+02,7.338086999999999804e-01
3.830000000000000000e+02,7.338086999999999804e-01
3.840000000000000000e+02,7.338086999999999804e-01
3.850000000000000000e+02,7.338086999999999804e-01
3.860000000000000000e+02,7.338086999999999804e-01
3.870000000000000000e+02,7.338086999999999804e-01
3.880000000000000000e+02,7.338086999999999804e-01
3.890000000000000000e+02,7.338086999999999804e-01
3.900000000000000000e+02,7.338086999999999804e-01
3.910000000000000000e+02,7.338086999999999804e-01
3.920000000000000000e+02,7.338086999999999804e-01
3.930000000000000000e+02,7.338086999999999804e-01
3.940000000000000000e+02,7.338086999999999804e-01
3.950000000000000000e+02,7.338086999999999804e-01
3.960000000000000000e+02,7.338086999999999804e-01
3.970000000000000000e+02,7.338086999999999804e-01
3.980000000000000000e+02,7.338086999999999804e-01
3.990000000000000000e+02,7.338086999999999804e-01
