# Time [s], Convective Heat Transfer Coefficient [W/m2K]
1.000000000000000000e+00,0.000000000000000000e+00
2.000000000000000000e+00,0.000000000000000000e+00
3.000000000000000000e+00,0.000000000000000000e+00
4.000000000000000000e+00,0.000000000000000000e+00
5.000000000000000000e+00,1.915079995362458862e-02
6.000000000000000000e+00,3.040000000141642594e-02
7.000000000000000000e+00,4.669921575117047530e-02
8.000000000000000000e+00,6.886595442038928594e-02
9.000000000000000000e+00,9.787700577382206502e-02
1.000000000000000000e+01,1.326069484122565090e-01
1.100000000000000000e+01,1.732977759541399765e-01
1.200000000000000000e+01,2.194166256724626451e-01
1.300000000000000000e+01,2.703238911412197965e-01
1.400000000000000000e+01,3.254641703140679909e-01
1.500000000000000000e+01,3.841774804578944602e-01
1.600000000000000000e+01,4.458330782778430756e-01
1.700000000000000000e+01,5.098746237493169131e-01
1.800000000000000000e+01,5.757908304296217583e-01
1.900000000000000000e+01,6.431327784669597092e-01
2.000000000000000000e+01,7.115259816741555943e-01
2.100000000000000000e+01,7.806375104181444424e-01
2.200000000000000000e+01,8.501776842254167299e-01
2.300000000000000000e+01,9.199194755482673624e-01
2.400000000000000000e+01,9.896569277786901875e-01
2.500000000000000000e+01,1.059226287899148744e+00
2.600000000000000000e+01,1.128485210165683261e+00
2.700000000000000000e+01,1.197320956009282122e+00
2.800000000000000000e+01,1.265634387409451778e+00
2.900000000000000000e+01,1.333350113285713734e+00
3.000000000000000000e+01,1.400406665426924269e+00
3.100000000000000000e+01,1.466752050836668264e+00
3.200000000000000000e+01,1.532345720957129620e+00
3.300000000000000000e+01,1.597154502531711540e+00
3.400000000000000000e+01,1.661160491329087607e+00
3.500000000000000000e+01,1.724341231336082858e+00
3.600000000000000000e+01,1.786688425116569112e+00
3.700000000000000000e+01,1.848191942882411842e+00
3.800000000000000000e+01,1.908849462117412576e+00
3.900000000000000000e+01,1.968663906219070059e+00
4.000000000000000000e+01,2.027632820452490936e+00
4.100000000000000000e+01,2.085764330951292767e+00
4.200000000000000000e+01,2.143061352800066821e+00
4.300000000000000000e+01,2.199535912404531945e+00
4.400000000000000000e+01,2.255196777651097495e+00
4.500000000000000000e+01,2.310051263153016787e+00
4.600000000000000000e+01,2.364113071898028551e+00
4.700000000000000000e+01,2.417392478978706905e+00
4.800000000000000000e+01,2.469903747570726171e+00
4.900000000000000000e+01,2.521658980643492143e+00
5.000000000000000000e+01,2.572672790046831803e+00
5.100000000000000000e+01,2.622954858834247283e+00
5.200000000000000000e+01,2.672520371239029302e+00
5.300000000000000000e+01,2.721382745042530971e+00
5.400000000000000000e+01,2.769556104882602732e+00
5.500000000000000000e+01,2.817051664487733031e+00
5.600000000000000000e+01,2.863885951202667979e+00
5.700000000000000000e+01,2.910069792542673284e+00
5.800000000000000000e+01,2.955615940532554387e+00
5.900000000000000000e+01,3.000538715179157823e+00
6.000000000000000000e+01,3.044848915018305124e+00
6.100000000000000000e+01,3.088557320673101625e+00
6.200000000000000000e+01,3.131680135000722398e+00
6.300000000000000000e+01,3.174228105428472890e+00
6.400000000000000000e+01,3.216211601317630286e+00
6.500000000000000000e+01,3.257643159466293348e+00
6.600000000000000000e+01,3.298533200535880283e+00
6.700000000000000000e+01,3.338892981296530671e+00
6.800000000000000000e+01,3.378733339301346117e+00
6.900000000000000000e+01,3.418065215441789650e+00
7.000000000000000000e+01,3.456898051169457808e+00
7.100000000000000000e+01,3.495242421857112536e+00
7.200000000000000000e+01,3.533108301791900274e+00
7.300000000000000000e+01,3.570504925547913544e+00
7.400000000000000000e+01,3.607442016657442796e+00
7.500000000000000000e+01,3.643928313591631607e+00
7.600000000000000000e+01,3.679973295067708428e+00
7.700000000000000000e+01,3.715585486217417355e+00
7.800000000000000000e+01,3.750772786630156563e+00
7.900000000000000000e+01,3.785543579542145487e+00
8.000000000000000000e+01,3.819906438635707335e+00
8.100000000000000000e+01,3.853869157477820551e+00
8.200000000000000000e+01,3.887438964415965703e+00
8.300000000000000000e+01,3.920623477384657551e+00
8.400000000000000000e+01,3.953429916488873097e+00
8.500000000000000000e+01,3.985865720303116255e+00
8.600000000000000000e+01,4.017939393638124912e+00
8.700000000000000000e+01,4.049655851749974111e+00
8.800000000000000000e+01,4.081021752529150781e+00
8.900000000000000000e+01,4.112043491714997501e+00
9.000000000000000000e+01,4.142727423569874112e+00
9.100000000000000000e+01,4.173079591980823011e+00
9.200000000000000000e+01,4.203106279979038185e+00
9.300000000000000000e+01,4.232813663846781260e+00
9.400000000000000000e+01,4.262209364905244158e+00
9.500000000000000000e+01,4.291296692609198438e+00
9.600000000000000000e+01,4.320080449667789146e+00
9.700000000000000000e+01,4.348566646131758695e+00
9.800000000000000000e+01,4.376760159103195491e+00
9.900000000000000000e+01,4.404666734130503691e+00
1.000000000000000000e+02,4.432291738219102939e+00
1.010000000000000000e+02,4.459641359454071363e+00
1.020000000000000000e+02,4.486717672270343904e+00
1.030000000000000000e+02,4.513524971829334653e+00
1.040000000000000000e+02,4.540068961133274961e+00
1.050000000000000000e+02,4.566354087032743259e+00
1.060000000000000000e+02,4.592385109870889437e+00
1.070000000000000000e+02,4.618167469796168767e+00
1.080000000000000000e+02,4.643703069331587052e+00
1.090000000000000000e+02,4.668995243871365552e+00
1.100000000000000000e+02,4.694049587312743022e+00
1.110000000000000000e+02,4.718869574918945098e+00
1.120000000000000000e+02,4.743459170614807263e+00
1.130000000000000000e+02,4.767823728690514073e+00
1.140000000000000000e+02,4.791964316325743489e+00
1.150000000000000000e+02,4.815884336651856223e+00
1.160000000000000000e+02,4.839588164044425156e+00
1.170000000000000000e+02,4.863079364819970607e+00
1.180000000000000000e+02,4.886362108774882529e+00
1.190000000000000000e+02,4.909439101143592943e+00
1.200000000000000000e+02,4.932311795086645745e+00
1.210000000000000000e+02,4.954984549077686040e+00
1.220000000000000000e+02,4.977460290262653686e+00
1.230000000000000000e+02,4.999742545477314337e+00
1.240000000000000000e+02,5.021834857969447619e+00
1.250000000000000000e+02,5.043738348174653829e+00
1.260000000000000000e+02,5.065455695569718308e+00
1.270000000000000000e+02,5.086990619962295845e+00
1.280000000000000000e+02,5.108345909254807360e+00
1.290000000000000000e+02,5.129524526064671797e+00
1.300000000000000000e+02,5.150528983017363949e+00
1.310000000000000000e+02,5.171360135476134268e+00
1.320000000000000000e+02,5.192021893936100696e+00
1.330000000000000000e+02,5.212516149107924157e+00
1.340000000000000000e+02,5.232846313593618959e+00
1.350000000000000000e+02,5.253014845503104269e+00
1.360000000000000000e+02,5.273021685265364411e+00
1.370000000000000000e+02,5.292870492562653517e+00
1.380000000000000000e+02,5.312563323611589894e+00
1.390000000000000000e+02,5.332103037278056235e+00
1.400000000000000000e+02,5.351491876421121674e+00
1.410000000000000000e+02,5.370731612046408365e+00
1.420000000000000000e+02,5.389823116942467074e+00
1.430000000000000000e+02,5.408768717984330010e+00
1.440000000000000000e+02,5.427571311199829829e+00
1.450000000000000000e+02,5.446232448220581723e+00
1.460000000000000000e+02,5.464755243678742325e+00
1.470000000000000000e+02,5.483139650634720752e+00
1.480000000000000000e+02,5.501387709955299243e+00
1.490000000000000000e+02,5.519501137654884815e+00
1.500000000000000000e+02,5.537482480911112503e+00
1.510000000000000000e+02,5.555333915692794555e+00
1.520000000000000000e+02,5.573056957387769295e+00
1.530000000000000000e+02,5.590651433149790961e+00
1.540000000000000000e+02,5.608119963674517372e+00
1.550000000000000000e+02,5.625464251803154347e+00
1.560000000000000000e+02,5.642686507965548159e+00
1.570000000000000000e+02,5.659788411820000142e+00
1.580000000000000000e+02,5.676770946776856341e+00
1.590000000000000000e+02,5.693634817974483120e+00
1.600000000000000000e+02,5.710381609199520092e+00
1.610000000000000000e+02,5.727013293383287795e+00
1.620000000000000000e+02,5.743531369934604669e+00
1.630000000000000000e+02,5.759937196012751670e+00
1.640000000000000000e+02,5.776233218653334056e+00
1.650000000000000000e+02,5.792419176453381446e+00
1.660000000000000000e+02,5.808496407732516076e+00
1.670000000000000000e+02,5.824466150206172976e+00
1.680000000000000000e+02,5.840330470451617018e+00
1.690000000000000000e+02,5.856090057126789539e+00
1.700000000000000000e+02,5.871747415547175386e+00
1.710000000000000000e+02,5.887303138428969795e+00
1.720000000000000000e+02,5.902757367338641536e+00
1.730000000000000000e+02,5.918111475506830033e+00
1.740000000000000000e+02,5.933366772552806090e+00
1.750000000000000000e+02,5.948524605493593853e+00
1.760000000000000000e+02,5.963585962953000141e+00
1.770000000000000000e+02,5.978553416540350440e+00
1.780000000000000000e+02,5.993426389002530996e+00
1.790000000000000000e+02,6.008206128586000894e+00
1.800000000000000000e+02,6.022893566808326327e+00
1.810000000000000000e+02,6.037489872173807726e+00
1.820000000000000000e+02,6.051995933203304645e+00
1.830000000000000000e+02,6.066412905941597877e+00
1.840000000000000000e+02,6.080741606205790184e+00
1.850000000000000000e+02,6.094984124708447304e+00
1.860000000000000000e+02,6.109140504248908421e+00
1.870000000000000000e+02,6.123211347141267247e+00
1.880000000000000000e+02,6.137197926719173857e+00
1.890000000000000000e+02,6.151100718083767127e+00
1.900000000000000000e+02,6.164920956127025065e+00
1.910000000000000000e+02,6.178659637429982254e+00
1.920000000000000000e+02,6.192317220359355723e+00
1.930000000000000000e+02,6.205895369430165509e+00
1.940000000000000000e+02,6.219394235745571820e+00
1.950000000000000000e+02,6.232814779847128506e+00
1.960000000000000000e+02,6.246157644242552820e+00
1.970000000000000000e+02,6.259423877280353210e+00
1.980000000000000000e+02,6.272614180869866551e+00
1.990000000000000000e+02,6.285729095569405622e+00
2.000000000000000000e+02,6.298769476054957295e+00
2.010000000000000000e+02,6.311736367163142347e+00
2.020000000000000000e+02,6.324630122160071366e+00
2.030000000000000000e+02,6.337452136438130879e+00
2.040000000000000000e+02,6.350202562339583245e+00
2.050000000000000000e+02,6.362882126694680451e+00
2.060000000000000000e+02,6.375491601057281521e+00
2.070000000000000000e+02,6.388031456647515149e+00
2.080000000000000000e+02,6.400502670351443157e+00
2.090000000000000000e+02,6.412905747187496175e+00
2.100000000000000000e+02,6.425241466679463720e+00
2.110000000000000000e+02,6.437510227974062360e+00
2.120000000000000000e+02,6.449712985724935344e+00
2.130000000000000000e+02,6.461850118295124012e+00
2.140000000000000000e+02,6.473922555790002420e+00
2.150000000000000000e+02,6.485930656788142734e+00
2.160000000000000000e+02,6.497875050662138108e+00
2.170000000000000000e+02,6.509756356415949519e+00
2.180000000000000000e+02,6.521574907682798461e+00
2.190000000000000000e+02,6.533331580637967484e+00
2.200000000000000000e+02,6.545026964522423718e+00
2.210000000000000000e+02,6.556661094508463350e+00
2.220000000000000000e+02,6.568235360868325046e+00
2.230000000000000000e+02,6.579749510965301695e+00
2.240000000000000000e+02,6.591204641880393567e+00
2.250000000000000000e+02,6.602601028904545366e+00
2.260000000000000000e+02,6.613938942521248698e+00
2.270000000000000000e+02,6.625219715259373032e+00
2.280000000000000000e+02,6.636443065852062340e+00
2.290000000000000000e+02,6.647609775428075629e+00
2.300000000000000000e+02,6.658720613685185086e+00
2.310000000000000000e+02,6.669775286582674489e+00
2.320000000000000000e+02,6.680775601195264812e+00
2.330000000000000000e+02,6.691720987230165285e+00
2.340000000000000000e+02,6.702611923186396758e+00
2.350000000000000000e+02,6.713449140172296659e+00
2.360000000000000000e+02,6.724233100097698923e+00
2.370000000000000000e+02,6.734964000017007457e+00
2.380000000000000000e+02,6.745642548110620140e+00
2.390000000000000000e+02,6.756269442761663413e+00
2.400000000000000000e+02,6.766844605828638670e+00
2.410000000000000000e+02,6.777368469005017104e+00
2.420000000000000000e+02,6.787841711867155681e+00
2.430000000000000000e+02,6.798264751528293459e+00
2.440000000000000000e+02,6.808637746685040071e+00
2.450000000000000000e+02,6.818961608559622967e+00
2.460000000000000000e+02,6.829235981625143559e+00
2.470000000000000000e+02,6.839461765055175668e+00
2.480000000000000000e+02,6.849639098028484696e+00
2.490000000000000000e+02,6.859768614843146928e+00
2.500000000000000000e+02,6.869850693545808795e+00
2.510000000000000000e+02,6.879885459712002493e+00
2.520000000000000000e+02,6.889873529914425809e+00
2.530000000000000000e+02,6.899815266992033180e+00
2.540000000000000000e+02,6.909711028907258523e+00
2.550000000000000000e+02,6.919560924350251163e+00
2.560000000000000000e+02,6.929365547664242619e+00
2.570000000000000000e+02,6.939125485800143878e+00
2.580000000000000000e+02,6.948840348744036000e+00
2.590000000000000000e+02,6.958511200682960585e+00
2.600000000000000000e+02,6.968138370088225564e+00
2.610000000000000000e+02,6.977721700320651088e+00
2.620000000000000000e+02,6.987261515348062169e+00
2.630000000000000000e+02,6.996758613201768284e+00
2.640000000000000000e+02,7.006212828750792987e+00
2.650000000000000000e+02,7.015624711520692003e+00
2.660000000000000000e+02,7.024994567337548901e+00
2.670000000000000000e+02,7.034322934739049238e+00
2.680000000000000000e+02,7.043609638125984063e+00
2.690000000000000000e+02,7.052855209139760717e+00
2.700000000000000000e+02,7.062059938553748140e+00
2.710000000000000000e+02,7.071223879426746350e+00
2.720000000000000000e+02,7.080348017714729991e+00
2.730000000000000000e+02,7.089432164137600800e+00
2.740000000000000000e+02,7.098476595425481150e+00
2.750000000000000000e+02,7.107481816667051255e+00
2.760000000000000000e+02,7.116448096159237124e+00
2.770000000000000000e+02,7.125375468403103874e+00
2.780000000000000000e+02,7.134264197009958508e+00
2.790000000000000000e+02,7.143115001280800236e+00
2.800000000000000000e+02,7.151927448611484550e+00
2.810000000000000000e+02,7.160702251606239521e+00
2.820000000000000000e+02,7.169439432170910287e+00
2.830000000000000000e+02,7.178139465865996272e+00
2.840000000000000000e+02,7.186802823154552655e+00
2.850000000000000000e+02,7.195429065100514165e+00
2.860000000000000000e+02,7.204018884262510802e+00
2.870000000000000000e+02,7.212572516075741014e+00
2.880000000000000000e+02,7.221090417764898461e+00
2.890000000000000000e+02,7.229572593852616080e+00
2.900000000000000000e+02,7.238019271799535304e+00
2.910000000000000000e+02,7.246431122338469422e+00
2.920000000000000000e+02,7.254807697486934437e+00
2.930000000000000000e+02,7.263149218638158544e+00
2.940000000000000000e+02,7.271456790276026538e+00
2.950000000000000000e+02,7.279729739256574739e+00
2.960000000000000000e+02,7.287968279670098859e+00
2.970000000000000000e+02,7.296173063024496308e+00
2.980000000000000000e+02,7.304344295742915882e+00
2.990000000000000000e+02,7.312481963069570767e+00
3.000000000000000000e+02,7.320586486823828842e+00
3.010000000000000000e+02,7.328658066733028775e+00
3.020000000000000000e+02,7.336697117836259885e+00
3.030000000000000000e+02,7.344702966142931722e+00
3.040000000000000000e+02,7.352676891881884558e+00
3.050000000000000000e+02,7.360618651368389997e+00
3.060000000000000000e+02,7.368528433827328250e+00
3.070000000000000000e+02,7.376406426473582023e+00
3.080000000000000000e+02,7.384253029223293296e+00
3.090000000000000000e+02,7.392067995539027159e+00
3.100000000000000000e+02,7.399851721916149927e+00
3.110000000000000000e+02,7.407604601144059941e+00
3.120000000000000000e+02,7.415326596591259367e+00
3.130000000000000000e+02,7.423018308902287643e+00
3.140000000000000000e+02,7.430679273359710457e+00
3.150000000000000000e+02,7.438310086573623359e+00
3.160000000000000000e+02,7.445910917630268244e+00
3.170000000000000000e+02,7.453481933890026667e+00
3.180000000000000000e+02,7.461023301011196374e+00
3.190000000000000000e+02,7.468534973109013819e+00
3.200000000000000000e+02,7.476017532655867548e+00
3.210000000000000000e+02,7.483470930055239556e+00
3.220000000000000000e+02,7.490895533000033524e+00
3.230000000000000000e+02,7.498290873140582846e+00
3.240000000000000000e+02,7.505657732239284563e+00
3.250000000000000000e+02,7.512995641282791404e+00
3.260000000000000000e+02,7.520305790462520790e+00
3.270000000000000000e+02,7.527587914334231023e+00
3.280000000000000000e+02,7.534841955384048440e+00
3.290000000000000000e+02,7.542068062019467334e+00
3.300000000000000000e+02,7.549266997400182255e+00
3.310000000000000000e+02,7.556438288521086122e+00
3.320000000000000000e+02,7.563581670282201408e+00
3.330000000000000000e+02,7.570698104699233433e+00
3.340000000000000000e+02,7.577787730846354819e+00
3.350000000000000000e+02,7.584850482995386223e+00
3.360000000000000000e+02,7.591886295617787717e+00
3.370000000000000000e+02,7.598895914279001573e+00
3.380000000000000000e+02,7.605878864654251892e+00
3.390000000000000000e+02,7.612835483545796755e+00
3.400000000000000000e+02,7.619765903398621809e+00
3.410000000000000000e+02,7.626670456668096953e+00
3.420000000000000000e+02,7.633549473133719232e+00
3.430000000000000000e+02,7.640402678350944221e+00
3.440000000000000000e+02,7.647229999741900208e+00
3.450000000000000000e+02,7.654032164232148716e+00
3.460000000000000000e+02,7.660808896017215375e+00
3.470000000000000000e+02,7.667560518309740836e+00
3.480000000000000000e+02,7.674287550551325943e+00
3.490000000000000000e+02,7.680989516223094782e+00
3.500000000000000000e+02,7.687666338011413636e+00
3.510000000000000000e+02,7.694319125246123825e+00
3.520000000000000000e+02,7.700947005474466422e+00
3.530000000000000000e+02,7.707550688387450499e+00
3.540000000000000000e+02,7.714130485145868299e+00
3.550000000000000000e+02,7.720686115414540751e+00
3.560000000000000000e+02,7.727217496566347599e+00
3.570000000000000000e+02,7.733725329159732098e+00
3.580000000000000000e+02,7.740209527248596011e+00
3.590000000000000000e+02,7.746669810164918957e+00
3.600000000000000000e+02,7.753107067317708712e+00
3.610000000000000000e+02,7.759520821057918738e+00
3.620000000000000000e+02,7.765911178958739391e+00
3.630000000000000000e+02,7.772278441436011320e+00
3.640000000000000000e+02,7.778622906713564156e+00
3.650000000000000000e+02,7.784944677701346905e+00
3.660000000000000000e+02,7.791243663585673218e+00
3.670000000000000000e+02,7.797519966449263151e+00
3.680000000000000000e+02,7.803773495278923278e+00
3.690000000000000000e+02,7.810005118993214701e+00
3.700000000000000000e+02,7.816213976283958864e+00
3.710000000000000000e+02,7.822401124152872143e+00
3.720000000000000000e+02,7.828566084679007275e+00
3.730000000000000000e+02,7.834708954856867358e+00
3.740000000000000000e+02,7.840830211679562289e+00
3.750000000000000000e+02,7.846929568515807141e+00
3.760000000000000000e+02,7.853007689399203350e+00
3.770000000000000000e+02,7.859064096909841091e+00
3.780000000000000000e+02,7.865098884070068408e+00
3.790000000000000000e+02,7.871112709966256560e+00
3.800000000000000000e+02,7.877105097520858301e+00
3.810000000000000000e+02,7.883076702594644658e+00
3.820000000000000000e+02,7.889027236448006519e+00
3.830000000000000000e+02,7.894956787502492190e+00
3.840000000000000000e+02,7.900865818507946337e+00
3.850000000000000000e+02,7.906753478542332125e+00
3.860000000000000000e+02,7.912621165171302096e+00
3.870000000000000000e+02,7.918468213885241802e+00
3.880000000000000000e+02,7.924294896002359145e+00
3.890000000000000000e+02,7.930101108774040952e+00
3.900000000000000000e+02,7.935887679238641468e+00
3.910000000000000000e+02,7.941653759010112168e+00
3.920000000000000000e+02,7.947400172464067047e+00
3.930000000000000000e+02,7.953126258489868761e+00
3.940000000000000000e+02,7.958832838028986778e+00
3.950000000000000000e+02,7.964519619910767290e+00
3.960000000000000000e+02,7.970186683008988027e+00
3.970000000000000000e+02,7.975834105576733002e+00
3.980000000000000000e+02,7.981462149010125628e+00
