# Time [s], Convective Heat Transfer Coefficient [W/m2K]
1.000000000000000000e+00,0.000000000000000000e+00
2.000000000000000000e+00,0.000000000000000000e+00
3.000000000000000000e+00,0.000000000000000000e+00
4.000000000000000000e+00,0.000000000000000000e+00
5.000000000000000000e+00,1.915079995362458862e-02
6.000000000000000000e+00,3.380449737731881787e-02
7.000000000000000000e+00,5.636813249252742991e-02
8.000000000000000000e+00,8.722966193424934456e-02
9.000000000000000000e+00,1.266153036197226744e-01
1.000000000000000000e+01,1.757194151793856629e-01
1.100000000000000000e+01,2.344582987389466078e-01
1.200000000000000000e+01,3.025362971904089204e-01
1.300000000000000000e+01,3.792852698625422403e-01
1.400000000000000000e+01,4.639068469359001190e-01
1.500000000000000000e+01,5.554680636823216000e-01
1.600000000000000000e+01,6.530322814938258613e-01
1.700000000000000000e+01,7.556809953527506840e-01
1.800000000000000000e+01,8.625560703950782004e-01
1.900000000000000000e+01,9.728878175930371075e-01
2.000000000000000000e+01,1.085965982788360318e+00
2.100000000000000000e+01,1.201181441603609068e+00
2.200000000000000000e+01,1.317994091921663280e+00
2.300000000000000000e+01,1.435938801011754418e+00
2.400000000000000000e+01,1.554602057216226685e+00
2.500000000000000000e+01,1.673636898320886690e+00
2.600000000000000000e+01,1.792754307816156523e+00
2.700000000000000000e+01,1.911679481995399721e+00
2.800000000000000000e+01,2.030200949130717358e+00
2.900000000000000000e+01,2.148145659890325021e+00
3.000000000000000000e+01,2.265363101879229735e+00
3.100000000000000000e+01,2.381698387775155634e+00
3.200000000000000000e+01,2.497057270095699444e+00
3.300000000000000000e+01,2.611337815493647518e+00
3.400000000000000000e+01,2.724470005540336803e+00
3.500000000000000000e+01,2.836398734983899494e+00
3.600000000000000000e+01,2.947070427981371754e+00
3.700000000000000000e+01,3.056442427616607560e+00
3.800000000000000000e+01,3.164478529781356464e+00
3.900000000000000000e+01,3.271162440794803228e+00
4.000000000000000000e+01,3.376489358860069956e+00
4.100000000000000000e+01,3.480439003261721620e+00
4.200000000000000000e+01,3.583011125951040210e+00
4.300000000000000000e+01,3.684191536849572124e+00
4.400000000000000000e+01,3.783987946402759928e+00
4.500000000000000000e+01,3.882401744287685030e+00
4.600000000000000000e+01,3.979442346809488384e+00
4.700000000000000000e+01,4.075125551729618323e+00
4.800000000000000000e+01,4.169455255991211473e+00
4.900000000000000000e+01,4.262441585681109757e+00
5.000000000000000000e+01,4.354092952427749630e+00
5.100000000000000000e+01,4.444427611402568701e+00
5.200000000000000000e+01,4.533465792779534098e+00
5.300000000000000000e+01,4.621216519471300188e+00
5.400000000000000000e+01,4.707692454651967395e+00
5.500000000000000000e+01,4.792911197548051838e+00
5.600000000000000000e+01,4.876885881597556427e+00
5.700000000000000000e+01,4.959627778560709466e+00
5.800000000000000000e+01,5.041165458132715216e+00
5.900000000000000000e+01,5.121510527756805153e+00
6.000000000000000000e+01,5.200666111850326345e+00
6.100000000000000000e+01,5.278661453172512452e+00
6.200000000000000000e+01,5.355506445427715256e+00
6.300000000000000000e+01,5.431212699212015771e+00
6.400000000000000000e+01,5.505801669380254282e+00
6.500000000000000000e+01,5.579287519498519643e+00
6.600000000000000000e+01,5.651688415433362422e+00
6.700000000000000000e+01,5.723015625607339452e+00
6.800000000000000000e+01,5.793285726499076915e+00
6.900000000000000000e+01,5.862515010398769100e+00
7.000000000000000000e+01,5.930718364049480940e+00
7.100000000000000000e+01,5.997912986601791729e+00
7.200000000000000000e+01,6.064115290484467735e+00
7.300000000000000000e+01,6.129339355148570867e+00
7.400000000000000000e+01,6.193601006479292792e+00
7.500000000000000000e+01,6.256926217327366757e+00
7.600000000000000000e+01,6.319318304531855723e+00
7.700000000000000000e+01,6.380796742197518689e+00
7.800000000000000000e+01,6.441381422405171975e+00
7.900000000000000000e+01,6.501096172322244904e+00
8.000000000000000000e+01,6.559941729722343240e+00
8.100000000000000000e+01,6.617946527758651776e+00
8.200000000000000000e+01,6.675123005069840687e+00
8.300000000000000000e+01,6.731481081479287809e+00
8.400000000000000000e+01,6.787050967187317596e+00
8.500000000000000000e+01,6.841836017413569060e+00
8.600000000000000000e+01,6.895860129806616889e+00
8.700000000000000000e+01,6.949134402861209203e+00
8.800000000000000000e+01,7.001670512856468243e+00
8.900000000000000000e+01,7.053493840280569138e+00
9.000000000000000000e+01,7.104608390020251463e+00
9.100000000000000000e+01,7.155037400605862352e+00
9.200000000000000000e+01,7.204785026110226198e+00
9.300000000000000000e+01,7.253873225424646520e+00
9.400000000000000000e+01,7.302304793238147518e+00
9.500000000000000000e+01,7.350104045574202161e+00
9.600000000000000000e+01,7.397272871631089153e+00
9.700000000000000000e+01,7.443832281637442705e+00
9.800000000000000000e+01,7.489785963037131289e+00
9.900000000000000000e+01,7.535153284843339350e+00
1.000000000000000000e+02,7.579936788476931753e+00
1.010000000000000000e+02,7.624155792703354528e+00
1.020000000000000000e+02,7.667813181744302042e+00
1.030000000000000000e+02,7.710919758016506975e+00
1.040000000000000000e+02,7.753493998864363412e+00
1.050000000000000000e+02,7.795537952569057794e+00
1.060000000000000000e+02,7.837068990277598957e+00
1.070000000000000000e+02,7.878088828405263477e+00
1.080000000000000000e+02,7.918612711337334353e+00
1.090000000000000000e+02,7.958643594505267593e+00
1.100000000000000000e+02,7.998193434470830532e+00
1.110000000000000000e+02,8.037274595405328625e+00
1.120000000000000000e+02,8.075889064591736499e+00
1.130000000000000000e+02,8.114046368228910566e+00
1.140000000000000000e+02,8.151757936340597865e+00
1.150000000000000000e+02,8.189028291093629619e+00
1.160000000000000000e+02,8.225865220545138357e+00
1.170000000000000000e+02,8.262278605930417186e+00
1.180000000000000000e+02,8.298268773400419462e+00
1.190000000000000000e+02,8.333846455728899372e+00
1.200000000000000000e+02,8.369020988431193686e+00
1.210000000000000000e+02,8.403795398856029664e+00
1.220000000000000000e+02,8.438178502929522651e+00
1.230000000000000000e+02,8.472172930581347572e+00
1.240000000000000000e+02,8.505786051518578361e+00
1.250000000000000000e+02,8.539025776952982483e+00
1.260000000000000000e+02,8.571894965068988625e+00
1.270000000000000000e+02,8.604402207686534965e+00
1.280000000000000000e+02,8.636554711752541635e+00
1.290000000000000000e+02,8.668353523557538409e+00
1.300000000000000000e+02,8.699804425143677022e+00
1.310000000000000000e+02,8.730913157968231531e+00
1.320000000000000000e+02,8.761684510961039507e+00
1.330000000000000000e+02,8.792123415044581947e+00
1.340000000000000000e+02,8.822235390609247219e+00
1.350000000000000000e+02,8.852023391709018085e+00
1.360000000000000000e+02,8.881491602630335436e+00
1.370000000000000000e+02,8.910646430022707065e+00
1.380000000000000000e+02,8.939489987027842588e+00
1.390000000000000000e+02,8.968029255865490157e+00
1.400000000000000000e+02,8.996266967630178968e+00
1.410000000000000000e+02,9.024206048331585350e+00
1.420000000000000000e+02,9.051850470492919243e+00
1.430000000000000000e+02,9.079203234001774092e+00
1.440000000000000000e+02,9.106268795734617783e+00
1.450000000000000000e+02,9.133050782000520229e+00
1.460000000000000000e+02,9.159552850894316478e+00
1.470000000000000000e+02,9.185778553493999965e+00
1.480000000000000000e+02,9.211727750989167518e+00
1.490000000000000000e+02,9.237408104368778794e+00
1.500000000000000000e+02,9.262822035197507020e+00
1.510000000000000000e+02,9.287967955439754064e+00
1.520000000000000000e+02,9.312854142000063007e+00
1.530000000000000000e+02,9.337479142046250402e+00
1.540000000000000000e+02,9.361849926217882256e+00
1.550000000000000000e+02,9.385967453432247254e+00
1.560000000000000000e+02,9.409832245816721397e+00
1.570000000000000000e+02,9.433448871966227500e+00
1.580000000000000000e+02,9.456820480129405126e+00
1.590000000000000000e+02,9.479948313110513780e+00
1.600000000000000000e+02,9.502834477084274312e+00
1.610000000000000000e+02,9.525481405072079966e+00
1.620000000000000000e+02,9.547893518969841509e+00
1.630000000000000000e+02,9.570067342324627191e+00
1.640000000000000000e+02,9.592007331393487490e+00
1.650000000000000000e+02,9.613717081875302384e+00
1.660000000000000000e+02,9.635198466719977262e+00
1.670000000000000000e+02,9.656450419595305590e+00
1.680000000000000000e+02,9.677474998672369821e+00
1.690000000000000000e+02,9.698273709676785259e+00
1.700000000000000000e+02,9.718848261576356506e+00
1.710000000000000000e+02,9.739202660590153826e+00
1.720000000000000000e+02,9.759334682713776132e+00
1.730000000000000000e+02,9.779245426771375094e+00
1.740000000000000000e+02,9.798936320665417199e+00
1.750000000000000000e+02,9.818407172070006794e+00
1.760000000000000000e+02,9.837659466135077579e+00
1.770000000000000000e+02,9.856693922986311307e+00
1.780000000000000000e+02,9.875511112697902050e+00
1.790000000000000000e+02,9.894110621041701137e+00
1.800000000000000000e+02,9.912494760882763600e+00
1.810000000000000000e+02,9.930662349482133777e+00
1.820000000000000000e+02,9.948612083736447786e+00
1.830000000000000000e+02,9.966344427259905103e+00
1.840000000000000000e+02,9.983859464775472148e+00
1.850000000000000000e+02,1.000115831298112212e+01
1.860000000000000000e+02,1.001824018689330664e+01
1.870000000000000000e+02,1.003510254819631164e+01
1.880000000000000000e+02,1.005174785348803823e+01
1.890000000000000000e+02,1.006817411774841631e+01
1.900000000000000000e+02,1.008438108716650738e+01
1.910000000000000000e+02,1.010036803061111677e+01
1.920000000000000000e+02,1.011613351796302140e+01
1.930000000000000000e+02,1.013167771106846970e+01
1.940000000000000000e+02,1.014700199785869650e+01
1.950000000000000000e+02,1.016210194594792071e+01
1.960000000000000000e+02,1.017697880343945549e+01
1.970000000000000000e+02,1.019163175177967595e+01
1.980000000000000000e+02,1.020605917142720465e+01
1.990000000000000000e+02,1.022026089381950342e+01
2.000000000000000000e+02,1.023423639250271222e+01
2.010000000000000000e+02,1.024798501058263334e+01
2.020000000000000000e+02,1.026150551734632721e+01
2.030000000000000000e+02,1.027479833286255406e+01
2.040000000000000000e+02,1.028786229890018866e+01
2.050000000000000000e+02,1.030069701539742866e+01
2.060000000000000000e+02,1.031330327075530562e+01
2.070000000000000000e+02,1.032568083139840276e+01
2.080000000000000000e+02,1.033783053507276861e+01
2.090000000000000000e+02,1.034975165546150855e+01
2.100000000000000000e+02,1.036144410070959410e+01
2.110000000000000000e+02,1.037290927630051307e+01
2.120000000000000000e+02,1.038414778890374635e+01
2.130000000000000000e+02,1.039516162183864800e+01
2.140000000000000000e+02,1.040595131016692321e+01
2.150000000000000000e+02,1.041651854529064636e+01
2.160000000000000000e+02,1.042686390244552541e+01
2.170000000000000000e+02,1.043699168789852827e+01
2.180000000000000000e+02,1.044690271730257436e+01
2.190000000000000000e+02,1.045659873909335680e+01
2.200000000000000000e+02,1.046608434983226488e+01
2.210000000000000000e+02,1.047536238244095408e+01
2.220000000000000000e+02,1.048443477503460208e+01
2.230000000000000000e+02,1.049330630038402568e+01
2.240000000000000000e+02,1.050197987310859205e+01
2.250000000000000000e+02,1.051045963931028204e+01
2.260000000000000000e+02,1.051875043883504190e+01
2.270000000000000000e+02,1.052685642803353971e+01
2.280000000000000000e+02,1.053478182481450354e+01
2.290000000000000000e+02,1.054253175208545024e+01
2.300000000000000000e+02,1.055011118085423938e+01
2.310000000000000000e+02,1.055752545796878117e+01
2.320000000000000000e+02,1.056478051476485547e+01
2.330000000000000000e+02,1.057188223624802781e+01
2.340000000000000000e+02,1.057883510323747345e+01
2.350000000000000000e+02,1.058564376995999545e+01
2.360000000000000000e+02,1.059231692449306728e+01
2.370000000000000000e+02,1.059885861597922840e+01
2.380000000000000000e+02,1.060527380096458749e+01
2.390000000000000000e+02,1.061157072993760231e+01
2.400000000000000000e+02,1.061775324545195964e+01
2.410000000000000000e+02,1.062382972863628616e+01
2.420000000000000000e+02,1.062980343968299657e+01
2.430000000000000000e+02,1.063568299970733833e+01
2.440000000000000000e+02,1.064147181816451493e+01
2.450000000000000000e+02,1.064717751901348031e+01
2.460000000000000000e+02,1.065280500776036554e+01
2.470000000000000000e+02,1.065835957807172640e+01
2.480000000000000000e+02,1.066384763101405397e+01
2.490000000000000000e+02,1.066927461338919692e+01
2.500000000000000000e+02,1.067464492052319081e+01
2.510000000000000000e+02,1.067996508356121410e+01
2.520000000000000000e+02,1.068524017088267364e+01
2.530000000000000000e+02,1.069047441036475732e+01
2.540000000000000000e+02,1.069567426367365748e+01
2.550000000000000000e+02,1.070084309986084037e+01
2.560000000000000000e+02,1.070598539792287163e+01
2.570000000000000000e+02,1.071110755792962266e+01
2.580000000000000000e+02,1.071621299913629421e+01
2.590000000000000000e+02,1.072130614604058074e+01
2.600000000000000000e+02,1.072639069407700596e+01
2.610000000000000000e+02,1.073147235757696905e+01
2.620000000000000000e+02,1.073655439204840079e+01
2.630000000000000000e+02,1.074164004068645895e+01
2.640000000000000000e+02,1.074673385205475995e+01
2.650000000000000000e+02,1.075184045870600791e+01
2.660000000000000000e+02,1.075696164288921430e+01
2.670000000000000000e+02,1.076210231304679965e+01
2.680000000000000000e+02,1.076726614700059592e+01
2.690000000000000000e+02,1.077245610202974468e+01
2.700000000000000000e+02,1.077767492205398447e+01
2.710000000000000000e+02,1.078292735343084452e+01
2.720000000000000000e+02,1.078821530715064547e+01
2.730000000000000000e+02,1.079354239411092387e+01
2.740000000000000000e+02,1.079891361538689054e+01
2.750000000000000000e+02,1.080432943845689842e+01
2.760000000000000000e+02,1.080979293234187644e+01
2.770000000000000000e+02,1.081531025468890128e+01
2.780000000000000000e+02,1.082088173794684316e+01
2.790000000000000000e+02,1.082651230540298926e+01
2.800000000000000000e+02,1.083220376517704331e+01
2.810000000000000000e+02,1.083795980910280043e+01
2.820000000000000000e+02,1.084378480777751719e+01
2.830000000000000000e+02,1.084967943088943976e+01
2.840000000000000000e+02,1.085564950768805481e+01
2.850000000000000000e+02,1.086169686962770875e+01
2.860000000000000000e+02,1.086782462494317514e+01
2.870000000000000000e+02,1.087403764606816203e+01
2.880000000000000000e+02,1.088033741697227974e+01
2.890000000000000000e+02,1.088672837335397681e+01
2.900000000000000000e+02,1.089321670101673689e+01
2.910000000000000000e+02,1.089980254055535980e+01
2.920000000000000000e+02,1.090649094675065633e+01
2.930000000000000000e+02,1.091328694358354312e+01
2.940000000000000000e+02,1.092019463993302786e+01
2.950000000000000000e+02,1.092721595990433947e+01
2.960000000000000000e+02,1.093435672654708135e+01
2.970000000000000000e+02,1.094162213770735548e+01
2.980000000000000000e+02,1.094901559710868533e+01
2.990000000000000000e+02,1.095654262591297901e+01
3.000000000000000000e+02,1.096420782838208652e+01
3.010000000000000000e+02,1.097201635551680887e+01
3.020000000000000000e+02,1.097997380274062706e+01
3.030000000000000000e+02,1.098808475085226100e+01
3.040000000000000000e+02,1.099635606348629580e+01
3.050000000000000000e+02,1.100479290517739983e+01
3.060000000000000000e+02,1.101340193725548033e+01
3.070000000000000000e+02,1.102218850993525479e+01
3.080000000000000000e+02,1.103115888327240590e+01
3.090000000000000000e+02,1.104031868111800740e+01
3.100000000000000000e+02,1.104967433237180430e+01
3.110000000000000000e+02,1.105923287049593640e+01
3.120000000000000000e+02,1.106900087473426986e+01
3.130000000000000000e+02,1.107898695099169650e+01
3.140000000000000000e+02,1.108919342858048296e+01
3.150000000000000000e+02,1.109962857744858056e+01
3.160000000000000000e+02,1.111029943764187955e+01
3.170000000000000000e+02,1.112120832570447249e+01
3.180000000000000000e+02,1.113236336343761934e+01
3.190000000000000000e+02,1.114376851963809756e+01
3.200000000000000000e+02,1.115542590713956095e+01
3.210000000000000000e+02,1.116733889814907599e+01
3.220000000000000000e+02,1.117951042344621193e+01
3.230000000000000000e+02,1.119193727476736555e+01
3.240000000000000000e+02,1.120461912396247151e+01
3.250000000000000000e+02,1.121755477002838575e+01
3.260000000000000000e+02,1.123073268273387271e+01
3.270000000000000000e+02,1.124414501447068560e+01
3.280000000000000000e+02,1.125778127988340316e+01
3.290000000000000000e+02,1.127162544312091086e+01
3.300000000000000000e+02,1.128565571533050615e+01
3.310000000000000000e+02,1.129985242553047975e+01
3.320000000000000000e+02,1.131418666183380140e+01
3.330000000000000000e+02,1.132862787465650278e+01
3.340000000000000000e+02,1.134314354087372756e+01
3.350000000000000000e+02,1.135769547437839933e+01
3.360000000000000000e+02,1.137224669145298783e+01
3.370000000000000000e+02,1.138676076585947250e+01
3.380000000000000000e+02,1.140119839964611614e+01
3.390000000000000000e+02,1.141552437365891848e+01
3.400000000000000000e+02,1.142970704358786804e+01
3.410000000000000000e+02,1.144372043465191702e+01
3.420000000000000000e+02,1.145754247115397995e+01
3.430000000000000000e+02,1.147115839214593613e+01
3.440000000000000000e+02,1.148456003769337563e+01
3.450000000000000000e+02,1.149774514825650584e+01
3.460000000000000000e+02,1.151071535158983394e+01
3.470000000000000000e+02,1.152347611881214817e+01
3.480000000000000000e+02,1.153603742673280941e+01
3.490000000000000000e+02,1.154840783047572650e+01
3.500000000000000000e+02,1.156059938644419027e+01
3.510000000000000000e+02,1.157262018884098609e+01
3.520000000000000000e+02,1.158448034497178547e+01
3.530000000000000000e+02,1.159618786555845737e+01
3.540000000000000000e+02,1.160775068625547313e+01
3.550000000000000000e+02,1.161917519617682792e+01
3.560000000000000000e+02,1.163046660077353245e+01
3.570000000000000000e+02,1.164163014372300431e+01
3.580000000000000000e+02,1.165267102137972444e+01
3.590000000000000000e+02,1.166359326557269327e+01
3.600000000000000000e+02,1.167440104366385256e+01
3.610000000000000000e+02,1.168509677189558715e+01
3.620000000000000000e+02,1.169568472617851818e+01
3.630000000000000000e+02,1.170616795056957926e+01
3.640000000000000000e+02,1.171654895103874239e+01
3.650000000000000000e+02,1.172683106261846042e+01
3.660000000000000000e+02,1.173701606326427438e+01
3.670000000000000000e+02,1.174710707191221282e+01
3.680000000000000000e+02,1.175710548864799954e+01
3.690000000000000000e+02,1.176701430677223037e+01
3.700000000000000000e+02,1.177683447041802545e+01
3.710000000000000000e+02,1.178656817809729951e+01
3.720000000000000000e+02,1.179621719006110325e+01
3.730000000000000000e+02,1.180578417593777907e+01
3.740000000000000000e+02,1.181527061130369205e+01
3.750000000000000000e+02,1.182467720609712281e+01
3.760000000000000000e+02,1.183400558258587587e+01
3.770000000000000000e+02,1.184325768411235380e+01
3.780000000000000000e+02,1.185243452285813781e+01
3.790000000000000000e+02,1.186153726880979420e+01
3.800000000000000000e+02,1.187056758096026599e+01
3.810000000000000000e+02,1.187952611066045705e+01
3.820000000000000000e+02,1.188841482842190977e+01
3.830000000000000000e+02,1.189723420232545692e+01
3.840000000000000000e+02,1.190598560410007778e+01
3.850000000000000000e+02,1.191467031305454860e+01
3.860000000000000000e+02,1.192328910517057849e+01
3.870000000000000000e+02,1.193184201016010526e+01
3.880000000000000000e+02,1.194033176530493279e+01
3.890000000000000000e+02,1.194875797503538806e+01
3.900000000000000000e+02,1.195712229127345871e+01
3.910000000000000000e+02,1.196542504693170450e+01
3.920000000000000000e+02,1.197366697978211825e+01
3.930000000000000000e+02,1.198184882202526502e+01
3.940000000000000000e+02,1.198997121896113427e+01
3.950000000000000000e+02,1.199803603072848190e+01
3.960000000000000000e+02,1.200604242617536421e+01
3.970000000000000000e+02,1.201399265910240288e+01
3.980000000000000000e+02,1.202188686418520902e+01
