# Time [s], Temperature [C]
1.000000000000000000e+00,2.499997099999999861e+01
2.000000000000000000e+00,1.059695700000000045e+02
3.000000000000000000e+00,1.551788500000000113e+02
4.000000000000000000e+00,1.919561199999999985e+02
5.000000000000000000e+00,2.221889500000000055e+02
6.000000000000000000e+00,2.480983699999999885e+02
7.000000000000000000e+00,2.708793600000000197e+02
8.000000000000000000e+00,2.913827800000000252e+02
9.000000000000000000e+00,3.102905600000000277e+02
1.000000000000000000e+01,3.278337999999999965e+02
1.100000000000000000e+01,3.437668800000000147e+02
1.200000000000000000e+01,3.581792599999999993e+02
1.300000000000000000e+01,3.713039600000000178e+02
1.400000000000000000e+01,3.832593100000000277e+02
1.500000000000000000e+01,3.941205699999999865e+02
1.600000000000000000e+01,4.038684400000000210e+02
1.700000000000000000e+01,4.124184900000000198e+02
1.800000000000000000e+01,4.199880999999999744e+02
1.900000000000000000e+01,4.266763300000000072e+02
2.000000000000000000e+01,4.324464399999999955e+02
2.100000000000000000e+01,4.381320799999999736e+02
2.200000000000000000e+01,4.437108200000000124e+02
2.300000000000000000e+01,4.489820599999999899e+02
2.400000000000000000e+01,4.551142300000000205e+02
2.500000000000000000e+01,4.616833799999999997e+02
2.600000000000000000e+01,4.684188800000000015e+02
2.700000000000000000e+01,4.759812299999999823e+02
2.800000000000000000e+01,4.834423199999999952e+02
2.900000000000000000e+01,4.897220500000000243e+02
3.000000000000000000e+01,4.950052499999999895e+02
3.100000000000000000e+01,4.997632399999999961e+02
3.200000000000000000e+01,5.042229899999999816e+02
3.300000000000000000e+01,5.085400399999999763e+02
3.400000000000000000e+01,5.128220800000000281e+02
3.500000000000000000e+01,5.171651600000000144e+02
3.600000000000000000e+01,5.216050999999999931e+02
3.700000000000000000e+01,5.261625999999999976e+02
3.800000000000000000e+01,5.308020000000000209e+02
3.900000000000000000e+01,5.354244999999999663e+02
4.000000000000000000e+01,5.398765899999999647e+02
4.100000000000000000e+01,5.440185500000000047e+02
4.200000000000000000e+01,5.477728899999999612e+02
4.300000000000000000e+01,5.512157600000000457e+02
4.400000000000000000e+01,5.544630100000000539e+02
4.500000000000000000e+01,5.575650600000000168e+02
4.600000000000000000e+01,5.605930200000000241e+02
4.700000000000000000e+01,5.635888700000000426e+02
4.800000000000000000e+01,5.665815400000000182e+02
4.900000000000000000e+01,5.695837999999999965e+02
5.000000000000000000e+01,5.726127900000000182e+02
5.100000000000000000e+01,5.756316500000000360e+02
5.200000000000000000e+01,5.786136500000000069e+02
5.300000000000000000e+01,5.815326499999999896e+02
5.400000000000000000e+01,5.843176899999999705e+02
5.500000000000000000e+01,5.869634999999999536e+02
5.600000000000000000e+01,5.894677699999999732e+02
5.700000000000000000e+01,5.918482099999999946e+02
5.800000000000000000e+01,5.941317699999999604e+02
5.900000000000000000e+01,5.963499799999999595e+02
6.000000000000000000e+01,5.985159300000000258e+02
6.100000000000000000e+01,6.006588699999999790e+02
6.200000000000000000e+01,6.027797199999999975e+02
6.300000000000000000e+01,6.048944699999999557e+02
6.400000000000000000e+01,6.069950599999999667e+02
6.500000000000000000e+01,6.090884999999999536e+02
6.600000000000000000e+01,6.111590599999999540e+02
6.700000000000000000e+01,6.131914100000000190e+02
6.800000000000000000e+01,6.151753499999999804e+02
6.900000000000000000e+01,6.171003399999999601e+02
7.000000000000000000e+01,6.189556300000000419e+02
7.100000000000000000e+01,6.207486599999999726e+02
7.200000000000000000e+01,6.224842499999999745e+02
7.300000000000000000e+01,6.241672399999999925e+02
7.400000000000000000e+01,6.258176899999999705e+02
7.500000000000000000e+01,6.274342699999999695e+02
7.600000000000000000e+01,6.290281400000000076e+02
7.700000000000000000e+01,6.306059599999999818e+02
7.800000000000000000e+01,6.321694899999999961e+02
7.900000000000000000e+01,6.337209500000000162e+02
8.000000000000000000e+01,6.352664200000000392e+02
8.100000000000000000e+01,6.367919900000000553e+02
8.200000000000000000e+01,6.382991899999999532e+02
8.300000000000000000e+01,6.397903400000000147e+02
8.400000000000000000e+01,6.412432900000000018e+02
8.500000000000000000e+01,6.426694300000000339e+02
8.600000000000000000e+01,6.440662200000000439e+02
8.700000000000000000e+01,6.454246799999999666e+02
8.800000000000000000e+01,6.467525600000000168e+02
8.900000000000000000e+01,6.480562099999999646e+02
9.000000000000000000e+01,6.493417399999999589e+02
9.100000000000000000e+01,6.506029700000000275e+02
9.200000000000000000e+01,6.518525399999999763e+02
9.300000000000000000e+01,6.530869099999999889e+02
9.400000000000000000e+01,6.543107899999999972e+02
9.500000000000000000e+01,6.555282600000000457e+02
9.600000000000000000e+01,6.567343100000000504e+02
9.700000000000000000e+01,6.579281600000000481e+02
9.800000000000000000e+01,6.591173099999999749e+02
9.900000000000000000e+01,6.602865000000000464e+02
1.000000000000000000e+02,6.614393300000000409e+02
1.010000000000000000e+02,6.625813000000000557e+02
1.020000000000000000e+02,6.636977500000000418e+02
1.030000000000000000e+02,6.648001100000000179e+02
1.040000000000000000e+02,6.658861699999999928e+02
1.050000000000000000e+02,6.669521499999999605e+02
1.060000000000000000e+02,6.680081199999999626e+02
1.070000000000000000e+02,6.690488299999999526e+02
1.080000000000000000e+02,6.700786100000000260e+02
1.090000000000000000e+02,6.711002799999999979e+02
1.100000000000000000e+02,6.721138300000000072e+02
1.110000000000000000e+02,6.731200599999999667e+02
1.120000000000000000e+02,6.741130399999999554e+02
1.130000000000000000e+02,6.751065700000000334e+02
1.140000000000000000e+02,6.760858799999999746e+02
1.150000000000000000e+02,6.770606099999999969e+02
1.160000000000000000e+02,6.780231300000000374e+02
1.170000000000000000e+02,6.789799799999999550e+02
1.180000000000000000e+02,6.799187600000000202e+02
1.190000000000000000e+02,6.808522299999999632e+02
1.200000000000000000e+02,6.817702600000000075e+02
1.210000000000000000e+02,6.826779199999999719e+02
1.220000000000000000e+02,6.835786100000000260e+02
1.230000000000000000e+02,6.844698499999999513e+02
1.240000000000000000e+02,6.853517500000000382e+02
1.250000000000000000e+02,6.862266799999999876e+02
1.260000000000000000e+02,6.870983300000000327e+02
1.270000000000000000e+02,6.879595299999999725e+02
1.280000000000000000e+02,6.888168299999999817e+02
1.290000000000000000e+02,6.896673600000000306e+02
1.300000000000000000e+02,6.905098299999999654e+02
1.310000000000000000e+02,6.913454600000000028e+02
1.320000000000000000e+02,6.921773100000000341e+02
1.330000000000000000e+02,6.929976799999999457e+02
1.340000000000000000e+02,6.938151199999999790e+02
1.350000000000000000e+02,6.946198100000000295e+02
1.360000000000000000e+02,6.954195600000000468e+02
1.370000000000000000e+02,6.962134999999999536e+02
1.380000000000000000e+02,6.969974999999999454e+02
1.390000000000000000e+02,6.977766699999999673e+02
1.400000000000000000e+02,6.985491299999999910e+02
1.410000000000000000e+02,6.993160400000000436e+02
1.420000000000000000e+02,7.000779400000000123e+02
1.430000000000000000e+02,7.008344700000000103e+02
1.440000000000000000e+02,7.015864299999999503e+02
1.450000000000000000e+02,7.023298300000000154e+02
1.460000000000000000e+02,7.030690899999999601e+02
1.470000000000000000e+02,7.038029199999999719e+02
1.480000000000000000e+02,7.045299700000000485e+02
1.490000000000000000e+02,7.052531699999999546e+02
1.500000000000000000e+02,7.059667399999999589e+02
1.510000000000000000e+02,7.066778000000000475e+02
1.520000000000000000e+02,7.073817099999999982e+02
1.530000000000000000e+02,7.080794700000000148e+02
1.540000000000000000e+02,7.087720299999999725e+02
1.550000000000000000e+02,7.094627699999999777e+02
1.560000000000000000e+02,7.101436800000000176e+02
1.570000000000000000e+02,7.108217799999999897e+02
1.580000000000000000e+02,7.114935299999999643e+02
1.590000000000000000e+02,7.121632700000000114e+02
1.600000000000000000e+02,7.128237900000000309e+02
1.610000000000000000e+02,7.134824200000000474e+02
1.620000000000000000e+02,7.141351899999999659e+02
1.630000000000000000e+02,7.147806399999999485e+02
1.640000000000000000e+02,7.154241299999999910e+02
1.650000000000000000e+02,7.160612800000000107e+02
1.660000000000000000e+02,7.166914100000000190e+02
1.670000000000000000e+02,7.173225700000000415e+02
1.680000000000000000e+02,7.179424999999999955e+02
1.690000000000000000e+02,7.185605500000000347e+02
1.700000000000000000e+02,7.191714500000000498e+02
1.710000000000000000e+02,7.197788100000000213e+02
1.720000000000000000e+02,7.203817699999999604e+02
1.730000000000000000e+02,7.209788800000000037e+02
1.740000000000000000e+02,7.215720199999999522e+02
1.750000000000000000e+02,7.221601000000000568e+02
1.760000000000000000e+02,7.227455400000000054e+02
1.770000000000000000e+02,7.233221999999999525e+02
1.780000000000000000e+02,7.238971599999999853e+02
1.790000000000000000e+02,7.244666700000000219e+02
1.800000000000000000e+02,7.250313700000000381e+02
1.810000000000000000e+02,7.255915499999999838e+02
1.820000000000000000e+02,7.261458099999999831e+02
1.830000000000000000e+02,7.266989099999999553e+02
1.840000000000000000e+02,7.272429200000000264e+02
1.850000000000000000e+02,7.277869299999999839e+02
1.860000000000000000e+02,7.283247099999999818e+02
1.870000000000000000e+02,7.288560199999999440e+02
1.880000000000000000e+02,7.293862299999999550e+02
1.890000000000000000e+02,7.299107099999999946e+02
1.900000000000000000e+02,7.304283400000000483e+02
1.910000000000000000e+02,7.309453099999999495e+02
1.920000000000000000e+02,7.314572100000000319e+02
1.930000000000000000e+02,7.319636799999999539e+02
1.940000000000000000e+02,7.324680200000000241e+02
1.950000000000000000e+02,7.329675899999999729e+02
1.960000000000000000e+02,7.334626500000000533e+02
1.970000000000000000e+02,7.339525800000000118e+02
1.980000000000000000e+02,7.344412800000000061e+02
1.990000000000000000e+02,7.349235800000000154e+02
2.000000000000000000e+02,7.354059399999999869e+02
2.010000000000000000e+02,7.358803699999999708e+02
2.020000000000000000e+02,7.363521700000000010e+02
2.030000000000000000e+02,7.368220800000000281e+02
2.040000000000000000e+02,7.372879599999999982e+02
2.050000000000000000e+02,7.377484100000000353e+02
2.060000000000000000e+02,7.382087999999999965e+02
2.070000000000000000e+02,7.386647299999999632e+02
2.080000000000000000e+02,7.391142599999999447e+02
2.090000000000000000e+02,7.395661599999999680e+02
2.100000000000000000e+02,7.400108599999999797e+02
2.110000000000000000e+02,7.404544100000000526e+02
2.120000000000000000e+02,7.408956899999999450e+02
2.130000000000000000e+02,7.413322100000000319e+02
2.140000000000000000e+02,7.417672700000000532e+02
2.150000000000000000e+02,7.422011099999999715e+02
2.160000000000000000e+02,7.426291499999999814e+02
2.170000000000000000e+02,7.430562700000000405e+02
2.180000000000000000e+02,7.434837599999999611e+02
2.190000000000000000e+02,7.439049099999999726e+02
2.200000000000000000e+02,7.443265400000000227e+02
2.210000000000000000e+02,7.447463999999999942e+02
2.220000000000000000e+02,7.451643100000000004e+02
2.230000000000000000e+02,7.455784300000000258e+02
2.240000000000000000e+02,7.459937099999999646e+02
2.250000000000000000e+02,7.464061299999999619e+02
2.260000000000000000e+02,7.468165299999999434e+02
2.270000000000000000e+02,7.472275399999999763e+02
2.280000000000000000e+02,7.476367199999999684e+02
2.290000000000000000e+02,7.480449800000000096e+02
2.300000000000000000e+02,7.484526399999999740e+02
2.310000000000000000e+02,7.488597999999999502e+02
2.320000000000000000e+02,7.492666000000000395e+02
2.330000000000000000e+02,7.496741299999999910e+02
2.340000000000000000e+02,7.500797099999999773e+02
2.350000000000000000e+02,7.504865099999999529e+02
2.360000000000000000e+02,7.508944699999999557e+02
2.370000000000000000e+02,7.513018799999999828e+02
2.380000000000000000e+02,7.517089799999999968e+02
2.390000000000000000e+02,7.521187099999999646e+02
2.400000000000000000e+02,7.525284400000000460e+02
2.410000000000000000e+02,7.529391500000000406e+02
2.420000000000000000e+02,7.533505900000000111e+02
2.430000000000000000e+02,7.537633700000000090e+02
2.440000000000000000e+02,7.541763899999999694e+02
2.450000000000000000e+02,7.545935100000000375e+02
2.460000000000000000e+02,7.550084200000000010e+02
2.470000000000000000e+02,7.554260900000000447e+02
2.480000000000000000e+02,7.558453399999999647e+02
2.490000000000000000e+02,7.562628799999999956e+02
2.500000000000000000e+02,7.566832900000000564e+02
2.510000000000000000e+02,7.571053500000000440e+02
2.520000000000000000e+02,7.575271599999999808e+02
2.530000000000000000e+02,7.579484300000000303e+02
2.540000000000000000e+02,7.583720700000000079e+02
2.550000000000000000e+02,7.587952900000000227e+02
2.560000000000000000e+02,7.592177100000000110e+02
2.570000000000000000e+02,7.596428200000000288e+02
2.580000000000000000e+02,7.600668299999999817e+02
2.590000000000000000e+02,7.604899900000000343e+02
2.600000000000000000e+02,7.609147900000000391e+02
2.610000000000000000e+02,7.613389300000000048e+02
2.620000000000000000e+02,7.617610499999999547e+02
2.630000000000000000e+02,7.621868299999999863e+02
2.640000000000000000e+02,7.626096800000000258e+02
2.650000000000000000e+02,7.630325900000000274e+02
2.660000000000000000e+02,7.634544100000000526e+02
2.670000000000000000e+02,7.638760399999999890e+02
2.680000000000000000e+02,7.642966900000000123e+02
2.690000000000000000e+02,7.647157600000000457e+02
2.700000000000000000e+02,7.651348299999999654e+02
2.710000000000000000e+02,7.655528000000000475e+02
2.720000000000000000e+02,7.659695400000000518e+02
2.730000000000000000e+02,7.663856799999999794e+02
2.740000000000000000e+02,7.668002900000000182e+02
2.750000000000000000e+02,7.672152099999999564e+02
2.760000000000000000e+02,7.676265300000000025e+02
2.770000000000000000e+02,7.680380199999999604e+02
2.780000000000000000e+02,7.684486100000000306e+02
2.790000000000000000e+02,7.688573599999999715e+02
2.800000000000000000e+02,7.692633100000000468e+02
2.810000000000000000e+02,7.696702299999999468e+02
2.820000000000000000e+02,7.700740399999999681e+02
2.830000000000000000e+02,7.704769900000000007e+02
2.840000000000000000e+02,7.708772000000000162e+02
2.850000000000000000e+02,7.712780199999999695e+02
2.860000000000000000e+02,7.716754799999999932e+02
2.870000000000000000e+02,7.720732400000000553e+02
2.880000000000000000e+02,7.724667399999999589e+02
2.890000000000000000e+02,7.728604100000000017e+02
2.900000000000000000e+02,7.732533600000000433e+02
2.910000000000000000e+02,7.736420299999999770e+02
2.920000000000000000e+02,7.740302100000000110e+02
2.930000000000000000e+02,7.744161400000000413e+02
2.940000000000000000e+02,7.748007199999999557e+02
2.950000000000000000e+02,7.751830400000000054e+02
2.960000000000000000e+02,7.755654299999999921e+02
2.970000000000000000e+02,7.759443999999999733e+02
2.980000000000000000e+02,7.763207400000000007e+02
2.990000000000000000e+02,7.766972700000000032e+02
3.000000000000000000e+02,7.770706800000000385e+02
3.010000000000000000e+02,7.774429900000000089e+02
3.020000000000000000e+02,7.778136600000000271e+02
3.030000000000000000e+02,7.781815800000000536e+02
3.040000000000000000e+02,7.785481600000000526e+02
3.050000000000000000e+02,7.789125400000000354e+02
3.060000000000000000e+02,7.792752100000000155e+02
3.070000000000000000e+02,7.796362299999999550e+02
3.080000000000000000e+02,7.799959700000000566e+02
3.090000000000000000e+02,7.803534499999999525e+02
3.100000000000000000e+02,7.807078199999999697e+02
3.110000000000000000e+02,7.810622600000000375e+02
3.120000000000000000e+02,7.814132100000000491e+02
3.130000000000000000e+02,7.817631800000000339e+02
3.140000000000000000e+02,7.821116899999999532e+02
3.150000000000000000e+02,7.824565999999999804e+02
3.160000000000000000e+02,7.828004200000000310e+02
3.170000000000000000e+02,7.831439800000000560e+02
3.180000000000000000e+02,7.834831500000000233e+02
3.190000000000000000e+02,7.838217799999999897e+02
3.200000000000000000e+02,7.841588100000000168e+02
3.210000000000000000e+02,7.844938399999999774e+02
3.220000000000000000e+02,7.848265999999999849e+02
3.230000000000000000e+02,7.851585099999999784e+02
3.240000000000000000e+02,7.854878499999999804e+02
3.250000000000000000e+02,7.858144499999999653e+02
3.260000000000000000e+02,7.861410499999999502e+02
3.270000000000000000e+02,7.864645400000000564e+02
3.280000000000000000e+02,7.867863200000000461e+02
3.290000000000000000e+02,7.871072400000000471e+02
3.300000000000000000e+02,7.874246200000000044e+02
3.310000000000000000e+02,7.877413299999999481e+02
3.320000000000000000e+02,7.880563399999999774e+02
3.330000000000000000e+02,7.883693200000000161e+02
3.340000000000000000e+02,7.886805399999999509e+02
3.350000000000000000e+02,7.889894399999999450e+02
3.360000000000000000e+02,7.892972399999999880e+02
3.370000000000000000e+02,7.896027199999999766e+02
3.380000000000000000e+02,7.899075299999999515e+02
3.390000000000000000e+02,7.902100799999999481e+02
3.400000000000000000e+02,7.905104400000000169e+02
3.410000000000000000e+02,7.908100600000000213e+02
3.420000000000000000e+02,7.911066899999999578e+02
3.430000000000000000e+02,7.914023999999999432e+02
3.440000000000000000e+02,7.916955000000000382e+02
3.450000000000000000e+02,7.919872400000000425e+02
3.460000000000000000e+02,7.922769200000000183e+02
3.470000000000000000e+02,7.925662200000000439e+02
3.480000000000000000e+02,7.928516799999999876e+02
3.490000000000000000e+02,7.931368999999999687e+02
3.500000000000000000e+02,7.934210199999999986e+02
3.510000000000000000e+02,7.937023299999999608e+02
3.520000000000000000e+02,7.939824200000000474e+02
3.530000000000000000e+02,7.942613499999999931e+02
3.540000000000000000e+02,7.945383299999999736e+02
3.550000000000000000e+02,7.948122600000000375e+02
3.560000000000000000e+02,7.950864299999999503e+02
3.570000000000000000e+02,7.953580899999999474e+02
3.580000000000000000e+02,7.956279899999999543e+02
3.590000000000000000e+02,7.958970900000000483e+02
3.600000000000000000e+02,7.961641200000000254e+02
3.610000000000000000e+02,7.964284099999999853e+02
3.620000000000000000e+02,7.966927500000000464e+02
3.630000000000000000e+02,7.969552599999999529e+02
3.640000000000000000e+02,7.972146599999999808e+02
3.650000000000000000e+02,7.974744899999999461e+02
3.660000000000000000e+02,7.977317500000000337e+02
3.670000000000000000e+02,7.979865700000000288e+02
3.680000000000000000e+02,7.982423099999999749e+02
3.690000000000000000e+02,7.984950000000000045e+02
3.700000000000000000e+02,7.987454800000000432e+02
3.710000000000000000e+02,7.989960899999999810e+02
3.720000000000000000e+02,7.992441400000000158e+02
3.730000000000000000e+02,7.994904199999999719e+02
3.740000000000000000e+02,7.997364499999999907e+02
3.750000000000000000e+02,7.999786400000000413e+02
3.760000000000000000e+02,8.002208900000000540e+02
3.770000000000000000e+02,8.004624000000000024e+02
3.780000000000000000e+02,8.007004399999999578e+02
3.790000000000000000e+02,8.009384800000000268e+02
3.800000000000000000e+02,8.011742600000000039e+02
3.810000000000000000e+02,8.014099700000000439e+02
3.820000000000000000e+02,8.016430699999999661e+02
3.830000000000000000e+02,8.018747600000000375e+02
3.840000000000000000e+02,8.021059599999999818e+02
3.850000000000000000e+02,8.023336799999999585e+02
3.860000000000000000e+02,8.025622600000000375e+02
3.870000000000000000e+02,8.027885099999999738e+02
3.880000000000000000e+02,8.030130599999999959e+02
3.890000000000000000e+02,8.032373700000000554e+02
3.900000000000000000e+02,8.034581299999999828e+02
3.910000000000000000e+02,8.036797500000000127e+02
3.920000000000000000e+02,8.038981899999999996e+02
3.930000000000000000e+02,8.041168199999999615e+02
3.940000000000000000e+02,8.043323400000000447e+02
3.950000000000000000e+02,8.045484000000000151e+02
3.960000000000000000e+02,8.047618400000000065e+02
3.970000000000000000e+02,8.049740600000000086e+02
3.980000000000000000e+02,8.051861599999999726e+02
3.990000000000000000e+02,8.053947100000000319e+02
