# Time [s], Temperature [C]
1.000000000000000000e+00,2.499997099999999861e+01
2.000000000000000000e+00,3.334365100000000126e+01
3.000000000000000000e+00,3.810892900000000338e+01
4.000000000000000000e+00,4.200227699999999942e+01
5.000000000000000000e+00,4.526285899999999884e+01
6.000000000000000000e+00,4.813557399999999831e+01
7.000000000000000000e+00,5.071580900000000014e+01
8.000000000000000000e+00,5.307409700000000186e+01
9.000000000000000000e+00,5.525368900000000139e+01
1.000000000000000000e+01,5.728654900000000083e+01
1.100000000000000000e+01,5.919585000000000008e+01
1.200000000000000000e+01,6.099917599999999851e+01
1.300000000000000000e+01,6.271068199999999848e+01
1.400000000000000000e+01,6.434116400000000624e+01
1.500000000000000000e+01,6.589976500000000215e+01
1.600000000000000000e+01,6.739384499999999889e+01
1.700000000000000000e+01,6.882994100000000515e+01
1.800000000000000000e+01,7.021299000000000490e+01
1.900000000000000000e+01,7.154782099999999900e+01
2.000000000000000000e+01,7.283859300000000303e+01
2.100000000000000000e+01,7.408820299999999293e+01
2.200000000000000000e+01,7.529995700000000625e+01
2.300000000000000000e+01,7.647666900000000112e+01
2.400000000000000000e+01,7.762043799999999294e+01
2.500000000000000000e+01,7.873346700000000453e+01
2.600000000000000000e+01,7.981780200000000036e+01
2.700000000000000000e+01,8.087500799999999401e+01
2.800000000000000000e+01,8.190660900000000311e+01
2.900000000000000000e+01,8.291406200000000126e+01
3.000000000000000000e+01,8.389868900000000451e+01
3.100000000000000000e+01,8.486158799999999758e+01
3.200000000000000000e+01,8.580397000000000673e+01
3.300000000000000000e+01,8.672666200000000458e+01
3.400000000000000000e+01,8.763078299999999388e+01
3.500000000000000000e+01,8.851721999999999468e+01
3.600000000000000000e+01,8.938623800000000585e+01
3.700000000000000000e+01,9.023917400000000555e+01
3.800000000000000000e+01,9.107663700000000517e+01
3.900000000000000000e+01,9.189907100000000639e+01
4.000000000000000000e+01,9.270707699999999818e+01
4.100000000000000000e+01,9.350135000000000218e+01
4.200000000000000000e+01,9.428230299999999886e+01
4.300000000000000000e+01,9.505045300000000452e+01
4.400000000000000000e+01,9.580638899999999580e+01
4.500000000000000000e+01,9.655038500000000568e+01
4.600000000000000000e+01,9.728291299999999353e+01
4.700000000000000000e+01,9.800452400000000353e+01
4.800000000000000000e+01,9.871543099999999527e+01
4.900000000000000000e+01,9.941610000000000014e+01
5.000000000000000000e+01,1.001067800000000005e+02
5.100000000000000000e+01,1.007879199999999997e+02
5.200000000000000000e+01,1.014596800000000059e+02
5.300000000000000000e+01,1.021226099999999946e+02
5.400000000000000000e+01,1.027765799999999956e+02
5.500000000000000000e+01,1.034222100000000069e+02
5.600000000000000000e+01,1.040597800000000035e+02
5.700000000000000000e+01,1.046892200000000059e+02
5.800000000000000000e+01,1.053110499999999945e+02
5.900000000000000000e+01,1.059255200000000059e+02
6.000000000000000000e+01,1.065327099999999945e+02
6.100000000000000000e+01,1.071328800000000001e+02
6.200000000000000000e+01,1.077262599999999964e+02
6.300000000000000000e+01,1.083129399999999976e+02
6.400000000000000000e+01,1.088931900000000041e+02
6.500000000000000000e+01,1.094672900000000055e+02
6.600000000000000000e+01,1.100352599999999939e+02
6.700000000000000000e+01,1.105973099999999931e+02
6.800000000000000000e+01,1.111538199999999961e+02
6.900000000000000000e+01,1.117044800000000038e+02
7.000000000000000000e+01,1.122499200000000030e+02
7.100000000000000000e+01,1.127899799999999999e+02
7.200000000000000000e+01,1.133250400000000013e+02
7.300000000000000000e+01,1.138551199999999994e+02
7.400000000000000000e+01,1.143802000000000021e+02
7.500000000000000000e+01,1.149007000000000005e+02
7.600000000000000000e+01,1.154166400000000010e+02
7.700000000000000000e+01,1.159279099999999971e+02
7.800000000000000000e+01,1.164349700000000070e+02
7.900000000000000000e+01,1.169378200000000021e+02
8.000000000000000000e+01,1.174364699999999999e+02
8.100000000000000000e+01,1.179310200000000037e+02
8.200000000000000000e+01,1.184218000000000046e+02
8.300000000000000000e+01,1.189086700000000008e+02
8.400000000000000000e+01,1.193918400000000020e+02
8.500000000000000000e+01,1.198713300000000004e+02
8.600000000000000000e+01,1.203474800000000045e+02
8.700000000000000000e+01,1.208199599999999947e+02
8.800000000000000000e+01,1.212891300000000001e+02
8.900000000000000000e+01,1.217551299999999941e+02
9.000000000000000000e+01,1.222178100000000001e+02
9.100000000000000000e+01,1.226774099999999947e+02
9.200000000000000000e+01,1.231338400000000064e+02
9.300000000000000000e+01,1.235874100000000055e+02
9.400000000000000000e+01,1.240380899999999968e+02
9.500000000000000000e+01,1.244859799999999979e+02
9.600000000000000000e+01,1.249310200000000037e+02
9.700000000000000000e+01,1.253732799999999941e+02
9.800000000000000000e+01,1.258129600000000039e+02
9.900000000000000000e+01,1.262500799999999970e+02
1.000000000000000000e+02,1.266846800000000002e+02
1.010000000000000000e+02,1.271168399999999963e+02
1.020000000000000000e+02,1.275465499999999963e+02
1.030000000000000000e+02,1.279739200000000068e+02
1.040000000000000000e+02,1.283990499999999884e+02
1.050000000000000000e+02,1.288218699999999899e+02
1.060000000000000000e+02,1.292423200000000065e+02
1.070000000000000000e+02,1.296607700000000136e+02
1.080000000000000000e+02,1.300769500000000107e+02
1.090000000000000000e+02,1.304911500000000046e+02
1.100000000000000000e+02,1.309034100000000080e+02
1.110000000000000000e+02,1.313136599999999987e+02
1.120000000000000000e+02,1.317219499999999925e+02
1.130000000000000000e+02,1.321283999999999992e+02
1.140000000000000000e+02,1.325329299999999932e+02
1.150000000000000000e+02,1.329356099999999969e+02
1.160000000000000000e+02,1.333365599999999915e+02
1.170000000000000000e+02,1.337357299999999896e+02
1.180000000000000000e+02,1.341331500000000005e+02
1.190000000000000000e+02,1.345289300000000026e+02
1.200000000000000000e+02,1.349229699999999923e+02
1.210000000000000000e+02,1.353153700000000015e+02
1.220000000000000000e+02,1.357062400000000082e+02
1.230000000000000000e+02,1.360954900000000123e+02
1.240000000000000000e+02,1.364832000000000107e+02
1.250000000000000000e+02,1.368694500000000005e+02
1.260000000000000000e+02,1.372540300000000002e+02
1.270000000000000000e+02,1.376372200000000134e+02
1.280000000000000000e+02,1.380190599999999961e+02
1.290000000000000000e+02,1.383995799999999861e+02
1.300000000000000000e+02,1.387786299999999926e+02
1.310000000000000000e+02,1.391563299999999970e+02
1.320000000000000000e+02,1.395327299999999866e+02
1.330000000000000000e+02,1.399077000000000055e+02
1.340000000000000000e+02,1.402814500000000066e+02
1.350000000000000000e+02,1.406538500000000056e+02
1.360000000000000000e+02,1.410249900000000025e+02
1.370000000000000000e+02,1.413949299999999880e+02
1.380000000000000000e+02,1.417636099999999999e+02
1.390000000000000000e+02,1.421310599999999909e+02
1.400000000000000000e+02,1.424973899999999958e+02
1.410000000000000000e+02,1.428625000000000114e+02
1.420000000000000000e+02,1.432264600000000030e+02
1.430000000000000000e+02,1.435893199999999865e+02
1.440000000000000000e+02,1.439510199999999998e+02
1.450000000000000000e+02,1.443115999999999985e+02
1.460000000000000000e+02,1.446711999999999989e+02
1.470000000000000000e+02,1.450295999999999879e+02
1.480000000000000000e+02,1.453869300000000067e+02
1.490000000000000000e+02,1.457432399999999859e+02
1.500000000000000000e+02,1.460984799999999950e+02
1.510000000000000000e+02,1.464526700000000119e+02
1.520000000000000000e+02,1.468059800000000052e+02
1.530000000000000000e+02,1.471582300000000032e+02
1.540000000000000000e+02,1.475094599999999900e+02
1.550000000000000000e+02,1.478597599999999943e+02
1.560000000000000000e+02,1.482091100000000097e+02
1.570000000000000000e+02,1.485573699999999917e+02
1.580000000000000000e+02,1.489047700000000134e+02
1.590000000000000000e+02,1.492511700000000019e+02
1.600000000000000000e+02,1.495966500000000110e+02
1.610000000000000000e+02,1.499412700000000029e+02
1.620000000000000000e+02,1.502849300000000028e+02
1.630000000000000000e+02,1.506277800000000013e+02
1.640000000000000000e+02,1.509697899999999890e+02
1.650000000000000000e+02,1.513107599999999877e+02
1.660000000000000000e+02,1.516508499999999913e+02
1.670000000000000000e+02,1.519901000000000124e+02
1.680000000000000000e+02,1.523285099999999943e+02
1.690000000000000000e+02,1.526660599999999874e+02
1.700000000000000000e+02,1.530028100000000109e+02
1.710000000000000000e+02,1.533387299999999982e+02
1.720000000000000000e+02,1.536738300000000095e+02
1.730000000000000000e+02,1.540080900000000099e+02
1.740000000000000000e+02,1.543414600000000121e+02
1.750000000000000000e+02,1.546740000000000066e+02
1.760000000000000000e+02,1.550057700000000125e+02
1.770000000000000000e+02,1.553367599999999982e+02
1.780000000000000000e+02,1.556668999999999983e+02
1.790000000000000000e+02,1.559963199999999972e+02
1.800000000000000000e+02,1.563250099999999918e+02
1.810000000000000000e+02,1.566528299999999945e+02
1.820000000000000000e+02,1.569798900000000117e+02
1.830000000000000000e+02,1.573062299999999993e+02
1.840000000000000000e+02,1.576316999999999950e+02
1.850000000000000000e+02,1.579564799999999991e+02
1.860000000000000000e+02,1.582805799999999863e+02
1.870000000000000000e+02,1.586038700000000006e+02
1.880000000000000000e+02,1.589264699999999948e+02
1.890000000000000000e+02,1.592483200000000068e+02
1.900000000000000000e+02,1.595693400000000111e+02
1.910000000000000000e+02,1.598896599999999921e+02
1.920000000000000000e+02,1.602092100000000130e+02
1.930000000000000000e+02,1.605281500000000108e+02
1.940000000000000000e+02,1.608464500000000044e+02
1.950000000000000000e+02,1.611638900000000092e+02
1.960000000000000000e+02,1.614806100000000129e+02
1.970000000000000000e+02,1.617966199999999901e+02
1.980000000000000000e+02,1.621118899999999883e+02
1.990000000000000000e+02,1.624266200000000140e+02
2.000000000000000000e+02,1.627405500000000131e+02
2.010000000000000000e+02,1.630537899999999922e+02
2.020000000000000000e+02,1.633663200000000018e+02
2.030000000000000000e+02,1.636781900000000007e+02
2.040000000000000000e+02,1.639894999999999925e+02
2.050000000000000000e+02,1.642999599999999987e+02
2.060000000000000000e+02,1.646097699999999975e+02
2.070000000000000000e+02,1.649188499999999920e+02
2.080000000000000000e+02,1.652273600000000044e+02
2.090000000000000000e+02,1.655352800000000002e+02
2.100000000000000000e+02,1.658424200000000042e+02
2.110000000000000000e+02,1.661488500000000101e+02
2.120000000000000000e+02,1.664546200000000056e+02
2.130000000000000000e+02,1.667597700000000032e+02
2.140000000000000000e+02,1.670642899999999997e+02
2.150000000000000000e+02,1.673681799999999953e+02
2.160000000000000000e+02,1.676713399999999865e+02
2.170000000000000000e+02,1.679738900000000115e+02
2.180000000000000000e+02,1.682757599999999911e+02
2.190000000000000000e+02,1.685770699999999920e+02
2.200000000000000000e+02,1.688776599999999917e+02
2.210000000000000000e+02,1.691776700000000062e+02
2.220000000000000000e+02,1.694769100000000037e+02
2.230000000000000000e+02,1.697755300000000034e+02
2.240000000000000000e+02,1.700736699999999928e+02
2.250000000000000000e+02,1.703711700000000064e+02
2.260000000000000000e+02,1.706678799999999967e+02
2.270000000000000000e+02,1.709639899999999955e+02
2.280000000000000000e+02,1.712595399999999870e+02
2.290000000000000000e+02,1.715544399999999996e+02
2.300000000000000000e+02,1.718486900000000048e+02
2.310000000000000000e+02,1.721423200000000122e+02
2.320000000000000000e+02,1.724352700000000027e+02
2.330000000000000000e+02,1.727278100000000052e+02
2.340000000000000000e+02,1.730195799999999906e+02
2.350000000000000000e+02,1.733107300000000066e+02
2.360000000000000000e+02,1.736012699999999995e+02
2.370000000000000000e+02,1.738913100000000043e+02
2.380000000000000000e+02,1.741805600000000140e+02
2.390000000000000000e+02,1.744692799999999977e+02
2.400000000000000000e+02,1.747573899999999867e+02
2.410000000000000000e+02,1.750449800000000096e+02
2.420000000000000000e+02,1.753318600000000060e+02
2.430000000000000000e+02,1.756180899999999951e+02
2.440000000000000000e+02,1.759037899999999865e+02
2.450000000000000000e+02,1.761889799999999866e+02
2.460000000000000000e+02,1.764734500000000139e+02
2.470000000000000000e+02,1.767572800000000086e+02
2.480000000000000000e+02,1.770406299999999931e+02
2.490000000000000000e+02,1.773233799999999860e+02
2.500000000000000000e+02,1.776054699999999968e+02
2.510000000000000000e+02,1.778870400000000132e+02
2.520000000000000000e+02,1.781679100000000062e+02
2.530000000000000000e+02,1.784482899999999859e+02
2.540000000000000000e+02,1.787280399999999929e+02
2.550000000000000000e+02,1.790072199999999896e+02
2.560000000000000000e+02,1.792857099999999946e+02
2.570000000000000000e+02,1.795637700000000052e+02
2.580000000000000000e+02,1.798412199999999928e+02
2.590000000000000000e+02,1.801179400000000044e+02
2.600000000000000000e+02,1.803942700000000059e+02
2.610000000000000000e+02,1.806699800000000096e+02
2.620000000000000000e+02,1.809450099999999964e+02
2.630000000000000000e+02,1.812195000000000107e+02
2.640000000000000000e+02,1.814934499999999957e+02
2.650000000000000000e+02,1.817668500000000051e+02
2.660000000000000000e+02,1.820396100000000104e+02
2.670000000000000000e+02,1.823118599999999958e+02
2.680000000000000000e+02,1.825835099999999898e+02
2.690000000000000000e+02,1.828545499999999890e+02
2.700000000000000000e+02,1.831250200000000063e+02
2.710000000000000000e+02,1.833950199999999882e+02
2.720000000000000000e+02,1.836643699999999910e+02
2.730000000000000000e+02,1.839331400000000087e+02
2.740000000000000000e+02,1.842014299999999878e+02
2.750000000000000000e+02,1.844690699999999879e+02
2.760000000000000000e+02,1.847361300000000028e+02
2.770000000000000000e+02,1.850026900000000012e+02
2.780000000000000000e+02,1.852687099999999987e+02
2.790000000000000000e+02,1.855340899999999920e+02
2.800000000000000000e+02,1.857989499999999907e+02
2.810000000000000000e+02,1.860633200000000045e+02
2.820000000000000000e+02,1.863270400000000109e+02
2.830000000000000000e+02,1.865902299999999912e+02
2.840000000000000000e+02,1.868529399999999896e+02
2.850000000000000000e+02,1.871149900000000059e+02
2.860000000000000000e+02,1.873764999999999930e+02
2.870000000000000000e+02,1.876375099999999918e+02
2.880000000000000000e+02,1.878979300000000023e+02
2.890000000000000000e+02,1.881577900000000056e+02
2.900000000000000000e+02,1.884171800000000019e+02
2.910000000000000000e+02,1.886759299999999939e+02
2.920000000000000000e+02,1.889341599999999914e+02
2.930000000000000000e+02,1.891918000000000006e+02
2.940000000000000000e+02,1.894489700000000028e+02
2.950000000000000000e+02,1.897056000000000040e+02
2.960000000000000000e+02,1.899616100000000074e+02
2.970000000000000000e+02,1.902171600000000069e+02
2.980000000000000000e+02,1.904721700000000055e+02
2.990000000000000000e+02,1.907265600000000063e+02
3.000000000000000000e+02,1.909805000000000064e+02
3.010000000000000000e+02,1.912338699999999960e+02
3.020000000000000000e+02,1.914866299999999910e+02
3.030000000000000000e+02,1.917390100000000075e+02
3.040000000000000000e+02,1.919907100000000071e+02
3.050000000000000000e+02,1.922418999999999869e+02
3.060000000000000000e+02,1.924926499999999976e+02
3.070000000000000000e+02,1.927427399999999977e+02
3.080000000000000000e+02,1.929924499999999910e+02
3.090000000000000000e+02,1.932415499999999895e+02
3.100000000000000000e+02,1.934900199999999870e+02
3.110000000000000000e+02,1.937381399999999871e+02
3.120000000000000000e+02,1.939856599999999958e+02
3.130000000000000000e+02,1.942325600000000065e+02
3.140000000000000000e+02,1.944791400000000010e+02
3.150000000000000000e+02,1.947249899999999911e+02
3.160000000000000000e+02,1.949703199999999867e+02
3.170000000000000000e+02,1.952153199999999913e+02
3.180000000000000000e+02,1.954596099999999979e+02
3.190000000000000000e+02,1.957034299999999973e+02
3.200000000000000000e+02,1.959468099999999993e+02
3.210000000000000000e+02,1.961895600000000002e+02
3.220000000000000000e+02,1.964318199999999877e+02
3.230000000000000000e+02,1.966736500000000092e+02
3.240000000000000000e+02,1.969148600000000044e+02
3.250000000000000000e+02,1.971556500000000085e+02
3.260000000000000000e+02,1.973958700000000022e+02
3.270000000000000000e+02,1.976355700000000013e+02
3.280000000000000000e+02,1.978747600000000091e+02
3.290000000000000000e+02,1.981134500000000003e+02
3.300000000000000000e+02,1.983516099999999938e+02
3.310000000000000000e+02,1.985892499999999927e+02
3.320000000000000000e+02,1.988264499999999941e+02
3.330000000000000000e+02,1.990630999999999915e+02
3.340000000000000000e+02,1.992992099999999880e+02
3.350000000000000000e+02,1.995348700000000122e+02
3.360000000000000000e+02,1.997699900000000071e+02
3.370000000000000000e+02,2.000046199999999885e+02
3.380000000000000000e+02,2.002386899999999912e+02
3.390000000000000000e+02,2.004723400000000026e+02
3.400000000000000000e+02,2.007054599999999880e+02
3.410000000000000000e+02,2.009380999999999915e+02
3.420000000000000000e+02,2.011702300000000037e+02
3.430000000000000000e+02,2.014017599999999959e+02
3.440000000000000000e+02,2.016330000000000098e+02
3.450000000000000000e+02,2.018635600000000068e+02
3.460000000000000000e+02,2.020936700000000030e+02
3.470000000000000000e+02,2.023233500000000049e+02
3.480000000000000000e+02,2.025524000000000058e+02
3.490000000000000000e+02,2.027810699999999997e+02
3.500000000000000000e+02,2.030091899999999896e+02
3.510000000000000000e+02,2.032368800000000135e+02
3.520000000000000000e+02,2.034640499999999861e+02
3.530000000000000000e+02,2.036906899999999894e+02
3.540000000000000000e+02,2.039169300000000078e+02
3.550000000000000000e+02,2.041425600000000031e+02
3.560000000000000000e+02,2.043678899999999885e+02
3.570000000000000000e+02,2.045925300000000107e+02
3.580000000000000000e+02,2.048167300000000068e+02
3.590000000000000000e+02,2.050405700000000024e+02
3.600000000000000000e+02,2.052637799999999970e+02
3.610000000000000000e+02,2.054866499999999974e+02
3.620000000000000000e+02,2.057089100000000030e+02
3.630000000000000000e+02,2.059307900000000018e+02
3.640000000000000000e+02,2.061520700000000090e+02
3.650000000000000000e+02,2.063729700000000093e+02
3.660000000000000000e+02,2.065933699999999931e+02
3.670000000000000000e+02,2.068132200000000012e+02
3.680000000000000000e+02,2.070327599999999961e+02
3.690000000000000000e+02,2.072516599999999869e+02
3.700000000000000000e+02,2.074701399999999865e+02
3.710000000000000000e+02,2.076881899999999916e+02
3.720000000000000000e+02,2.079057200000000023e+02
3.730000000000000000e+02,2.081227700000000027e+02
3.740000000000000000e+02,2.083394299999999930e+02
3.750000000000000000e+02,2.085555600000000140e+02
3.760000000000000000e+02,2.087711799999999869e+02
3.770000000000000000e+02,2.089863699999999938e+02
3.780000000000000000e+02,2.092010799999999904e+02
3.790000000000000000e+02,2.094153300000000115e+02
3.800000000000000000e+02,2.096291699999999878e+02
3.810000000000000000e+02,2.098425100000000043e+02
3.820000000000000000e+02,2.100553400000000011e+02
3.830000000000000000e+02,2.102677899999999909e+02
3.840000000000000000e+02,2.104797199999999862e+02
3.850000000000000000e+02,2.106912100000000123e+02
3.860000000000000000e+02,2.109021899999999903e+02
3.870000000000000000e+02,2.111128199999999993e+02
3.880000000000000000e+02,2.113228499999999883e+02
3.890000000000000000e+02,2.115325799999999958e+02
3.900000000000000000e+02,2.117417000000000087e+02
3.910000000000000000e+02,2.119504399999999862e+02
3.920000000000000000e+02,2.121587700000000041e+02
3.930000000000000000e+02,2.123665799999999990e+02
3.940000000000000000e+02,2.125739399999999932e+02
3.950000000000000000e+02,2.127809100000000058e+02
3.960000000000000000e+02,2.129873699999999985e+02
3.970000000000000000e+02,2.131932999999999936e+02
3.980000000000000000e+02,2.133989699999999914e+02
3.990000000000000000e+02,2.136040299999999945e+02
