# Time [s], Mass [Kg]
1.000000000000000000e+00,1.000000000000000000e+00
2.000000000000000000e+00,1.000000000000000000e+00
3.000000000000000000e+00,1.000000000000000000e+00
4.000000000000000000e+00,1.000000000000000000e+00
5.000000000000000000e+00,1.000000000000000000e+00
6.000000000000000000e+00,1.000000000000000000e+00
7.000000000000000000e+00,9.999999400000000316e-01
8.000000000000000000e+00,9.999997600000000153e-01
9.000000000000000000e+00,9.999987500000000473e-01
1.000000000000000000e+01,9.999948100000000117e-01
1.100000000000000000e+01,9.999816400000000050e-01
1.200000000000000000e+01,9.999459400000000331e-01
1.300000000000000000e+01,9.998629700000000176e-01
1.400000000000000000e+01,9.996918999999999667e-01
1.500000000000000000e+01,9.993727199999999922e-01
1.600000000000000000e+01,9.988313899999999856e-01
1.700000000000000000e+01,9.979965100000000033e-01
1.800000000000000000e+01,9.968268900000000210e-01
1.900000000000000000e+01,9.953321200000000424e-01
2.000000000000000000e+01,9.935749799999999965e-01
2.100000000000000000e+01,9.916577899999999834e-01
2.200000000000000000e+01,9.896998399999999974e-01
2.300000000000000000e+01,9.878357599999999517e-01
2.400000000000000000e+01,9.862050399999999772e-01
2.500000000000000000e+01,9.849147799999999897e-01
2.600000000000000000e+01,9.839708200000000238e-01
2.700000000000000000e+01,9.831473800000000152e-01
2.800000000000000000e+01,9.820609099999999536e-01
2.900000000000000000e+01,9.807174800000000303e-01
3.000000000000000000e+01,9.791838499999999668e-01
3.100000000000000000e+01,9.775304799999999794e-01
3.200000000000000000e+01,9.758405700000000182e-01
3.300000000000000000e+01,9.741917300000000335e-01
3.400000000000000000e+01,9.726578000000000168e-01
3.500000000000000000e+01,9.712961900000000037e-01
3.600000000000000000e+01,9.701337799999999456e-01
3.700000000000000000e+01,9.691438700000000184e-01
3.800000000000000000e+01,9.682289400000000379e-01
3.900000000000000000e+01,9.672532099999999744e-01
4.000000000000000000e+01,9.661270400000000480e-01
4.100000000000000000e+01,9.648678299999999819e-01
4.200000000000000000e+01,9.635134300000000040e-01
4.300000000000000000e+01,9.621060500000000459e-01
4.400000000000000000e+01,9.606898400000000171e-01
4.500000000000000000e+01,9.593071300000000079e-01
4.600000000000000000e+01,9.579942799999999758e-01
4.700000000000000000e+01,9.567787599999999504e-01
4.800000000000000000e+01,9.556726199999999727e-01
4.900000000000000000e+01,9.546669700000000036e-01
5.000000000000000000e+01,9.537276599999999771e-01
5.100000000000000000e+01,9.528014099999999598e-01
5.200000000000000000e+01,9.518338400000000421e-01
5.300000000000000000e+01,9.507921900000000370e-01
5.400000000000000000e+01,9.496748999999999885e-01
5.500000000000000000e+01,9.485002799999999734e-01
5.600000000000000000e+01,9.472917899999999669e-01
5.700000000000000000e+01,9.460731700000000188e-01
5.800000000000000000e+01,9.448674299999999526e-01
5.900000000000000000e+01,9.436949500000000324e-01
6.000000000000000000e+01,9.425716400000000439e-01
6.100000000000000000e+01,9.415071600000000096e-01
6.200000000000000000e+01,9.405028800000000411e-01
6.300000000000000000e+01,9.395501600000000231e-01
6.400000000000000000e+01,9.386305200000000237e-01
6.500000000000000000e+01,9.377188100000000137e-01
6.600000000000000000e+01,9.367895699999999604e-01
6.700000000000000000e+01,9.358237999999999834e-01
6.800000000000000000e+01,9.348143899999999951e-01
6.900000000000000000e+01,9.337651099999999538e-01
7.000000000000000000e+01,9.326867500000000089e-01
7.100000000000000000e+01,9.315931200000000523e-01
7.200000000000000000e+01,9.304978299999999702e-01
7.300000000000000000e+01,9.294133799999999557e-01
7.400000000000000000e+01,9.283505699999999861e-01
7.500000000000000000e+01,9.273171399999999842e-01
7.600000000000000000e+01,9.263173900000000183e-01
7.700000000000000000e+01,9.253506099999999623e-01
7.800000000000000000e+01,9.244115899999999497e-01
7.900000000000000000e+01,9.234905199999999814e-01
8.000000000000000000e+01,9.225744000000000167e-01
8.100000000000000000e+01,9.216495799999999683e-01
8.200000000000000000e+01,9.207046599999999525e-01
8.300000000000000000e+01,9.197328099999999562e-01
8.400000000000000000e+01,9.187330000000000219e-01
8.500000000000000000e+01,9.177092900000000109e-01
8.600000000000000000e+01,9.166685900000000053e-01
8.700000000000000000e+01,9.156195499999999488e-01
8.800000000000000000e+01,9.145704500000000348e-01
8.900000000000000000e+01,9.135288000000000297e-01
9.000000000000000000e+01,9.125005000000000477e-01
9.100000000000000000e+01,9.114891299999999807e-01
9.200000000000000000e+01,9.104958199999999557e-01
9.300000000000000000e+01,9.095187799999999712e-01
9.400000000000000000e+01,9.085536600000000407e-01
9.500000000000000000e+01,9.075937899999999559e-01
9.600000000000000000e+01,9.066308699999999776e-01
9.700000000000000000e+01,9.056571100000000429e-01
9.800000000000000000e+01,9.046660699999999888e-01
9.900000000000000000e+01,9.036541599999999841e-01
1.000000000000000000e+02,9.026209699999999669e-01
1.010000000000000000e+02,9.015692499999999887e-01
1.020000000000000000e+02,9.005036400000000496e-01
1.030000000000000000e+02,8.994297399999999776e-01
1.040000000000000000e+02,8.983531599999999839e-01
1.050000000000000000e+02,8.972786699999999449e-01
1.060000000000000000e+02,8.962097799999999559e-01
1.070000000000000000e+02,8.951482800000000184e-01
1.080000000000000000e+02,8.940938699999999573e-01
1.090000000000000000e+02,8.930443500000000423e-01
1.100000000000000000e+02,8.919959699999999714e-01
1.110000000000000000e+02,8.909435900000000075e-01
1.120000000000000000e+02,8.898817900000000058e-01
1.130000000000000000e+02,8.888056300000000132e-01
1.140000000000000000e+02,8.877116999999999924e-01
1.150000000000000000e+02,8.865985299999999958e-01
1.160000000000000000e+02,8.854667499999999691e-01
1.170000000000000000e+02,8.843188899999999686e-01
1.180000000000000000e+02,8.831584999999999575e-01
1.190000000000000000e+02,8.819896000000000402e-01
1.200000000000000000e+02,8.808155699999999921e-01
1.210000000000000000e+02,8.796389100000000516e-01
1.220000000000000000e+02,8.784607599999999517e-01
1.230000000000000000e+02,8.772807700000000430e-01
1.240000000000000000e+02,8.760971400000000520e-01
1.250000000000000000e+02,8.749067200000000266e-01
1.260000000000000000e+02,8.737057999999999769e-01
1.270000000000000000e+02,8.724904100000000495e-01
1.280000000000000000e+02,8.712572499999999831e-01
1.290000000000000000e+02,8.700040599999999680e-01
1.300000000000000000e+02,8.687301299999999893e-01
1.310000000000000000e+02,8.674361699999999509e-01
1.320000000000000000e+02,8.661240300000000447e-01
1.330000000000000000e+02,8.647960999999999565e-01
1.340000000000000000e+02,8.634547000000000194e-01
1.350000000000000000e+02,8.621014999999999651e-01
1.360000000000000000e+02,8.607371400000000117e-01
1.370000000000000000e+02,8.593611100000000391e-01
1.380000000000000000e+02,8.579718499999999803e-01
1.390000000000000000e+02,8.565667300000000539e-01
1.400000000000000000e+02,8.551428899999999889e-01
1.410000000000000000e+02,8.536974200000000401e-01
1.420000000000000000e+02,8.522279299999999669e-01
1.430000000000000000e+02,8.507331000000000198e-01
1.440000000000000000e+02,8.492125900000000449e-01
1.450000000000000000e+02,8.476669799999999588e-01
1.460000000000000000e+02,8.460977699999999713e-01
1.470000000000000000e+02,8.445062599999999531e-01
1.480000000000000000e+02,8.428938999999999737e-01
1.490000000000000000e+02,8.412610900000000447e-01
1.500000000000000000e+02,8.396078300000000549e-01
1.510000000000000000e+02,8.379331800000000552e-01
1.520000000000000000e+02,8.362357599999999946e-01
1.530000000000000000e+02,8.345141400000000154e-01
1.540000000000000000e+02,8.327669500000000058e-01
1.550000000000000000e+02,8.307949300000000425e-01
1.560000000000000000e+02,8.288810800000000478e-01
1.570000000000000000e+02,8.269910200000000211e-01
1.580000000000000000e+02,8.251110299999999675e-01
1.590000000000000000e+02,8.232328300000000265e-01
1.600000000000000000e+02,8.213503399999999566e-01
1.610000000000000000e+02,8.194591399999999748e-01
1.620000000000000000e+02,8.175564400000000509e-01
1.630000000000000000e+02,8.156408699999999623e-01
1.640000000000000000e+02,8.137123600000000234e-01
1.650000000000000000e+02,8.117719300000000304e-01
1.660000000000000000e+02,8.098208900000000154e-01
1.670000000000000000e+02,8.078609100000000431e-01
1.680000000000000000e+02,8.058934800000000509e-01
1.690000000000000000e+02,8.039200300000000077e-01
1.700000000000000000e+02,8.019419899999999934e-01
1.710000000000000000e+02,7.999607899999999772e-01
1.720000000000000000e+02,7.979781000000000235e-01
1.730000000000000000e+02,7.959958299999999598e-01
1.740000000000000000e+02,7.940161199999999919e-01
1.750000000000000000e+02,7.920409999999999950e-01
1.760000000000000000e+02,7.900727400000000511e-01
1.770000000000000000e+02,7.881131200000000003e-01
1.780000000000000000e+02,7.861639299999999553e-01
1.790000000000000000e+02,7.842265400000000275e-01
1.800000000000000000e+02,7.823023799999999639e-01
1.810000000000000000e+02,7.803927099999999895e-01
1.820000000000000000e+02,7.784988299999999750e-01
1.830000000000000000e+02,7.766220600000000029e-01
1.840000000000000000e+02,7.747638799999999604e-01
1.850000000000000000e+02,7.729257899999999459e-01
1.860000000000000000e+02,7.711091599999999602e-01
1.870000000000000000e+02,7.693153600000000036e-01
1.880000000000000000e+02,7.675456400000000290e-01
1.890000000000000000e+02,7.658010699999999726e-01
1.900000000000000000e+02,7.640828499999999801e-01
1.910000000000000000e+02,7.623920400000000486e-01
1.920000000000000000e+02,7.607299100000000092e-01
1.930000000000000000e+02,7.590977500000000155e-01
1.940000000000000000e+02,7.574970100000000262e-01
1.950000000000000000e+02,7.559292300000000075e-01
1.960000000000000000e+02,7.543959000000000081e-01
1.970000000000000000e+02,7.528988100000000294e-01
1.980000000000000000e+02,7.514395099999999772e-01
1.990000000000000000e+02,7.500199699999999803e-01
2.000000000000000000e+02,7.486419699999999899e-01
2.010000000000000000e+02,7.473077200000000087e-01
2.020000000000000000e+02,7.460194799999999571e-01
2.030000000000000000e+02,7.447798300000000316e-01
2.040000000000000000e+02,7.435914900000000216e-01
2.050000000000000000e+02,7.424573300000000264e-01
2.060000000000000000e+02,7.413805100000000481e-01
2.070000000000000000e+02,7.403643100000000254e-01
2.080000000000000000e+02,7.394121900000000247e-01
2.090000000000000000e+02,7.385277199999999986e-01
2.100000000000000000e+02,7.377145299999999795e-01
2.110000000000000000e+02,7.369762100000000205e-01
2.120000000000000000e+02,7.363161400000000079e-01
2.130000000000000000e+02,7.357370300000000141e-01
2.140000000000000000e+02,7.352408799999999856e-01
2.150000000000000000e+02,7.348281100000000343e-01
2.160000000000000000e+02,7.344973700000000383e-01
2.170000000000000000e+02,7.342446999999999724e-01
2.180000000000000000e+02,7.340631499999999976e-01
2.190000000000000000e+02,7.339426300000000403e-01
2.200000000000000000e+02,7.338703899999999836e-01
2.210000000000000000e+02,7.338325999999999460e-01
2.220000000000000000e+02,7.338160299999999525e-01
2.230000000000000000e+02,7.338103099999999657e-01
2.240000000000000000e+02,7.338089300000000259e-01
2.250000000000000000e+02,7.338086999999999804e-01
2.260000000000000000e+02,7.338086999999999804e-01
2.270000000000000000e+02,7.338086999999999804e-01
2.280000000000000000e+02,7.338086999999999804e-01
2.290000000000000000e+02,7.338086999999999804e-01
2.300000000000000000e+02,7.338086999999999804e-01
2.310000000000000000e+02,7.338086999999999804e-01
2.320000000000000000e+02,7.338086999999999804e-01
2.330000000000000000e+02,7.338086999999999804e-01
2.340000000000000000e+02,7.338086999999999804e-01
2.350000000000000000e+02,7.338086999999999804e-01
2.360000000000000000e+02,7.338086999999999804e-01
2.370000000000000000e+02,7.338086999999999804e-01
2.380000000000000000e+02,7.338086999999999804e-01
2.390000000000000000e+02,7.338086999999999804e-01
2.400000000000000000e+02,7.338086999999999804e-01
2.410000000000000000e+02,7.338086999999999804e-01
2.420000000000000000e+02,7.338086999999999804e-01
2.430000000000000000e+02,7.338086999999999804e-01
2.440000000000000000e+02,7.338086999999999804e-01
2.450000000000000000e+02,7.338086999999999804e-01
2.460000000000000000e+02,7.338086999999999804e-01
2.470000000000000000e+02,7.338086999999999804e-01
2.480000000000000000e+02,7.338086999999999804e-01
2.490000000000000000e+02,7.338086999999999804e-01
2.500000000000000000e+02,7.338086999999999804e-01
2.510000000000000000e+02,7.338086999999999804e-01
2.520000000000000000e+02,7.338086999999999804e-01
2.530000000000000000e+02,7.338086999999999804e-01
2.540000000000000000e+02,7.338086999999999804e-01
2.550000000000000000e+02,7.338086999999999804e-01
2.560000000000000000e+02,7.338086999999999804e-01
2.570000000000000000e+02,7.338086999999999804e-01
2.580000000000000000e+02,7.338086999999999804e-01
2.590000000000000000e+02,7.338086999999999804e-01
2.600000000000000000e+02,7.338086999999999804e-01
2.610000000000000000e+02,7.338086999999999804e-01
2.620000000000000000e+02,7.338086999999999804e-01
2.630000000000000000e+02,7.338086999999999804e-01
2.640000000000000000e+02,7.338086999999999804e-01
2.650000000000000000e+02,7.338086999999999804e-01
2.660000000000000000e+02,7.338086999999999804e-01
2.670000000000000000e+02,7.338086999999999804e-01
2.680000000000000000e+02,7.338086999999999804e-01
2.690000000000000000e+02,7.338086999999999804e-01
2.700000000000000000e+02,7.338086999999999804e-01
2.710000000000000000e+02,7.338086999999999804e-01
2.720000000000000000e+02,7.338086999999999804e-01
2.730000000000000000e+02,7.338086999999999804e-01
2.740000000000000000e+02,7.338086999999999804e-01
2.750000000000000000e+02,7.338086999999999804e-01
2.760000000000000000e+02,7.338086999999999804e-01
2.770000000000000000e+02,7.338086999999999804e-01
2.780000000000000000e+02,7.338086999999999804e-01
2.790000000000000000e+02,7.338086999999999804e-01
2.800000000000000000e+02,7.338086999999999804e-01
2.810000000000000000e+02,7.338086999999999804e-01
2.820000000000000000e+02,7.338086999999999804e-01
2.830000000000000000e+02,7.338086999999999804e-01
2.840000000000000000e+02,7.338086999999999804e-01
2.850000000000000000e+02,7.338086999999999804e-01
2.860000000000000000e+02,7.338086999999999804e-01
2.870000000000000000e+02,7.338086999999999804e-01
2.880000000000000000e+02,7.338086999999999804e-01
2.890000000000000000e+02,7.338086999999999804e-01
2.900000000000000000e+02,7.338086999999999804e-01
2.910000000000000000e+02,7.338086999999999804e-01
2.920000000000000000e+02,7.338086999999999804e-01
2.930000000000000000e+02,7.338086999999999804e-01
2.940000000000000000e+02,7.338086999999999804e-01
2.950000000000000000e+02,7.338086999999999804e-01
2.960000000000000000e+02,7.338086999999999804e-01
2.970000000000000000e+02,7.338086999999999804e-01
2.980000000000000000e+02,7.338086999999999804e-01
2.990000000000000000e+02,7.338086999999999804e-01
3.000000000000000000e+02,7.338086999999999804e-01
3.010000000000000000e+02,7.338086999999999804e-01
3.020000000000000000e+02,7.338086999999999804e-01
3.030000000000000000e+02,7.338086999999999804e-01
3.040000000000000000e+02,7.338086999999999804e-01
3.050000000000000000e+02,7.338086999999999804e-01
3.060000000000000000e+02,7.338086999999999804e-01
3.070000000000000000e+02,7.338086999999999804e-01
3.080000000000000000e+02,7.338086999999999804e-01
3.090000000000000000e+02,7.338086999999999804e-01
3.100000000000000000e+02,7.338086999999999804e-01
3.110000000000000000e+02,7.338086999999999804e-01
3.120000000000000000e+02,7.338086999999999804e-01
3.130000000000000000e+02,7.338086999999999804e-01
3.140000000000000000e+02,7.338086999999999804e-01
3.150000000000000000e+02,7.338086999999999804e-01
3.160000000000000000e+02,7.338086999999999804e-01
3.170000000000000000e+02,7.338086999999999804e-01
3.180000000000000000e+02,7.338086999999999804e-01
3.190000000000000000e+02,7.338086999999999804e-01
3.200000000000000000e+02,7.338086999999999804e-01
3.210000000000000000e+02,7.338086999999999804e-01
3.220000000000000000e+02,7.338086999999999804e-01
3.230000000000000000e+02,7.338086999999999804e-01
3.240000000000000000e+02,7.338086999999999804e-01
3.250000000000000000e+02,7.338086999999999804e-01
3.260000000000000000e+02,7.338086999999999804e-01
3.270000000000000000e+02,7.338086999999999804e-01
3.280000000000000000e+02,7.338086999999999804e-01
3.290000000000000000e+02,7.338086999999999804e-01
3.300000000000000000e+02,7.338086999999999804e-01
3.310000000000000000e+02,7.338086999999999804e-01
3.320000000000000000e+02,7.338086999999999804e-01
3.330000000000000000e+02,7.338086999999999804e-01
3.340000000000000000e+02,7.338086999999999804e-01
3.350000000000000000e+02,7.338086999999999804e-01
3.360000000000000000e+02,7.338086999999999804e-01
3.370000000000000000e+02,7.338086999999999804e-01
3.380000000000000000e+02,7.338086999999999804e-01
3.390000000000000000e+02,7.338086999999999804e-01
3.400000000000000000e+02,7.338086999999999804e-01
3.410000000000000000e+02,7.338086999999999804e-01
3.420000000000000000e+02,7.338086999999999804e-01
3.430000000000000000e+02,7.338086999999999804e-01
3.440000000000000000e+02,7.338086999999999804e-01
3.450000000000000000e+02,7.338086999999999804e-01
3.460000000000000000e+02,7.338086999999999804e-01
3.470000000000000000e+02,7.338086999999999804e-01
3.480000000000000000e+02,7.338086999999999804e-01
3.490000000000000000e+02,7.338086999999999804e-01
3.500000000000000000e+02,7.338086999999999804e-01
3.510000000000000000e+02,7.338086999999999804e-01
3.520000000000000000e+02,7.338086999999999804e-01
3.530000000000000000e+02,7.338086999999999804e-01
3.540000000000000000e+02,7.338086999999999804e-01
3.550000000000000000e+02,7.338086999999999804e-01
3.560000000000000000e+02,7.338086999999999804e-01
3.570000000000000000e+02,7.338086999999999804e-01
3.580000000000000000e+02,7.338086999999999804e-01
3.590000000000000000e+02,7.338086999999999804e-01
3.600000000000000000e+02,7.338086999999999804e-01
3.610000000000000000e+02,7.338086999999999804e-01
3.620000000000000000e+02,7.338086999999999804e-01
3.630000000000000000e+02,7.338086999999999804e-01
3.640000000000000000e+02,7.338086999999999804e-01
3.650000000000000000e+02,7.338086999999999804e-01
3.660000000000000000e+02,7.338086999999999804e-01
3.670000000000000000e+02,7.338086999999999804e-01
3.680000000000000000e+02,7.338086999999999804e-01
3.690000000000000000e+02,7.338086999999999804e-01
3.700000000000000000e+02,7.338086999999999804e-01
3.710000000000000000e+02,7.338086999999999804e-01
3.720000000000000000e+02,7.338086999999999804e-01
3.730000000000000000e+02,7.338086999999999804e-01
3.740000000000000000e+02,7.338086999999999804e-01
3.750000000000000000e+02,7.338086999999999804e-01
3.760000000000000000e+02,7.338086999999999804e-01
3.770000000000000000e+02,7.338086999999999804e-01
3.780000000000000000e+02,7.338086999999999804e-01
3.790000000000000000e+02,7.338086999999999804e-01
3.800000000000000000e+02,7.338086999999999804e-01
3.810000000000000000e+02,7.338086999999999804e-01
3.820000000000000000e+02,7.338086999999999804e-01
3.830000000000000000e+02,7.338086999999999804e-01
3.840000000000000000e+02,7.338086999999999804e-01
3.850000000000000000e+02,7.338086999999999804e-01
3.860000000000000000e+02,7.338086999999999804e-01
3.870000000000000000e+02,7.338086999999999804e-01
3.880000000000000000e+02,7.338086999999999804e-01
3.890000000000000000e+02,7.338086999999999804e-01
3.900000000000000000e+02,7.338086999999999804e-01
3.910000000000000000e+02,7.338086999999999804e-01
3.920000000000000000e+02,7.338086999999999804e-01
3.930000000000000000e+02,7.338086999999999804e-01
3.940000000000000000e+02,7.338086999999999804e-01
3.950000000000000000e+02,7.338086999999999804e-01
3.960000000000000000e+02,7.338086999999999804e-01
3.970000000000000000e+02,7.338086999999999804e-01
3.980000000000000000e+02,7.338086999999999804e-01
3.990000000000000000e+02,7.338086999999999804e-01
