# Time [s], Convective Heat Transfer Coefficient [W/m2K]
1.000000000000000000e+00,0.000000000000000000e+00
2.000000000000000000e+00,0.000000000000000000e+00
3.000000000000000000e+00,0.000000000000000000e+00
4.000000000000000000e+00,0.000000000000000000e+00
5.000000000000000000e+00,0.000000000000000000e+00
6.000000000000000000e+00,2.412849599104084641e-02
7.000000000000000000e+00,4.055970506183135399e-02
8.000000000000000000e+00,6.294042979074807032e-02
9.000000000000000000e+00,9.063352575787672616e-02
1.000000000000000000e+01,1.250629454923099793e-01
1.100000000000000000e+01,1.661041278275619537e-01
1.200000000000000000e+01,2.135470343314782860e-01
1.300000000000000000e+01,2.667855959292853019e-01
1.400000000000000000e+01,3.252761940917673344e-01
1.500000000000000000e+01,3.883359080646589523e-01
1.600000000000000000e+01,4.553234411428765949e-01
1.700000000000000000e+01,5.256077463032521324e-01
1.800000000000000000e+01,5.986122970604860205e-01
1.900000000000000000e+01,6.738132909149332495e-01
2.000000000000000000e+01,7.507454715910863996e-01
2.100000000000000000e+01,8.290006473454253344e-01
2.200000000000000000e+01,9.082280506966726730e-01
2.300000000000000000e+01,9.881199065517403124e-01
2.400000000000000000e+01,1.068415501073694207e+00
2.500000000000000000e+01,1.148895480150052162e+00
2.600000000000000000e+01,1.229361641944482386e+00
2.700000000000000000e+01,1.309657464819826700e+00
2.800000000000000000e+01,1.389646262667519672e+00
2.900000000000000000e+01,1.469214961001672259e+00
3.000000000000000000e+01,1.548266474576497798e+00
3.100000000000000000e+01,1.626723876455467011e+00
3.200000000000000000e+01,1.704517496903659390e+00
3.300000000000000000e+01,1.781594744485436310e+00
3.400000000000000000e+01,1.857914199740086314e+00
3.500000000000000000e+01,1.933441049667823819e+00
3.600000000000000000e+01,2.008144075798383721e+00
3.700000000000000000e+01,2.082005260216118980e+00
3.800000000000000000e+01,2.155009780561586652e+00
3.900000000000000000e+01,2.227144466352416252e+00
4.000000000000000000e+01,2.298404937445543972e+00
4.100000000000000000e+01,2.368787465155215433e+00
4.200000000000000000e+01,2.438290724505709495e+00
4.300000000000000000e+01,2.506916782296751744e+00
4.400000000000000000e+01,2.574671396403982904e+00
4.500000000000000000e+01,2.641559831771195910e+00
4.600000000000000000e+01,2.707590085735517516e+00
4.700000000000000000e+01,2.772771114655615765e+00
4.800000000000000000e+01,2.837111089168358191e+00
4.900000000000000000e+01,2.900619583386407463e+00
5.000000000000000000e+01,2.963309626631628113e+00
5.100000000000000000e+01,3.025191454602721652e+00
5.200000000000000000e+01,3.086278291677359231e+00
5.300000000000000000e+01,3.146583150361518921e+00
5.400000000000000000e+01,3.206115764465841345e+00
5.500000000000000000e+01,3.264889411552271081e+00
5.600000000000000000e+01,3.322918170441741648e+00
5.700000000000000000e+01,3.380213294522003142e+00
5.800000000000000000e+01,3.436785849871287102e+00
5.900000000000000000e+01,3.492651164929830632e+00
6.000000000000000000e+01,3.547819441145673380e+00
6.100000000000000000e+01,3.602304020421089881e+00
6.200000000000000000e+01,3.656115866071141252e+00
6.300000000000000000e+01,3.709267324432574675e+00
6.400000000000000000e+01,3.761769393339768897e+00
6.500000000000000000e+01,3.813634184414015582e+00
6.600000000000000000e+01,3.864873787053750842e+00
6.700000000000000000e+01,3.915496561077750570e+00
6.800000000000000000e+01,3.965515230267827818e+00
6.900000000000000000e+01,4.014940429104436603e+00
7.000000000000000000e+01,4.063780350560747046e+00
7.100000000000000000e+01,4.112045845532450450e+00
7.200000000000000000e+01,4.159747452439717108e+00
7.300000000000000000e+01,4.206893222771575402e+00
7.400000000000000000e+01,4.253494014530269318e+00
7.500000000000000000e+01,4.299557408210889164e+00
7.600000000000000000e+01,4.345092740409210563e+00
7.700000000000000000e+01,4.390108233053864772e+00
7.800000000000000000e+01,4.434611563663118261e+00
7.900000000000000000e+01,4.478609727421174469e+00
8.000000000000000000e+01,4.522111549069003367e+00
8.100000000000000000e+01,4.565125362946226062e+00
8.200000000000000000e+01,4.607657336570750495e+00
8.300000000000000000e+01,4.649714686566320587e+00
8.400000000000000000e+01,4.691304138841004168e+00
8.500000000000000000e+01,4.732432327076043777e+00
8.600000000000000000e+01,4.773105637181566330e+00
8.700000000000000000e+01,4.813330320465950329e+00
8.800000000000000000e+01,4.853112347616548305e+00
8.900000000000000000e+01,4.892457472774525584e+00
9.000000000000000000e+01,4.931371628820058639e+00
9.100000000000000000e+01,4.969860528069276029e+00
9.200000000000000000e+01,5.007929719905026111e+00
9.300000000000000000e+01,5.045584137713460926e+00
9.400000000000000000e+01,5.082829271641030822e+00
9.500000000000000000e+01,5.119670185935875750e+00
9.600000000000000000e+01,5.156111852989481825e+00
9.700000000000000000e+01,5.192159025406877682e+00
9.800000000000000000e+01,5.227816418561123335e+00
9.900000000000000000e+01,5.263088709578802593e+00
1.000000000000000000e+02,5.297980995394072856e+00
1.010000000000000000e+02,5.332497239546000856e+00
1.020000000000000000e+02,5.366643024179605703e+00
1.030000000000000000e+02,5.400424081631080675e+00
1.040000000000000000e+02,5.433842437930664460e+00
1.050000000000000000e+02,5.466902549231995145e+00
1.060000000000000000e+02,5.499609219369971491e+00
1.070000000000000000e+02,5.531966736405886209e+00
1.080000000000000000e+02,5.563979203466741019e+00
1.090000000000000000e+02,5.595651183384370952e+00
1.100000000000000000e+02,5.626987523990363727e+00
1.110000000000000000e+02,5.657992061833474473e+00
1.120000000000000000e+02,5.688669846400190799e+00
1.130000000000000000e+02,5.719025213826872900e+00
1.140000000000000000e+02,5.749060371780234213e+00
1.150000000000000000e+02,5.778779819834146458e+00
1.160000000000000000e+02,5.808188254328559452e+00
1.170000000000000000e+02,5.837290043129780059e+00
1.180000000000000000e+02,5.866088969648013851e+00
1.190000000000000000e+02,5.894589608629868138e+00
1.200000000000000000e+02,5.922796120391501162e+00
1.210000000000000000e+02,5.950713063880353815e+00
1.220000000000000000e+02,5.978345280180034749e+00
1.230000000000000000e+02,6.005695153887097959e+00
1.240000000000000000e+02,6.032766744293994066e+00
1.250000000000000000e+02,6.059564467603197002e+00
1.260000000000000000e+02,6.086091817636582135e+00
1.270000000000000000e+02,6.112353317248837570e+00
1.280000000000000000e+02,6.138352673118023795e+00
1.290000000000000000e+02,6.164094166078394110e+00
1.300000000000000000e+02,6.189581161268351117e+00
1.310000000000000000e+02,6.214817418871960264e+00
1.320000000000000000e+02,6.239807259043395504e+00
1.330000000000000000e+02,6.264553691014753234e+00
1.340000000000000000e+02,6.289060773422933792e+00
1.350000000000000000e+02,6.313332164591390239e+00
1.360000000000000000e+02,6.337370963570907456e+00
1.370000000000000000e+02,6.361179789506835824e+00
1.380000000000000000e+02,6.384762436527941176e+00
1.390000000000000000e+02,6.408122092300573058e+00
1.400000000000000000e+02,6.431261841685879332e+00
1.410000000000000000e+02,6.454184474182661724e+00
1.420000000000000000e+02,6.476892969128311250e+00
1.430000000000000000e+02,6.499390129269836613e+00
1.440000000000000000e+02,6.521678394609211615e+00
1.450000000000000000e+02,6.543761221911468695e+00
1.460000000000000000e+02,6.565640064090016104e+00
1.470000000000000000e+02,6.587318483291591420e+00
1.480000000000000000e+02,6.608798330147312328e+00
1.490000000000000000e+02,6.630082196105264281e+00
1.500000000000000000e+02,6.651172860885397498e+00
1.510000000000000000e+02,6.672072498143539754e+00
1.520000000000000000e+02,6.692783217374617344e+00
1.530000000000000000e+02,6.713307325906920475e+00
1.540000000000000000e+02,6.733646806877046309e+00
1.550000000000000000e+02,6.753804355790534508e+00
1.560000000000000000e+02,6.773781318832509335e+00
1.570000000000000000e+02,6.793580269023077101e+00
1.580000000000000000e+02,6.813203205747253577e+00
1.590000000000000000e+02,6.832651822296652355e+00
1.600000000000000000e+02,6.851927764106031660e+00
1.610000000000000000e+02,6.871033622090819470e+00
1.620000000000000000e+02,6.889970687587866571e+00
1.630000000000000000e+02,6.908740950148134274e+00
1.640000000000000000e+02,6.927345615289493885e+00
1.650000000000000000e+02,6.945786824114024149e+00
1.660000000000000000e+02,6.964065456533539589e+00
1.670000000000000000e+02,6.982183565538724324e+00
1.680000000000000000e+02,7.000142436024139769e+00
1.690000000000000000e+02,7.017943079976675769e+00
1.700000000000000000e+02,7.035587662372384976e+00
1.710000000000000000e+02,7.053077354827977707e+00
1.720000000000000000e+02,7.070413062839510765e+00
1.730000000000000000e+02,7.087596597491279127e+00
1.740000000000000000e+02,7.104628798499538433e+00
1.750000000000000000e+02,7.121510480797075715e+00
1.760000000000000000e+02,7.138243354081763137e+00
1.770000000000000000e+02,7.154829087442585056e+00
1.780000000000000000e+02,7.171268172472452740e+00
1.790000000000000000e+02,7.187561762967090040e+00
1.800000000000000000e+02,7.203711208884665318e+00
1.810000000000000000e+02,7.219716929252815163e+00
1.820000000000000000e+02,7.235581115908080285e+00
1.830000000000000000e+02,7.251303465127870496e+00
1.840000000000000000e+02,7.266885886678711159e+00
1.850000000000000000e+02,7.282328704186539881e+00
1.860000000000000000e+02,7.297633106647068324e+00
1.870000000000000000e+02,7.312800254830133184e+00
1.880000000000000000e+02,7.327830628033622062e+00
1.890000000000000000e+02,7.342725340771930398e+00
1.900000000000000000e+02,7.357484616296526170e+00
1.910000000000000000e+02,7.372109742937109189e+00
1.920000000000000000e+02,7.386601336775457938e+00
1.930000000000000000e+02,7.400959782323307756e+00
1.940000000000000000e+02,7.415186727258462618e+00
1.950000000000000000e+02,7.429281452958852228e+00
1.960000000000000000e+02,7.443245567624284575e+00
1.970000000000000000e+02,7.457079594665231070e+00
1.980000000000000000e+02,7.470783202641071874e+00
1.990000000000000000e+02,7.484358564417530779e+00
2.000000000000000000e+02,7.497805106355178495e+00
2.010000000000000000e+02,7.511123707271581296e+00
2.020000000000000000e+02,7.524315018609933681e+00
2.030000000000000000e+02,7.537379262455464080e+00
2.040000000000000000e+02,7.550317265666099509e+00
2.050000000000000000e+02,7.563129835644430088e+00
2.060000000000000000e+02,7.575817148893710495e+00
2.070000000000000000e+02,7.588379778007876553e+00
2.080000000000000000e+02,7.600817874647859185e+00
2.090000000000000000e+02,7.613132590175928804e+00
2.100000000000000000e+02,7.625323643754189362e+00
2.110000000000000000e+02,7.637392154791200483e+00
2.120000000000000000e+02,7.649338220192230864e+00
2.130000000000000000e+02,7.661162525886116015e+00
2.140000000000000000e+02,7.672865144769178691e+00
2.150000000000000000e+02,7.684446933690328940e+00
2.160000000000000000e+02,7.695907940542656256e+00
2.170000000000000000e+02,7.707249189891888008e+00
2.180000000000000000e+02,7.718470703786891818e+00
2.190000000000000000e+02,7.729573279699817334e+00
2.200000000000000000e+02,7.740557111843749283e+00
2.210000000000000000e+02,7.751422773885210837e+00
2.220000000000000000e+02,7.762170242234554429e+00
2.230000000000000000e+02,7.772800841841516650e+00
2.240000000000000000e+02,7.783315102353368431e+00
2.250000000000000000e+02,7.793712576275917847e+00
2.260000000000000000e+02,7.803994735054577525e+00
2.270000000000000000e+02,7.814161493158841232e+00
2.280000000000000000e+02,7.824213905435254190e+00
2.290000000000000000e+02,7.834152435966735162e+00
2.300000000000000000e+02,7.843978107207066230e+00
2.310000000000000000e+02,7.853690405501158267e+00
2.320000000000000000e+02,7.863291275787715584e+00
2.330000000000000000e+02,7.872780559015749802e+00
2.340000000000000000e+02,7.882159597512195859e+00
2.350000000000000000e+02,7.891428397648887483e+00
2.360000000000000000e+02,7.900588458681591320e+00
2.370000000000000000e+02,7.909640323199830902e+00
2.380000000000000000e+02,7.918584708367116143e+00
2.390000000000000000e+02,7.927422317787611306e+00
2.400000000000000000e+02,7.936154399365546119e+00
2.410000000000000000e+02,7.944781997688965980e+00
2.420000000000000000e+02,7.953305401278298881e+00
2.430000000000000000e+02,7.961725997476552408e+00
2.440000000000000000e+02,7.970045155307555973e+00
2.450000000000000000e+02,7.978263306423191814e+00
2.460000000000000000e+02,7.986381790212636389e+00
2.470000000000000000e+02,7.994401745784194269e+00
2.480000000000000000e+02,8.002324479813784919e+00
2.490000000000000000e+02,8.010151282684176977e+00
2.500000000000000000e+02,8.017882882621035989e+00
2.510000000000000000e+02,8.025521268740963166e+00
2.520000000000000000e+02,8.033066958280235426e+00
2.530000000000000000e+02,8.040522088776823395e+00
2.540000000000000000e+02,8.047887511546504058e+00
2.550000000000000000e+02,8.055164788218958094e+00
2.560000000000000000e+02,8.062355644287864109e+00
2.570000000000000000e+02,8.069461428640991585e+00
2.580000000000000000e+02,8.076483296605401208e+00
2.590000000000000000e+02,8.083423465901409699e+00
2.600000000000000000e+02,8.090282882823624178e+00
2.610000000000000000e+02,8.097063554392921247e+00
2.620000000000000000e+02,8.103767291972639342e+00
2.630000000000000000e+02,8.110395357281783291e+00
2.640000000000000000e+02,8.116949888519648937e+00
2.650000000000000000e+02,8.123432119668645868e+00
2.660000000000000000e+02,8.129844159068571940e+00
2.670000000000000000e+02,8.136187744945925004e+00
2.680000000000000000e+02,8.142464778270039005e+00
2.690000000000000000e+02,8.148676969180311147e+00
2.700000000000000000e+02,8.154825662667827046e+00
2.710000000000000000e+02,8.160913423417962775e+00
2.720000000000000000e+02,8.166941745421164356e+00
2.730000000000000000e+02,8.172912812619763656e+00
2.740000000000000000e+02,8.178828444134316200e+00
2.750000000000000000e+02,8.184690796123589962e+00
2.760000000000000000e+02,8.190501312625908525e+00
2.770000000000000000e+02,8.196262299076023439e+00
2.780000000000000000e+02,8.201975350381854213e+00
2.790000000000000000e+02,8.207642919993972441e+00
2.800000000000000000e+02,8.213266578878748447e+00
2.810000000000000000e+02,8.218848581406332343e+00
2.820000000000000000e+02,8.224390995581805086e+00
2.830000000000000000e+02,8.229895013165450024e+00
2.840000000000000000e+02,8.235363199476518403e+00
2.850000000000000000e+02,8.240797415950744664e+00
2.860000000000000000e+02,8.246199685679481917e+00
2.870000000000000000e+02,8.251572192487643065e+00
2.880000000000000000e+02,8.256916764921335528e+00
2.890000000000000000e+02,8.262234878665140059e+00
2.900000000000000000e+02,8.267528857729043779e+00
2.910000000000000000e+02,8.272800842866953275e+00
2.920000000000000000e+02,8.278052792847601538e+00
2.930000000000000000e+02,8.283286144473983370e+00
2.940000000000000000e+02,8.288503008707325037e+00
2.950000000000000000e+02,8.293705655945389665e+00
2.960000000000000000e+02,8.298895495274752676e+00
2.970000000000000000e+02,8.304074607705304700e+00
2.980000000000000000e+02,8.309244894293033923e+00
2.990000000000000000e+02,8.314408077289291654e+00
3.000000000000000000e+02,8.319566377770666321e+00
3.010000000000000000e+02,8.324721330153412424e+00
3.020000000000000000e+02,8.329875136098054966e+00
3.030000000000000000e+02,8.335028806902373688e+00
3.040000000000000000e+02,8.340184863481049149e+00
3.050000000000000000e+02,8.345344973881044126e+00
3.060000000000000000e+02,8.350511301507662409e+00
3.070000000000000000e+02,8.355685160696825875e+00
3.080000000000000000e+02,8.360868026673260900e+00
3.090000000000000000e+02,8.366062203518119134e+00
3.100000000000000000e+02,8.371269148544890015e+00
3.110000000000000000e+02,8.376491312667299738e+00
3.120000000000000000e+02,8.381729634746363899e+00
3.130000000000000000e+02,8.386986213621939967e+00
3.140000000000000000e+02,8.392262472492420855e+00
3.150000000000000000e+02,8.397560325049562735e+00
3.160000000000000000e+02,8.402881674928574185e+00
3.170000000000000000e+02,8.408228250076016153e+00
3.180000000000000000e+02,8.413601438378737640e+00
3.190000000000000000e+02,8.419003280644510312e+00
3.200000000000000000e+02,8.424435641587177059e+00
3.210000000000000000e+02,8.429899551897815257e+00
3.220000000000000000e+02,8.435397516694679965e+00
3.230000000000000000e+02,8.440931041322709660e+00
3.240000000000000000e+02,8.446501294033266660e+00
3.250000000000000000e+02,8.452110582836475317e+00
3.260000000000000000e+02,8.457761038626692596e+00
3.270000000000000000e+02,8.463453962437224476e+00
3.280000000000000000e+02,8.469190810037586559e+00
3.290000000000000000e+02,8.474974005627007756e+00
3.300000000000000000e+02,8.480805307453749720e+00
3.310000000000000000e+02,8.486685974659668119e+00
3.320000000000000000e+02,8.492618393569529189e+00
3.330000000000000000e+02,8.498604286771698213e+00
3.340000000000000000e+02,8.504645041193358068e+00
3.350000000000000000e+02,8.510743487996556667e+00
3.360000000000000000e+02,8.516901309879399307e+00
3.370000000000000000e+02,8.523120177027832867e+00
3.380000000000000000e+02,8.529402229661968704e+00
3.390000000000000000e+02,8.535749431605864856e+00
3.400000000000000000e+02,8.542164533810058913e+00
3.410000000000000000e+02,8.548649145859251064e+00
3.420000000000000000e+02,8.555205503534375922e+00
3.430000000000000000e+02,8.561835345845352663e+00
3.440000000000000000e+02,8.568542150649351541e+00
3.450000000000000000e+02,8.575327459256802953e+00
3.460000000000000000e+02,8.582193275214342165e+00
3.470000000000000000e+02,8.589142853624242235e+00
3.480000000000000000e+02,8.596178631076632826e+00
3.490000000000000000e+02,8.603302706178553194e+00
3.500000000000000000e+02,8.610517789168852687e+00
3.510000000000000000e+02,8.617826250521821052e+00
3.520000000000000000e+02,8.625232483477592638e+00
3.530000000000000000e+02,8.632737859424034710e+00
3.540000000000000000e+02,8.640345614203942759e+00
3.550000000000000000e+02,8.648059578963943395e+00
3.560000000000000000e+02,8.655882299061367746e+00
3.570000000000000000e+02,8.663816916209153618e+00
3.580000000000000000e+02,8.671866850894289769e+00
3.590000000000000000e+02,8.680036420321888713e+00
3.600000000000000000e+02,8.688328502739665282e+00
3.610000000000000000e+02,8.696746716856280202e+00
3.620000000000000000e+02,8.705295722593177743e+00
3.630000000000000000e+02,8.713978742945442946e+00
3.640000000000000000e+02,8.722800653940383953e+00
3.650000000000000000e+02,8.731765356468683237e+00
3.660000000000000000e+02,8.740877316847358358e+00
3.670000000000000000e+02,8.750142018064707372e+00
3.680000000000000000e+02,8.759563506172710845e+00
3.690000000000000000e+02,8.769147143940083211e+00
3.700000000000000000e+02,8.778898075690463543e+00
3.710000000000000000e+02,8.788820772890796107e+00
3.720000000000000000e+02,8.798922819644227289e+00
3.730000000000000000e+02,8.809209594747322569e+00
3.740000000000000000e+02,8.819687304176099474e+00
3.750000000000000000e+02,8.830361617408353681e+00
3.760000000000000000e+02,8.841240216824484577e+00
3.770000000000000000e+02,8.852329035119769429e+00
3.780000000000000000e+02,8.863636296597533715e+00
3.790000000000000000e+02,8.875169066101628701e+00
3.800000000000000000e+02,8.886935038407475673e+00
3.810000000000000000e+02,8.898942377817554927e+00
3.820000000000000000e+02,8.911199854522967811e+00
3.830000000000000000e+02,8.923716537066777477e+00
3.840000000000000000e+02,8.936502075631569397e+00
3.850000000000000000e+02,8.949565518330187430e+00
3.860000000000000000e+02,8.962916187847801197e+00
3.870000000000000000e+02,8.976564833022116829e+00
3.880000000000000000e+02,8.990523889505308119e+00
3.890000000000000000e+02,9.004803258286862899e+00
3.900000000000000000e+02,9.019415229426163805e+00
3.910000000000000000e+02,9.034371422541973118e+00
3.920000000000000000e+02,9.049682215982514322e+00
3.930000000000000000e+02,9.065363737713756365e+00
3.940000000000000000e+02,9.081428102384375478e+00
3.950000000000000000e+02,9.097888418639433539e+00
3.960000000000000000e+02,9.114758477013895188e+00
3.970000000000000000e+02,9.132052583347777031e+00
3.980000000000000000e+02,9.149784835191127286e+00
