# Time [s], Mass [Kg]
1.000000000000000000e+00,1.000000000000000000e+00
2.000000000000000000e+00,1.000000000000000000e+00
3.000000000000000000e+00,1.000000000000000000e+00
4.000000000000000000e+00,1.000000000000000000e+00
5.000000000000000000e+00,1.000000000000000000e+00
6.000000000000000000e+00,1.000000000000000000e+00
7.000000000000000000e+00,1.000000000000000000e+00
8.000000000000000000e+00,1.000000000000000000e+00
9.000000000000000000e+00,1.000000000000000000e+00
1.000000000000000000e+01,1.000000000000000000e+00
1.100000000000000000e+01,1.000000000000000000e+00
1.200000000000000000e+01,1.000000000000000000e+00
1.300000000000000000e+01,1.000000000000000000e+00
1.400000000000000000e+01,9.999999400000000316e-01
1.500000000000000000e+01,9.999998799999999521e-01
1.600000000000000000e+01,9.999998199999999837e-01
1.700000000000000000e+01,9.999996399999999674e-01
1.800000000000000000e+01,9.999992800000000459e-01
1.900000000000000000e+01,9.999987500000000473e-01
2.000000000000000000e+01,9.999979100000000454e-01
2.100000000000000000e+01,9.999964799999999654e-01
2.200000000000000000e+01,9.999943399999999816e-01
2.300000000000000000e+01,9.999911200000000111e-01
2.400000000000000000e+01,9.999864699999999607e-01
2.500000000000000000e+01,9.999797900000000350e-01
2.600000000000000000e+01,9.999704999999999844e-01
2.700000000000000000e+01,9.999578599999999762e-01
2.800000000000000000e+01,9.999408699999999817e-01
2.900000000000000000e+01,9.999185200000000329e-01
3.000000000000000000e+01,9.998894299999999680e-01
3.100000000000000000e+01,9.998521200000000109e-01
3.200000000000000000e+01,9.998049700000000151e-01
3.300000000000000000e+01,9.997459699999999838e-01
3.400000000000000000e+01,9.996731300000000209e-01
3.500000000000000000e+01,9.995840799999999859e-01
3.600000000000000000e+01,9.994763700000000028e-01
3.700000000000000000e+01,9.993475099999999944e-01
3.800000000000000000e+01,9.991948600000000180e-01
3.900000000000000000e+01,9.990157499999999802e-01
4.000000000000000000e+01,9.988076700000000363e-01
4.100000000000000000e+01,9.985681199999999480e-01
4.200000000000000000e+01,9.982949500000000143e-01
4.300000000000000000e+01,9.979862000000000455e-01
4.400000000000000000e+01,9.976404300000000225e-01
4.500000000000000000e+01,9.972564600000000112e-01
4.600000000000000000e+01,9.968336800000000553e-01
4.700000000000000000e+01,9.963719199999999665e-01
4.800000000000000000e+01,9.958716600000000474e-01
4.900000000000000000e+01,9.953337899999999960e-01
5.000000000000000000e+01,9.947597999999999718e-01
5.100000000000000000e+01,9.941515300000000055e-01
5.200000000000000000e+01,9.935113199999999756e-01
5.300000000000000000e+01,9.928418399999999755e-01
5.400000000000000000e+01,9.921462500000000073e-01
5.500000000000000000e+01,9.914277799999999807e-01
5.600000000000000000e+01,9.906899300000000519e-01
5.700000000000000000e+01,9.899364099999999889e-01
5.800000000000000000e+01,9.891707899999999665e-01
5.900000000000000000e+01,9.883968199999999538e-01
6.000000000000000000e+01,9.876182700000000203e-01
6.100000000000000000e+01,9.868384599999999729e-01
6.200000000000000000e+01,9.860605000000000064e-01
6.300000000000000000e+01,9.852874299999999641e-01
6.400000000000000000e+01,9.845215099999999886e-01
6.500000000000000000e+01,9.837645900000000498e-01
6.600000000000000000e+01,9.830178600000000211e-01
6.700000000000000000e+01,9.822817999999999827e-01
6.800000000000000000e+01,9.815560599999999525e-01
6.900000000000000000e+01,9.808396700000000523e-01
7.000000000000000000e+01,9.801307900000000295e-01
7.100000000000000000e+01,9.794272200000000428e-01
7.200000000000000000e+01,9.787263299999999777e-01
7.300000000000000000e+01,9.780254999999999921e-01
7.400000000000000000e+01,9.773222200000000193e-01
7.500000000000000000e+01,9.766146500000000286e-01
7.600000000000000000e+01,9.759014200000000194e-01
7.700000000000000000e+01,9.751821200000000411e-01
7.800000000000000000e+01,9.744567899999999616e-01
7.900000000000000000e+01,9.737265699999999580e-01
8.000000000000000000e+01,9.729926599999999537e-01
8.100000000000000000e+01,9.722568400000000111e-01
8.200000000000000000e+01,9.715209000000000206e-01
8.300000000000000000e+01,9.707865100000000469e-01
8.400000000000000000e+01,9.700552799999999642e-01
8.500000000000000000e+01,9.693284599999999473e-01
8.600000000000000000e+01,9.686070100000000460e-01
8.700000000000000000e+01,9.678913399999999889e-01
8.800000000000000000e+01,9.671816199999999641e-01
8.900000000000000000e+01,9.664774499999999602e-01
9.000000000000000000e+01,9.657782900000000392e-01
9.100000000000000000e+01,9.650830000000000242e-01
9.200000000000000000e+01,9.643903999999999810e-01
9.300000000000000000e+01,9.636991000000000307e-01
9.400000000000000000e+01,9.630077500000000512e-01
9.500000000000000000e+01,9.623149600000000525e-01
9.600000000000000000e+01,9.616196799999999767e-01
9.700000000000000000e+01,9.609209300000000065e-01
9.800000000000000000e+01,9.602183699999999877e-01
9.900000000000000000e+01,9.595116999999999674e-01
1.000000000000000000e+02,9.588010900000000225e-01
1.010000000000000000e+02,9.580871499999999985e-01
1.020000000000000000e+02,9.573704600000000342e-01
1.030000000000000000e+02,9.566518699999999598e-01
1.040000000000000000e+02,9.559323800000000260e-01
1.050000000000000000e+02,9.552127099999999649e-01
1.060000000000000000e+02,9.544937599999999689e-01
1.070000000000000000e+02,9.537761200000000050e-01
1.080000000000000000e+02,9.530600900000000264e-01
1.090000000000000000e+02,9.523460299999999545e-01
1.100000000000000000e+02,9.516338100000000244e-01
1.110000000000000000e+02,9.509231999999999685e-01
1.120000000000000000e+02,9.502137899999999471e-01
1.130000000000000000e+02,9.495049100000000353e-01
1.140000000000000000e+02,9.487957999999999670e-01
1.150000000000000000e+02,9.480857799999999891e-01
1.160000000000000000e+02,9.473739300000000307e-01
1.170000000000000000e+02,9.466596800000000034e-01
1.180000000000000000e+02,9.459422800000000242e-01
1.190000000000000000e+02,9.452213000000000420e-01
1.200000000000000000e+02,9.444964500000000429e-01
1.210000000000000000e+02,9.437675500000000106e-01
1.220000000000000000e+02,9.430346499999999743e-01
1.230000000000000000e+02,9.422980499999999981e-01
1.240000000000000000e+02,9.415579400000000376e-01
1.250000000000000000e+02,9.408149099999999487e-01
1.260000000000000000e+02,9.400693199999999861e-01
1.270000000000000000e+02,9.393217000000000372e-01
1.280000000000000000e+02,9.385723500000000552e-01
1.290000000000000000e+02,9.378216900000000411e-01
1.300000000000000000e+02,9.370698299999999925e-01
1.310000000000000000e+02,9.363167900000000099e-01
1.320000000000000000e+02,9.355625499999999928e-01
1.330000000000000000e+02,9.348069399999999751e-01
1.340000000000000000e+02,9.340496700000000541e-01
1.350000000000000000e+02,9.332902400000000487e-01
1.360000000000000000e+02,9.325283199999999662e-01
1.370000000000000000e+02,9.317632900000000218e-01
1.380000000000000000e+02,9.309947499999999820e-01
1.390000000000000000e+02,9.302222700000000177e-01
1.400000000000000000e+02,9.294454500000000063e-01
1.410000000000000000e+02,9.286640900000000531e-01
1.420000000000000000e+02,9.278778399999999538e-01
1.430000000000000000e+02,9.270867099999999805e-01
1.440000000000000000e+02,9.262908699999999884e-01
1.450000000000000000e+02,9.254902600000000090e-01
1.460000000000000000e+02,9.246851200000000270e-01
1.470000000000000000e+02,9.238756900000000272e-01
1.480000000000000000e+02,9.230620899999999462e-01
1.490000000000000000e+02,9.222446100000000202e-01
1.500000000000000000e+02,9.214233800000000141e-01
1.510000000000000000e+02,9.205984499999999571e-01
1.520000000000000000e+02,9.197698199999999602e-01
1.530000000000000000e+02,9.189373899999999651e-01
1.540000000000000000e+02,9.181010099999999952e-01
1.550000000000000000e+02,9.172604699999999944e-01
1.560000000000000000e+02,9.164153900000000519e-01
1.570000000000000000e+02,9.155654899999999818e-01
1.580000000000000000e+02,9.147104600000000030e-01
1.590000000000000000e+02,9.138499500000000220e-01
1.600000000000000000e+02,9.129836599999999747e-01
1.610000000000000000e+02,9.121113400000000482e-01
1.620000000000000000e+02,9.112326499999999774e-01
1.630000000000000000e+02,9.103475800000000451e-01
1.640000000000000000e+02,9.094560699999999498e-01
1.650000000000000000e+02,9.085580100000000270e-01
1.660000000000000000e+02,9.076533900000000044e-01
1.670000000000000000e+02,9.067423300000000408e-01
1.680000000000000000e+02,9.058247799999999961e-01
1.690000000000000000e+02,9.049008499999999788e-01
1.700000000000000000e+02,9.039704800000000207e-01
1.710000000000000000e+02,9.030336700000000105e-01
1.720000000000000000e+02,9.020902499999999824e-01
1.730000000000000000e+02,9.011401500000000286e-01
1.740000000000000000e+02,9.001831399999999928e-01
1.750000000000000000e+02,8.992189800000000011e-01
1.760000000000000000e+02,8.982473600000000502e-01
1.770000000000000000e+02,8.972680600000000339e-01
1.780000000000000000e+02,8.962807699999999489e-01
1.790000000000000000e+02,8.952851899999999530e-01
1.800000000000000000e+02,8.942810300000000323e-01
1.810000000000000000e+02,8.932681099999999486e-01
1.820000000000000000e+02,8.922462500000000185e-01
1.830000000000000000e+02,8.912152599999999536e-01
1.840000000000000000e+02,8.901750400000000285e-01
1.850000000000000000e+02,8.891254100000000049e-01
1.860000000000000000e+02,8.880664099999999728e-01
1.870000000000000000e+02,8.869979399999999847e-01
1.880000000000000000e+02,8.859198099999999743e-01
1.890000000000000000e+02,8.848320800000000208e-01
1.900000000000000000e+02,8.837344599999999994e-01
1.910000000000000000e+02,8.826269500000000212e-01
1.920000000000000000e+02,8.815093600000000196e-01
1.930000000000000000e+02,8.803814599999999491e-01
1.940000000000000000e+02,8.792430799999999547e-01
1.950000000000000000e+02,8.780939599999999512e-01
1.960000000000000000e+02,8.769340500000000205e-01
1.970000000000000000e+02,8.757630600000000376e-01
1.980000000000000000e+02,8.745808600000000155e-01
1.990000000000000000e+02,8.733873399999999565e-01
2.000000000000000000e+02,8.721823699999999846e-01
2.010000000000000000e+02,8.709658999999999596e-01
2.020000000000000000e+02,8.697379200000000532e-01
2.030000000000000000e+02,8.684984399999999827e-01
2.040000000000000000e+02,8.672475200000000495e-01
2.050000000000000000e+02,8.659851600000000316e-01
2.060000000000000000e+02,8.647114000000000189e-01
2.070000000000000000e+02,8.634263899999999881e-01
2.080000000000000000e+02,8.621301700000000290e-01
2.090000000000000000e+02,8.608227999999999991e-01
2.100000000000000000e+02,8.595043999999999462e-01
2.110000000000000000e+02,8.581751600000000479e-01
2.120000000000000000e+02,8.568350700000000320e-01
2.130000000000000000e+02,8.554843699999999940e-01
2.140000000000000000e+02,8.541232899999999795e-01
2.150000000000000000e+02,8.527519099999999463e-01
2.160000000000000000e+02,8.513706300000000171e-01
2.170000000000000000e+02,8.499795799999999568e-01
2.180000000000000000e+02,8.485792300000000177e-01
2.190000000000000000e+02,8.471697599999999939e-01
2.200000000000000000e+02,8.457516400000000267e-01
2.210000000000000000e+02,8.443252999999999453e-01
2.220000000000000000e+02,8.428910400000000358e-01
2.230000000000000000e+02,8.414494399999999930e-01
2.240000000000000000e+02,8.400008100000000422e-01
2.250000000000000000e+02,8.385457400000000394e-01
2.260000000000000000e+02,8.370845300000000488e-01
2.270000000000000000e+02,8.356178399999999451e-01
2.280000000000000000e+02,8.341460200000000436e-01
2.290000000000000000e+02,8.326695600000000308e-01
2.300000000000000000e+02,8.311890400000000456e-01
2.310000000000000000e+02,8.297049399999999464e-01
2.320000000000000000e+02,8.282178000000000040e-01
2.330000000000000000e+02,8.267280500000000476e-01
2.340000000000000000e+02,8.252363200000000232e-01
2.350000000000000000e+02,8.237430999999999504e-01
2.360000000000000000e+02,8.222489400000000392e-01
2.370000000000000000e+02,8.207543499999999659e-01
2.380000000000000000e+02,8.192598800000000514e-01
2.390000000000000000e+02,8.177660100000000432e-01
2.400000000000000000e+02,8.162733300000000192e-01
2.410000000000000000e+02,8.147823199999999488e-01
2.420000000000000000e+02,8.132934600000000236e-01
2.430000000000000000e+02,8.118072200000000516e-01
2.440000000000000000e+02,8.103240099999999835e-01
2.450000000000000000e+02,8.088443899999999687e-01
2.460000000000000000e+02,8.073687600000000186e-01
2.470000000000000000e+02,8.058975900000000525e-01
2.480000000000000000e+02,8.044312000000000129e-01
2.490000000000000000e+02,8.029701700000000386e-01
2.500000000000000000e+02,8.015147400000000033e-01
2.510000000000000000e+02,8.000654000000000377e-01
2.520000000000000000e+02,7.986225500000000421e-01
2.530000000000000000e+02,7.971864899999999698e-01
2.540000000000000000e+02,7.957575900000000146e-01
2.550000000000000000e+02,7.943363199999999846e-01
2.560000000000000000e+02,7.929228499999999569e-01
2.570000000000000000e+02,7.915176200000000328e-01
2.580000000000000000e+02,7.901208400000000465e-01
2.590000000000000000e+02,7.887329499999999882e-01
2.600000000000000000e+02,7.873541699999999643e-01
2.610000000000000000e+02,7.859848099999999782e-01
2.620000000000000000e+02,7.846251100000000145e-01
2.630000000000000000e+02,7.832754299999999947e-01
2.640000000000000000e+02,7.819360499999999936e-01
2.650000000000000000e+02,7.806071599999999666e-01
2.660000000000000000e+02,7.792891299999999966e-01
2.670000000000000000e+02,7.779821799999999676e-01
2.680000000000000000e+02,7.766866100000000550e-01
2.690000000000000000e+02,7.754026699999999606e-01
2.700000000000000000e+02,7.741305800000000126e-01
2.710000000000000000e+02,7.728707799999999795e-01
2.720000000000000000e+02,7.716233099999999512e-01
2.730000000000000000e+02,7.703886599999999474e-01
2.740000000000000000e+02,7.691670099999999843e-01
2.750000000000000000e+02,7.679586400000000257e-01
2.760000000000000000e+02,7.667638100000000456e-01
2.770000000000000000e+02,7.655829199999999446e-01
2.780000000000000000e+02,7.644162199999999796e-01
2.790000000000000000e+02,7.632640000000000535e-01
2.800000000000000000e+02,7.621266199999999769e-01
2.810000000000000000e+02,7.610044500000000545e-01
2.820000000000000000e+02,7.598977700000000279e-01
2.830000000000000000e+02,7.588070000000000093e-01
2.840000000000000000e+02,7.577324500000000018e-01
2.850000000000000000e+02,7.566745900000000358e-01
2.860000000000000000e+02,7.556337699999999824e-01
2.870000000000000000e+02,7.546104200000000040e-01
2.880000000000000000e+02,7.536049500000000512e-01
2.890000000000000000e+02,7.526178999999999508e-01
2.900000000000000000e+02,7.516497399999999551e-01
2.910000000000000000e+02,7.507008899999999540e-01
2.920000000000000000e+02,7.497718899999999964e-01
2.930000000000000000e+02,7.488633399999999884e-01
2.940000000000000000e+02,7.479757700000000398e-01
2.950000000000000000e+02,7.471097100000000379e-01
2.960000000000000000e+02,7.462658300000000189e-01
2.970000000000000000e+02,7.454447699999999788e-01
2.980000000000000000e+02,7.446470899999999560e-01
2.990000000000000000e+02,7.438736000000000237e-01
3.000000000000000000e+02,7.431248999999999771e-01
3.010000000000000000e+02,7.424016599999999633e-01
3.020000000000000000e+02,7.417047599999999630e-01
3.030000000000000000e+02,7.410347499999999643e-01
3.040000000000000000e+02,7.403925099999999482e-01
3.050000000000000000e+02,7.397787000000000113e-01
3.060000000000000000e+02,7.391940399999999967e-01
3.070000000000000000e+02,7.386392400000000302e-01
3.080000000000000000e+02,7.381150100000000158e-01
3.090000000000000000e+02,7.376219600000000209e-01
3.100000000000000000e+02,7.371605599999999647e-01
3.110000000000000000e+02,7.367313500000000071e-01
3.120000000000000000e+02,7.363346800000000192e-01
3.130000000000000000e+02,7.359706799999999882e-01
3.140000000000000000e+02,7.356394499999999725e-01
3.150000000000000000e+02,7.353407699999999769e-01
3.160000000000000000e+02,7.350742200000000004e-01
3.170000000000000000e+02,7.348390799999999778e-01
3.180000000000000000e+02,7.346344599999999891e-01
3.190000000000000000e+02,7.344588600000000467e-01
3.200000000000000000e+02,7.343108099999999805e-01
3.210000000000000000e+02,7.341881999999999575e-01
3.220000000000000000e+02,7.340887799999999963e-01
3.230000000000000000e+02,7.340100999999999987e-01
3.240000000000000000e+02,7.339493599999999951e-01
3.250000000000000000e+02,7.339038799999999529e-01
3.260000000000000000e+02,7.338708600000000137e-01
3.270000000000000000e+02,7.338478000000000501e-01
3.280000000000000000e+02,7.338322400000000245e-01
3.290000000000000000e+02,7.338222899999999882e-01
3.300000000000000000e+02,7.338160900000000320e-01
3.310000000000000000e+02,7.338125100000000289e-01
3.320000000000000000e+02,7.338105400000000111e-01
3.330000000000000000e+02,7.338095300000000432e-01
3.340000000000000000e+02,7.338090499999999627e-01
3.350000000000000000e+02,7.338088200000000283e-01
3.360000000000000000e+02,7.338087599999999489e-01
3.370000000000000000e+02,7.338086999999999804e-01
3.380000000000000000e+02,7.338086999999999804e-01
3.390000000000000000e+02,7.338086999999999804e-01
3.400000000000000000e+02,7.338086999999999804e-01
3.410000000000000000e+02,7.338086999999999804e-01
3.420000000000000000e+02,7.338086999999999804e-01
3.430000000000000000e+02,7.338086999999999804e-01
3.440000000000000000e+02,7.338086999999999804e-01
3.450000000000000000e+02,7.338086999999999804e-01
3.460000000000000000e+02,7.338086999999999804e-01
3.470000000000000000e+02,7.338086999999999804e-01
3.480000000000000000e+02,7.338086999999999804e-01
3.490000000000000000e+02,7.338086999999999804e-01
3.500000000000000000e+02,7.338086999999999804e-01
3.510000000000000000e+02,7.338086999999999804e-01
3.520000000000000000e+02,7.338086999999999804e-01
3.530000000000000000e+02,7.338086999999999804e-01
3.540000000000000000e+02,7.338086999999999804e-01
3.550000000000000000e+02,7.338086999999999804e-01
3.560000000000000000e+02,7.338086999999999804e-01
3.570000000000000000e+02,7.338086999999999804e-01
3.580000000000000000e+02,7.338086999999999804e-01
3.590000000000000000e+02,7.338086999999999804e-01
3.600000000000000000e+02,7.338086999999999804e-01
3.610000000000000000e+02,7.338086999999999804e-01
3.620000000000000000e+02,7.338086999999999804e-01
3.630000000000000000e+02,7.338086999999999804e-01
3.640000000000000000e+02,7.338086999999999804e-01
3.650000000000000000e+02,7.338086999999999804e-01
3.660000000000000000e+02,7.338086999999999804e-01
3.670000000000000000e+02,7.338086999999999804e-01
3.680000000000000000e+02,7.338086999999999804e-01
3.690000000000000000e+02,7.338086999999999804e-01
3.700000000000000000e+02,7.338086999999999804e-01
3.710000000000000000e+02,7.338086999999999804e-01
3.720000000000000000e+02,7.338086999999999804e-01
3.730000000000000000e+02,7.338086999999999804e-01
3.740000000000000000e+02,7.338086999999999804e-01
3.750000000000000000e+02,7.338086999999999804e-01
3.760000000000000000e+02,7.338086999999999804e-01
3.770000000000000000e+02,7.338086999999999804e-01
3.780000000000000000e+02,7.338086999999999804e-01
3.790000000000000000e+02,7.338086999999999804e-01
3.800000000000000000e+02,7.338086999999999804e-01
3.810000000000000000e+02,7.338086999999999804e-01
3.820000000000000000e+02,7.338086999999999804e-01
3.830000000000000000e+02,7.338086999999999804e-01
3.840000000000000000e+02,7.338086999999999804e-01
3.850000000000000000e+02,7.338086999999999804e-01
3.860000000000000000e+02,7.338086999999999804e-01
3.870000000000000000e+02,7.338086999999999804e-01
3.880000000000000000e+02,7.338086999999999804e-01
3.890000000000000000e+02,7.338086999999999804e-01
3.900000000000000000e+02,7.338086999999999804e-01
3.910000000000000000e+02,7.338086999999999804e-01
3.920000000000000000e+02,7.338086999999999804e-01
3.930000000000000000e+02,7.338086999999999804e-01
3.940000000000000000e+02,7.338086999999999804e-01
3.950000000000000000e+02,7.338086999999999804e-01
3.960000000000000000e+02,7.338086999999999804e-01
3.970000000000000000e+02,7.338086999999999804e-01
3.980000000000000000e+02,7.338086999999999804e-01
3.990000000000000000e+02,7.338086999999999804e-01
