# Time [s], Convective Heat Transfer Coefficient [W/m2K]
1.000000000000000000e+00,0.000000000000000000e+00
2.000000000000000000e+00,0.000000000000000000e+00
3.000000000000000000e+00,0.000000000000000000e+00
4.000000000000000000e+00,0.000000000000000000e+00
5.000000000000000000e+00,0.000000000000000000e+00
6.000000000000000000e+00,0.000000000000000000e+00
7.000000000000000000e+00,2.412849599104084641e-02
8.000000000000000000e+00,3.380449737731881787e-02
9.000000000000000000e+00,4.924209937913938406e-02
1.000000000000000000e+01,6.886595442038928594e-02
1.100000000000000000e+01,9.134052410503813724e-02
1.200000000000000000e+01,1.175053335981447039e-01
1.300000000000000000e+01,1.467543864601348336e-01
1.400000000000000000e+01,1.789211063542618663e-01
1.500000000000000000e+01,2.135983615859898266e-01
1.600000000000000000e+01,2.504435708288956786e-01
1.700000000000000000e+01,2.890944365569522168e-01
1.800000000000000000e+01,3.292113683809176905e-01
1.900000000000000000e+01,3.705666941079868715e-01
2.000000000000000000e+01,4.128594880516515131e-01
2.100000000000000000e+01,4.558817471143254973e-01
2.200000000000000000e+01,4.994318415484847451e-01
2.300000000000000000e+01,5.433534770348852350e-01
2.400000000000000000e+01,5.874893623419948918e-01
2.500000000000000000e+01,6.317271699590831791e-01
2.600000000000000000e+01,6.759567520620665126e-01
2.700000000000000000e+01,7.200932142690071869e-01
2.800000000000000000e+01,7.640599793192963674e-01
2.900000000000000000e+01,8.077945621550858268e-01
3.000000000000000000e+01,8.512484666280534240e-01
3.100000000000000000e+01,8.943758336110925189e-01
3.200000000000000000e+01,9.371405950598338253e-01
3.300000000000000000e+01,9.795136511778493871e-01
3.400000000000000000e+01,1.021470911762921263e+00
3.500000000000000000e+01,1.062996059830106033e+00
3.600000000000000000e+01,1.104068448042064388e+00
3.700000000000000000e+01,1.144684393065186656e+00
3.800000000000000000e+01,1.184830840145587372e+00
3.900000000000000000e+01,1.224501507620274987e+00
4.000000000000000000e+01,1.263693355299837728e+00
4.100000000000000000e+01,1.302406238462350707e+00
4.200000000000000000e+01,1.340640020841796565e+00
4.300000000000000000e+01,1.378393817303973146e+00
4.400000000000000000e+01,1.415671899127229683e+00
4.500000000000000000e+01,1.452477292849228885e+00
4.600000000000000000e+01,1.488811939119055072e+00
4.700000000000000000e+01,1.524681354052154658e+00
4.800000000000000000e+01,1.560092756194092933e+00
4.900000000000000000e+01,1.595049520232681539e+00
5.000000000000000000e+01,1.629559804623981201e+00
5.100000000000000000e+01,1.663627878696779971e+00
5.200000000000000000e+01,1.697260477355946318e+00
5.300000000000000000e+01,1.730465081270490701e+00
5.400000000000000000e+01,1.763248948304229291e+00
5.500000000000000000e+01,1.795618717195355041e+00
5.600000000000000000e+01,1.827580799061112371e+00
5.700000000000000000e+01,1.859142372135334842e+00
5.800000000000000000e+01,1.890310219242849143e+00
5.900000000000000000e+01,1.921092960214219936e+00
6.000000000000000000e+01,1.951496111270472511e+00
6.100000000000000000e+01,1.981526383705005223e+00
6.200000000000000000e+01,2.011191182175730230e+00
6.300000000000000000e+01,2.040497908329713006e+00
6.400000000000000000e+01,2.069451741853139737e+00
6.500000000000000000e+01,2.098059900559313462e+00
6.600000000000000000e+01,2.126329014753897795e+00
6.700000000000000000e+01,2.154265934704937546e+00
6.800000000000000000e+01,2.181875713225457591e+00
6.900000000000000000e+01,2.209165403474254052e+00
7.000000000000000000e+01,2.236140991204537354e+00
7.100000000000000000e+01,2.262808645517285111e+00
7.200000000000000000e+01,2.289173341778602211e+00
7.300000000000000000e+01,2.315241164627482195e+00
7.400000000000000000e+01,2.341017891675253093e+00
7.500000000000000000e+01,2.366508805246196001e+00
7.600000000000000000e+01,2.391718733205913772e+00
7.700000000000000000e+01,2.416653889351284334e+00
7.800000000000000000e+01,2.441317992922343194e+00
7.900000000000000000e+01,2.465716934231190649e+00
8.000000000000000000e+01,2.489855913549298805e+00
8.100000000000000000e+01,2.513739314032070737e+00
8.200000000000000000e+01,2.537371861823451535e+00
8.300000000000000000e+01,2.560757696135387729e+00
8.400000000000000000e+01,2.583901993976066791e+00
8.500000000000000000e+01,2.606808806958264224e+00
8.600000000000000000e+01,2.629481830590282954e+00
8.700000000000000000e+01,2.651926260823855852e+00
8.800000000000000000e+01,2.674145555514013228e+00
8.900000000000000000e+01,2.696143343656795643e+00
9.000000000000000000e+01,2.717924358965682519e+00
9.100000000000000000e+01,2.739491698358167415e+00
9.200000000000000000e+01,2.760849249110321590e+00
9.300000000000000000e+01,2.782001021143560848e+00
9.400000000000000000e+01,2.802950539520258300e+00
9.500000000000000000e+01,2.823701024634149181e+00
9.600000000000000000e+01,2.844255701481137599e+00
9.700000000000000000e+01,2.864617797355051732e+00
9.800000000000000000e+01,2.884790961872756743e+00
9.900000000000000000e+01,2.904778126498033686e+00
1.000000000000000000e+02,2.924582646541306730e+00
1.010000000000000000e+02,2.944206921124775889e+00
1.020000000000000000e+02,2.963654853520848675e+00
1.030000000000000000e+02,2.982928595475262679e+00
1.040000000000000000e+02,3.002031385240424566e+00
1.050000000000000000e+02,3.020965939254442123e+00
1.060000000000000000e+02,3.039734736854444286e+00
1.070000000000000000e+02,3.058340909865781221e+00
1.080000000000000000e+02,3.076786595231376431e+00
1.090000000000000000e+02,3.095074337247838869e+00
1.100000000000000000e+02,3.113206579995685175e+00
1.110000000000000000e+02,3.131186030666304188e+00
1.120000000000000000e+02,3.149014935850956931e+00
1.130000000000000000e+02,3.166696390832101304e+00
1.140000000000000000e+02,3.184230828917348877e+00
1.150000000000000000e+02,3.201622789092833266e+00
1.160000000000000000e+02,3.218872561083172545e+00
1.170000000000000000e+02,3.235983340639685402e+00
1.180000000000000000e+02,3.252956873675735494e+00
1.190000000000000000e+02,3.269795173062971294e+00
1.200000000000000000e+02,3.286500613096935641e+00
1.210000000000000000e+02,3.303074838208370334e+00
1.220000000000000000e+02,3.319519967462848165e+00
1.230000000000000000e+02,3.335837519137231588e+00
1.240000000000000000e+02,3.352030002264294151e+00
1.250000000000000000e+02,3.368098599009562211e+00
1.260000000000000000e+02,3.384045271474337646e+00
1.270000000000000000e+02,3.399871712452295913e+00
1.280000000000000000e+02,3.415580461460945738e+00
1.290000000000000000e+02,3.431172280999673418e+00
1.300000000000000000e+02,3.446649192493685732e+00
1.310000000000000000e+02,3.462012857534273458e+00
1.320000000000000000e+02,3.477263915946366968e+00
1.330000000000000000e+02,3.492405485044774771e+00
1.340000000000000000e+02,3.507438295652704596e+00
1.350000000000000000e+02,3.522363812531037031e+00
1.360000000000000000e+02,3.537183548524176935e+00
1.370000000000000000e+02,3.551898876946893768e+00
1.380000000000000000e+02,3.566511497405512987e+00
1.390000000000000000e+02,3.581022783566785161e+00
1.400000000000000000e+02,3.595433705682382186e+00
1.410000000000000000e+02,3.609745744900053399e+00
1.420000000000000000e+02,3.623960427489339331e+00
1.430000000000000000e+02,3.638079057784105341e+00
1.440000000000000000e+02,3.652102990023551765e+00
1.450000000000000000e+02,3.666033016760052110e+00
1.460000000000000000e+02,3.679870427309258396e+00
1.470000000000000000e+02,3.693616731790960284e+00
1.480000000000000000e+02,3.707273141993245424e+00
1.490000000000000000e+02,3.720840666855180334e+00
1.500000000000000000e+02,3.734320203735073562e+00
1.510000000000000000e+02,3.747713292471820168e+00
1.520000000000000000e+02,3.761020437542696548e+00
1.530000000000000000e+02,3.774243527502042728e+00
1.540000000000000000e+02,3.787383338715780035e+00
1.550000000000000000e+02,3.800440627305282426e+00
1.560000000000000000e+02,3.813416773777034141e+00
1.570000000000000000e+02,3.826312242824661869e+00
1.580000000000000000e+02,3.839128361236404885e+00
1.590000000000000000e+02,3.851866342576202751e+00
1.600000000000000000e+02,3.864526899061274445e+00
1.610000000000000000e+02,3.877111036616134321e+00
1.620000000000000000e+02,3.889619349056219644e+00
1.630000000000000000e+02,3.902052953815580594e+00
1.640000000000000000e+02,3.914413093421570622e+00
1.650000000000000000e+02,3.926700524291251160e+00
1.660000000000000000e+02,3.938915607317903245e+00
1.670000000000000000e+02,3.951059444809628562e+00
1.680000000000000000e+02,3.963133261636936133e+00
1.690000000000000000e+02,3.975137438555875757e+00
1.700000000000000000e+02,3.987073157561925818e+00
1.710000000000000000e+02,3.998940621267277784e+00
1.720000000000000000e+02,4.010741119356977080e+00
1.730000000000000000e+02,4.022475332866739528e+00
1.740000000000000000e+02,4.034143711515217667e+00
1.750000000000000000e+02,4.045747696137695470e+00
1.760000000000000000e+02,4.057287130512926332e+00
1.770000000000000000e+02,4.068763134901296930e+00
1.780000000000000000e+02,4.080176945231256624e+00
1.790000000000000000e+02,4.091528651312077436e+00
1.800000000000000000e+02,4.102818966972534120e+00
1.810000000000000000e+02,4.114048521362817290e+00
1.820000000000000000e+02,4.125217930061368499e+00
1.830000000000000000e+02,4.136328479651301571e+00
1.840000000000000000e+02,4.147380476554304529e+00
1.850000000000000000e+02,4.158374085371642437e+00
1.860000000000000000e+02,4.169310410036164427e+00
1.870000000000000000e+02,4.180189861568923249e+00
1.880000000000000000e+02,4.191013575595332163e+00
1.890000000000000000e+02,4.201781338357739592e+00
1.900000000000000000e+02,4.212494457688000793e+00
1.910000000000000000e+02,4.223152902263318964e+00
1.920000000000000000e+02,4.233757816874843982e+00
1.930000000000000000e+02,4.244309348752056010e+00
1.940000000000000000e+02,4.254807900819870703e+00
1.950000000000000000e+02,4.265254447141956007e+00
1.960000000000000000e+02,4.275649622589613230e+00
1.970000000000000000e+02,4.285993476192418328e+00
1.980000000000000000e+02,4.296286880418714205e+00
1.990000000000000000e+02,4.306530059857594850e+00
2.000000000000000000e+02,4.316723988610662310e+00
2.010000000000000000e+02,4.326868559465357755e+00
2.020000000000000000e+02,4.336964849586156134e+00
2.030000000000000000e+02,4.347013172729575103e+00
2.040000000000000000e+02,4.357013405150616414e+00
2.050000000000000000e+02,4.366966959825210104e+00
2.060000000000000000e+02,4.376873696375402467e+00
2.070000000000000000e+02,4.386734450148638054e+00
2.080000000000000000e+02,4.396549435852772802e+00
2.090000000000000000e+02,4.406318683400737513e+00
2.100000000000000000e+02,4.416043662681780724e+00
2.110000000000000000e+02,4.425724024807638379e+00
2.120000000000000000e+02,4.435360319421565833e+00
2.130000000000000000e+02,4.444952908795904989e+00
2.140000000000000000e+02,4.454502502822726306e+00
2.150000000000000000e+02,4.464009505450312609e+00
2.160000000000000000e+02,4.473473962698328421e+00
2.170000000000000000e+02,4.482896560428559773e+00
2.180000000000000000e+02,4.492277508854370716e+00
2.190000000000000000e+02,4.501617418931205705e+00
2.200000000000000000e+02,4.510916546235446134e+00
2.210000000000000000e+02,4.520175084734339599e+00
2.220000000000000000e+02,4.529393909816168851e+00
2.230000000000000000e+02,4.538572973304018099e+00
2.240000000000000000e+02,4.547712454075927724e+00
2.250000000000000000e+02,4.556813204510299364e+00
2.260000000000000000e+02,4.565875389491981018e+00
2.270000000000000000e+02,4.574899394899308191e+00
2.280000000000000000e+02,4.583885377582578968e+00
2.290000000000000000e+02,4.592833713791250716e+00
2.300000000000000000e+02,4.601745050204583798e+00
2.310000000000000000e+02,4.610619472742120806e+00
2.320000000000000000e+02,4.619457340166026604e+00
2.330000000000000000e+02,4.628258787055968604e+00
2.340000000000000000e+02,4.637024435797160393e+00
2.350000000000000000e+02,4.645754356911592886e+00
2.360000000000000000e+02,4.654449106052581442e+00
2.370000000000000000e+02,4.663108799812905936e+00
2.380000000000000000e+02,4.671733821116260010e+00
2.390000000000000000e+02,4.680324279939167553e+00
2.400000000000000000e+02,4.688880657232118665e+00
2.410000000000000000e+02,4.697403267679757910e+00
2.420000000000000000e+02,4.705892474160561889e+00
2.430000000000000000e+02,4.714348370872221139e+00
2.440000000000000000e+02,4.722770998064587999e+00
2.450000000000000000e+02,4.731161284330259065e+00
2.460000000000000000e+02,4.739518998561160323e+00
2.470000000000000000e+02,4.747844691725371824e+00
2.480000000000000000e+02,4.756138389492067908e+00
2.490000000000000000e+02,4.764400271765294903e+00
2.500000000000000000e+02,4.772631029759874188e+00
2.510000000000000000e+02,4.780830628065751320e+00
2.520000000000000000e+02,4.788999235809569655e+00
2.530000000000000000e+02,4.797137375779269242e+00
2.540000000000000000e+02,4.805245056622338140e+00
2.550000000000000000e+02,4.813322589917540917e+00
2.560000000000000000e+02,4.821370282965752985e+00
2.570000000000000000e+02,4.829388438872687317e+00
2.580000000000000000e+02,4.837377056477846438e+00
2.590000000000000000e+02,4.845336284109469815e+00
2.600000000000000000e+02,4.853267013514183326e+00
2.610000000000000000e+02,4.861168737700616305e+00
2.620000000000000000e+02,4.869041993048678130e+00
2.630000000000000000e+02,4.876887013612233090e+00
2.640000000000000000e+02,4.884703932221976963e+00
2.650000000000000000e+02,4.892493075529835700e+00
2.660000000000000000e+02,4.900254570944355237e+00
2.670000000000000000e+02,4.907988544165589495e+00
2.680000000000000000e+02,4.915695312988252574e+00
2.690000000000000000e+02,4.923374997964704569e+00
2.700000000000000000e+02,4.931028055050792780e+00
2.710000000000000000e+02,4.938654502517567657e+00
2.720000000000000000e+02,4.946254358316513056e+00
2.730000000000000000e+02,4.953828212491177219e+00
2.740000000000000000e+02,4.961375934463501558e+00
2.750000000000000000e+02,4.968897821853192731e+00
2.760000000000000000e+02,4.976394121324861253e+00
2.770000000000000000e+02,4.983865029362294585e+00
2.780000000000000000e+02,4.991310552062720340e+00
2.790000000000000000e+02,4.998731070140831179e+00
2.800000000000000000e+02,5.006126772878567444e+00
2.810000000000000000e+02,5.013497707525381486e+00
2.820000000000000000e+02,5.020844152868946253e+00
2.830000000000000000e+02,5.028166152853366988e+00
2.840000000000000000e+02,5.035463935492061616e+00
2.850000000000000000e+02,5.042737772110547745e+00
2.860000000000000000e+02,5.049987747223704027e+00
2.870000000000000000e+02,5.057214173148280700e+00
2.880000000000000000e+02,5.064416810876098296e+00
2.890000000000000000e+02,5.071596152203771801e+00
2.900000000000000000e+02,5.078752547144332219e+00
2.910000000000000000e+02,5.085885798630927823e+00
2.920000000000000000e+02,5.092996298406117894e+00
2.930000000000000000e+02,5.100083893720820605e+00
2.940000000000000000e+02,5.107148971995830067e+00
2.950000000000000000e+02,5.114191647760772952e+00
2.960000000000000000e+02,5.121212257379438526e+00
2.970000000000000000e+02,5.128210599320909502e+00
2.980000000000000000e+02,5.135187184428441576e+00
2.990000000000000000e+02,5.142141676785283444e+00
3.000000000000000000e+02,5.149074847820171996e+00
3.010000000000000000e+02,5.155986227663413857e+00
3.020000000000000000e+02,5.162876449299854897e+00
3.030000000000000000e+02,5.169745306712651534e+00
3.040000000000000000e+02,5.176593294937127610e+00
3.050000000000000000e+02,5.183420250184448186e+00
3.060000000000000000e+02,5.190226227588955688e+00
3.070000000000000000e+02,5.197011498340938118e+00
3.080000000000000000e+02,5.203776417192959691e+00
3.090000000000000000e+02,5.210521162686668539e+00
3.100000000000000000e+02,5.217245223365513773e+00
3.110000000000000000e+02,5.223949336925713283e+00
3.120000000000000000e+02,5.230633420514092080e+00
3.130000000000000000e+02,5.237297818827824081e+00
3.140000000000000000e+02,5.243942362175427085e+00
3.150000000000000000e+02,5.250567222208291973e+00
3.160000000000000000e+02,5.257172484074208896e+00
3.170000000000000000e+02,5.263758274250890601e+00
3.180000000000000000e+02,5.270325097183459206e+00
3.190000000000000000e+02,5.276872359221900233e+00
3.200000000000000000e+02,5.283400856397239664e+00
3.210000000000000000e+02,5.289910707516277455e+00
3.220000000000000000e+02,5.296401404215933084e+00
3.230000000000000000e+02,5.302873650253468796e+00
3.240000000000000000e+02,5.309327311936145932e+00
3.250000000000000000e+02,5.315762173956146697e+00
3.260000000000000000e+02,5.322179262820146306e+00
3.270000000000000000e+02,5.328577822328930402e+00
3.280000000000000000e+02,5.334958501851370549e+00
3.290000000000000000e+02,5.341320795637335195e+00
3.300000000000000000e+02,5.347665512559387047e+00
3.310000000000000000e+02,5.353992065322295879e+00
3.320000000000000000e+02,5.360301257299425970e+00
3.330000000000000000e+02,5.366593112004189869e+00
3.340000000000000000e+02,5.372867166073962863e+00
3.350000000000000000e+02,5.379123809987451210e+00
3.360000000000000000e+02,5.385363188367541021e+00
3.370000000000000000e+02,5.391585686063867122e+00
3.380000000000000000e+02,5.397790760263457166e+00
3.390000000000000000e+02,5.403979155796313272e+00
3.400000000000000000e+02,5.410150690784418792e+00
3.410000000000000000e+02,5.416305105149755938e+00
3.420000000000000000e+02,5.422443176240762774e+00
3.430000000000000000e+02,5.428564601823033797e+00
3.440000000000000000e+02,5.434669557934905804e+00
3.450000000000000000e+02,5.440758139897119428e+00
3.460000000000000000e+02,5.446830363216672133e+00
3.470000000000000000e+02,5.452886400689631152e+00
3.480000000000000000e+02,5.458926344967957256e+00
3.490000000000000000e+02,5.464950209446771900e+00
3.500000000000000000e+02,5.470958163793098628e+00
3.510000000000000000e+02,5.476950298091940894e+00
3.520000000000000000e+02,5.482926935229342824e+00
3.530000000000000000e+02,5.488887618151272463e+00
3.540000000000000000e+02,5.494832707894326873e+00
3.550000000000000000e+02,5.500762330209340689e+00
3.560000000000000000e+02,5.506676532512801536e+00
3.570000000000000000e+02,5.512575400291123806e+00
3.580000000000000000e+02,5.518459364208386120e+00
3.590000000000000000e+02,5.524327853929286825e+00
3.600000000000000000e+02,5.530181260816190658e+00
3.610000000000000000e+02,5.536019705510843991e+00
3.620000000000000000e+02,5.541843231366069489e+00
3.630000000000000000e+02,5.547651919364159134e+00
3.640000000000000000e+02,5.553445887724602237e+00
3.650000000000000000e+02,5.559225177886051306e+00
3.660000000000000000e+02,5.564989868700839892e+00
3.670000000000000000e+02,5.570740076049084166e+00
3.680000000000000000e+02,5.576475839528796996e+00
3.690000000000000000e+02,5.582196972974236893e+00
3.700000000000000000e+02,5.587904116471315241e+00
3.710000000000000000e+02,5.593597044343113112e+00
3.720000000000000000e+02,5.599275570045079142e+00
3.730000000000000000e+02,5.604940291004266051e+00
3.740000000000000000e+02,5.610591056050016512e+00
3.750000000000000000e+02,5.616227640964827295e+00
3.760000000000000000e+02,5.621850675166321309e+00
3.770000000000000000e+02,5.627459637112984581e+00
3.780000000000000000e+02,5.633054931649454922e+00
3.790000000000000000e+02,5.638636592191522467e+00
3.800000000000000000e+02,5.644204725344969198e+00
3.810000000000000000e+02,5.649759326819988381e+00
3.820000000000000000e+02,5.655300538729351345e+00
3.830000000000000000e+02,5.660828428978486038e+00
3.840000000000000000e+02,5.666343028449290387e+00
3.850000000000000000e+02,5.671844113030661383e+00
3.860000000000000000e+02,5.677332368255389561e+00
3.870000000000000000e+02,5.682807495639277562e+00
3.880000000000000000e+02,5.688269379851623064e+00
3.890000000000000000e+02,5.693718556373447370e+00
3.900000000000000000e+02,5.699154619514707143e+00
3.910000000000000000e+02,5.704577814131543967e+00
3.920000000000000000e+02,5.709988275475836872e+00
3.930000000000000000e+02,5.715385779384222431e+00
3.940000000000000000e+02,5.720770890253619179e+00
3.950000000000000000e+02,5.726143454181287673e+00
3.960000000000000000e+02,5.731503496559097854e+00
3.970000000000000000e+02,5.736850829147618569e+00
3.980000000000000000e+02,5.742185762103496849e+00
