# Time [s], Convective Heat Transfer Coefficient [W/m2K]
1.000000000000000000e+00,0.000000000000000000e+00
2.000000000000000000e+00,0.000000000000000000e+00
3.000000000000000000e+00,0.000000000000000000e+00
4.000000000000000000e+00,0.000000000000000000e+00
5.000000000000000000e+00,0.000000000000000000e+00
6.000000000000000000e+00,2.412849599104084641e-02
7.000000000000000000e+00,4.055970506183135399e-02
8.000000000000000000e+00,6.234380213143796146e-02
9.000000000000000000e+00,8.947883281664033295e-02
1.000000000000000000e+01,1.228536966268522351e-01
1.100000000000000000e+01,1.621943346846762279e-01
1.200000000000000000e+01,2.070357458553189478e-01
1.300000000000000000e+01,2.568833882586847306e-01
1.400000000000000000e+01,3.111396732585815506e-01
1.500000000000000000e+01,3.691117983425486471e-01
1.600000000000000000e+01,4.301967716112876094e-01
1.700000000000000000e+01,4.937642425341663976e-01
1.800000000000000000e+01,5.593224643999594736e-01
1.900000000000000000e+01,6.263995672185944663e-01
2.000000000000000000e+01,6.945987726171373167e-01
2.100000000000000000e+01,7.635663848297939982e-01
2.200000000000000000e+01,8.330231092184456898e-01
2.300000000000000000e+01,9.027139927647004347e-01
2.400000000000000000e+01,9.724361920850117524e-01
2.500000000000000000e+01,1.042014472739080766e+00
2.600000000000000000e+01,1.111302122711569140e+00
2.700000000000000000e+01,1.180184682582733791e+00
2.800000000000000000e+01,1.248555856484156568e+00
2.900000000000000000e+01,1.316336959923143590e+00
3.000000000000000000e+01,1.383465488628002227e+00
3.100000000000000000e+01,1.449888655081636335e+00
3.200000000000000000e+01,1.515559788587836021e+00
3.300000000000000000e+01,1.580449996476246177e+00
3.400000000000000000e+01,1.644537698145407845e+00
3.500000000000000000e+01,1.707801318391149126e+00
3.600000000000000000e+01,1.770226735789196981e+00
3.700000000000000000e+01,1.831811388399399165e+00
3.800000000000000000e+01,1.892546388464935170e+00
3.900000000000000000e+01,1.952434702478640371e+00
4.000000000000000000e+01,2.011475046299866953e+00
4.100000000000000000e+01,2.069675034334340413e+00
4.200000000000000000e+01,2.127037414987599462e+00
4.300000000000000000e+01,2.183574507439307588e+00
4.400000000000000000e+01,2.239292053387591075e+00
4.500000000000000000e+01,2.294203611194063352e+00
4.600000000000000000e+01,2.348321541281045199e+00
4.700000000000000000e+01,2.401651753411247370e+00
4.800000000000000000e+01,2.454211575105149645e+00
4.900000000000000000e+01,2.506014379395145486e+00
5.000000000000000000e+01,2.557069283037390228e+00
5.100000000000000000e+01,2.607391613492603177e+00
5.200000000000000000e+01,2.656994325825895231e+00
5.300000000000000000e+01,2.705891808782092234e+00
5.400000000000000000e+01,2.754095195034027554e+00
5.500000000000000000e+01,2.801620106481018002e+00
5.600000000000000000e+01,2.848479621429255815e+00
5.700000000000000000e+01,2.894686961002099768e+00
5.800000000000000000e+01,2.940254032351625302e+00
5.900000000000000000e+01,2.985192339916663329e+00
6.000000000000000000e+01,3.029518207422507103e+00
6.100000000000000000e+01,3.073244229154486806e+00
6.200000000000000000e+01,3.116380209802172452e+00
6.300000000000000000e+01,3.158938415800017552e+00
6.400000000000000000e+01,3.200930811037543844e+00
6.500000000000000000e+01,3.242370279985100190e+00
6.600000000000000000e+01,3.283267328294649623e+00
6.700000000000000000e+01,3.323632986593044070e+00
6.800000000000000000e+01,3.363476338924287656e+00
6.900000000000000000e+01,3.402810583137799494e+00
7.000000000000000000e+01,3.441644638283460456e+00
7.100000000000000000e+01,3.479989198588925081e+00
7.200000000000000000e+01,3.517853685231440597e+00
7.300000000000000000e+01,3.555248028686043504e+00
7.400000000000000000e+01,3.592182600076078813e+00
7.500000000000000000e+01,3.628664951862263344e+00
7.600000000000000000e+01,3.664703828648601558e+00
7.700000000000000000e+01,3.700308698151475451e+00
7.800000000000000000e+01,3.735488917243966256e+00
7.900000000000000000e+01,3.770251508966411702e+00
8.000000000000000000e+01,3.804604921935514028e+00
8.100000000000000000e+01,3.838557783716820992e+00
8.200000000000000000e+01,3.872116613909273308e+00
8.300000000000000000e+01,3.905289833762560114e+00
8.400000000000000000e+01,3.938084507026647252e+00
8.500000000000000000e+01,3.970507930327873414e+00
8.600000000000000000e+01,4.002566878745692058e+00
8.700000000000000000e+01,4.034268289486641734e+00
8.800000000000000000e+01,4.065618820294433000e+00
8.900000000000000000e+01,4.096624587858929800e+00
9.000000000000000000e+01,4.127292029148572183e+00
9.100000000000000000e+01,4.157629974231619840e+00
9.200000000000000000e+01,4.187641729354489861e+00
9.300000000000000000e+01,4.217333361301709438e+00
9.400000000000000000e+01,4.246710258068996602e+00
9.500000000000000000e+01,4.275778325472841424e+00
9.600000000000000000e+01,4.304543192573243360e+00
9.700000000000000000e+01,4.333010290681762022e+00
9.800000000000000000e+01,4.361185911013124361e+00
9.900000000000000000e+01,4.389075751345883347e+00
1.000000000000000000e+02,4.416682672018882094e+00
1.010000000000000000e+02,4.444010959015233020e+00
1.020000000000000000e+02,4.471066118929542199e+00
1.030000000000000000e+02,4.497853185263140929e+00
1.040000000000000000e+02,4.524377489145531506e+00
1.050000000000000000e+02,4.550643567735172645e+00
1.060000000000000000e+02,4.576655935574120093e+00
1.070000000000000000e+02,4.602415935419034376e+00
1.080000000000000000e+02,4.627929400142695826e+00
1.090000000000000000e+02,4.653200460916179004e+00
1.100000000000000000e+02,4.678233617482257856e+00
1.110000000000000000e+02,4.703033453951020348e+00
1.120000000000000000e+02,4.727603586955382298e+00
1.130000000000000000e+02,4.751945108187024758e+00
1.140000000000000000e+02,4.776063074820711130e+00
1.150000000000000000e+02,4.799961383015244998e+00
1.160000000000000000e+02,4.823643680586453542e+00
1.170000000000000000e+02,4.847114076662230708e+00
1.180000000000000000e+02,4.870375737980501718e+00
1.190000000000000000e+02,4.893429809111480289e+00
1.200000000000000000e+02,4.916280301019803289e+00
1.210000000000000000e+02,4.938930935840270209e+00
1.220000000000000000e+02,4.961384970085365609e+00
1.230000000000000000e+02,4.983646016953596103e+00
1.240000000000000000e+02,5.005716769448290471e+00
1.250000000000000000e+02,5.027598068139138121e+00
1.260000000000000000e+02,5.049293709799505869e+00
1.270000000000000000e+02,5.070807134875108702e+00
1.280000000000000000e+02,5.092140855983281256e+00
1.290000000000000000e+02,5.113298735210070944e+00
1.300000000000000000e+02,5.134281399659044176e+00
1.310000000000000000e+02,5.155091085596511746e+00
1.320000000000000000e+02,5.175731268022333964e+00
1.330000000000000000e+02,5.196204530995641946e+00
1.340000000000000000e+02,5.216513764221780036e+00
1.350000000000000000e+02,5.236661169717559794e+00
1.360000000000000000e+02,5.256647017330786653e+00
1.370000000000000000e+02,5.276474931005390445e+00
1.380000000000000000e+02,5.296146672431642166e+00
1.390000000000000000e+02,5.315665772702120151e+00
1.400000000000000000e+02,5.335033807860379618e+00
1.410000000000000000e+02,5.354253164506841856e+00
1.420000000000000000e+02,5.373324091944088998e+00
1.430000000000000000e+02,5.392249205874168005e+00
1.440000000000000000e+02,5.411031447007522921e+00
1.450000000000000000e+02,5.429672362884318204e+00
1.460000000000000000e+02,5.448175034468167865e+00
1.470000000000000000e+02,5.466539754942994378e+00
1.480000000000000000e+02,5.484767624852753265e+00
1.490000000000000000e+02,5.502861298484580388e+00
1.500000000000000000e+02,5.520822667401839468e+00
1.510000000000000000e+02,5.538653953806819352e+00
1.520000000000000000e+02,5.556356979798624529e+00
1.530000000000000000e+02,5.573933293282609114e+00
1.540000000000000000e+02,5.591382828748588274e+00
1.550000000000000000e+02,5.608708273752498918e+00
1.560000000000000000e+02,5.625910953242050816e+00
1.570000000000000000e+02,5.642992782737804802e+00
1.580000000000000000e+02,5.659955958413188881e+00
1.590000000000000000e+02,5.676802258836617376e+00
1.600000000000000000e+02,5.693531215830590853e+00
1.610000000000000000e+02,5.710144667662612861e+00
1.620000000000000000e+02,5.726644586361466338e+00
1.630000000000000000e+02,5.743032080359881775e+00
1.640000000000000000e+02,5.759309077815276012e+00
1.650000000000000000e+02,5.775478268664232750e+00
1.660000000000000000e+02,5.791538791109461570e+00
1.670000000000000000e+02,5.807491639822002227e+00
1.680000000000000000e+02,5.823338648592049971e+00
1.690000000000000000e+02,5.839080991441325530e+00
1.700000000000000000e+02,5.854720156669630526e+00
1.710000000000000000e+02,5.870257293214387495e+00
1.720000000000000000e+02,5.885695112054850853e+00
1.730000000000000000e+02,5.901033105822619085e+00
1.740000000000000000e+02,5.916272648544144808e+00
1.750000000000000000e+02,5.931414518510595535e+00
1.760000000000000000e+02,5.946460039044122681e+00
1.770000000000000000e+02,5.961410471974424752e+00
1.780000000000000000e+02,5.976266527670380135e+00
1.790000000000000000e+02,5.991029911606104541e+00
1.800000000000000000e+02,6.005702066815278961e+00
1.810000000000000000e+02,6.020283695979355976e+00
1.820000000000000000e+02,6.034774907918696307e+00
1.830000000000000000e+02,6.049177055185160690e+00
1.840000000000000000e+02,6.063491080855325954e+00
1.850000000000000000e+02,6.077718225442354516e+00
1.860000000000000000e+02,6.091859105315060141e+00
1.870000000000000000e+02,6.105914763326400596e+00
1.880000000000000000e+02,6.119887159194742132e+00
1.890000000000000000e+02,6.133776099705836593e+00
1.900000000000000000e+02,6.147582353709656999e+00
1.910000000000000000e+02,6.161307075551347268e+00
1.920000000000000000e+02,6.174951059809361986e+00
1.930000000000000000e+02,6.188515146644927079e+00
1.940000000000000000e+02,6.202000099138802902e+00
1.950000000000000000e+02,6.215406998944430050e+00
1.960000000000000000e+02,6.228736515396353646e+00
1.970000000000000000e+02,6.241989755603855272e+00
1.980000000000000000e+02,6.255167088481293547e+00
1.990000000000000000e+02,6.268269560542620411e+00
2.000000000000000000e+02,6.281297606070660677e+00
2.010000000000000000e+02,6.294251946231495864e+00
2.020000000000000000e+02,6.307133700939784759e+00
2.030000000000000000e+02,6.319943120603297437e+00
2.040000000000000000e+02,6.332681442677350780e+00
2.050000000000000000e+02,6.345348982184177977e+00
2.060000000000000000e+02,6.357946511147971158e+00
2.070000000000000000e+02,6.370474701565336240e+00
2.080000000000000000e+02,6.382934759526614599e+00
2.090000000000000000e+02,6.395326669047978640e+00
2.100000000000000000e+02,6.407651211442940031e+00
2.110000000000000000e+02,6.419909126407217670e+00
2.120000000000000000e+02,6.432100886514406035e+00
2.130000000000000000e+02,6.444227435190790665e+00
2.140000000000000000e+02,6.456289138880203282e+00
2.150000000000000000e+02,6.468286637189345711e+00
2.160000000000000000e+02,6.480220559113708312e+00
2.170000000000000000e+02,6.492091523278174847e+00
2.180000000000000000e+02,6.503900138170718215e+00
2.190000000000000000e+02,6.515646726632806640e+00
2.200000000000000000e+02,6.527332155262588032e+00
2.210000000000000000e+02,6.538957003442767757e+00
2.220000000000000000e+02,6.550521568481683765e+00
2.230000000000000000e+02,6.562027229857772426e+00
2.240000000000000000e+02,6.573473179519212728e+00
2.250000000000000000e+02,6.584860509373592130e+00
2.260000000000000000e+02,6.596190295253890667e+00
2.270000000000000000e+02,6.607462256658922506e+00
2.280000000000000000e+02,6.618676917564720874e+00
2.290000000000000000e+02,6.629835326519083694e+00
2.300000000000000000e+02,6.640937455331506811e+00
2.310000000000000000e+02,6.651984333429379781e+00
2.320000000000000000e+02,6.662976448334235080e+00
2.330000000000000000e+02,6.673913491811708454e+00
2.340000000000000000e+02,6.684796730476946003e+00
2.350000000000000000e+02,6.695626108055309444e+00
2.360000000000000000e+02,6.706402609200143417e+00
2.370000000000000000e+02,6.717125907871883683e+00
2.380000000000000000e+02,6.727797491646043682e+00
2.390000000000000000e+02,6.738417023810599815e+00
2.400000000000000000e+02,6.748984942041129642e+00
2.410000000000000000e+02,6.759501933907450244e+00
2.420000000000000000e+02,6.769968677630799903e+00
2.430000000000000000e+02,6.780384823779566084e+00
2.440000000000000000e+02,6.790751549476201632e+00
2.450000000000000000e+02,6.801068751342695506e+00
2.460000000000000000e+02,6.811337335733061771e+00
2.470000000000000000e+02,6.821557191107122442e+00
2.480000000000000000e+02,6.831728708118355975e+00
2.490000000000000000e+02,6.841852522092300326e+00
2.500000000000000000e+02,6.851928761447521055e+00
2.510000000000000000e+02,6.861958049572560725e+00
2.520000000000000000e+02,6.871940753983055927e+00
2.530000000000000000e+02,6.881877237227469912e+00
2.540000000000000000e+02,6.891767364056568645e+00
2.550000000000000000e+02,6.901612474606372949e+00
2.560000000000000000e+02,6.911412177662841216e+00
2.570000000000000000e+02,6.921167307614455311e+00
2.580000000000000000e+02,6.930877714059461070e+00
2.590000000000000000e+02,6.940543976636995183e+00
2.600000000000000000e+02,6.950166425555221572e+00
2.610000000000000000e+02,6.959745628401056372e+00
2.620000000000000000e+02,6.969281904893400714e+00
2.630000000000000000e+02,6.978775089936345211e+00
2.640000000000000000e+02,6.988225738708678136e+00
2.650000000000000000e+02,6.997634399781535564e+00
2.660000000000000000e+02,7.007000661557521326e+00
2.670000000000000000e+02,7.016325542939210180e+00
2.680000000000000000e+02,7.025609102794935446e+00
2.690000000000000000e+02,7.034851635324027797e+00
2.700000000000000000e+02,7.044053431060295800e+00
2.710000000000000000e+02,7.053214541626921630e+00
2.720000000000000000e+02,7.062335721633692387e+00
2.730000000000000000e+02,7.071417015065772027e+00
2.740000000000000000e+02,7.080458931903125475e+00
2.750000000000000000e+02,7.089461976387287478e+00
2.760000000000000000e+02,7.098425717847663741e+00
2.770000000000000000e+02,7.107351119827858277e+00
2.780000000000000000e+02,7.116237979908484945e+00
2.790000000000000000e+02,7.125086558332141884e+00
2.800000000000000000e+02,7.133897342255031582e+00
2.810000000000000000e+02,7.142670584073497864e+00
2.820000000000000000e+02,7.151406304319029239e+00
2.830000000000000000e+02,7.160104751153099301e+00
2.840000000000000000e+02,7.168766625395643466e+00
2.850000000000000000e+02,7.177391484451403514e+00
2.860000000000000000e+02,7.185980703016610960e+00
2.870000000000000000e+02,7.194533380677885503e+00
2.880000000000000000e+02,7.203050204420564206e+00
2.890000000000000000e+02,7.211531629187450498e+00
2.900000000000000000e+02,7.219978105196759977e+00
2.910000000000000000e+02,7.228388957820471639e+00
2.920000000000000000e+02,7.236765529931521890e+00
2.930000000000000000e+02,7.245107144497404228e+00
2.940000000000000000e+02,7.253414242747748375e+00
2.950000000000000000e+02,7.261687261437176133e+00
2.960000000000000000e+02,7.269925968457529919e+00
2.970000000000000000e+02,7.278131017317919671e+00
2.980000000000000000e+02,7.286302393745359041e+00
2.990000000000000000e+02,7.294440523176287883e+00
3.000000000000000000e+02,7.302546046359575271e+00
3.010000000000000000e+02,7.310618502830203091e+00
3.020000000000000000e+02,7.318657654323759587e+00
3.030000000000000000e+02,7.326665008807900392e+00
3.040000000000000000e+02,7.334640102345579393e+00
3.050000000000000000e+02,7.342583126018164208e+00
3.060000000000000000e+02,7.350494268868875025e+00
3.070000000000000000e+02,7.358373717932220615e+00
3.080000000000000000e+02,7.366221658262870342e+00
3.090000000000000000e+02,7.374038488241547284e+00
3.100000000000000000e+02,7.381823958038843614e+00
3.110000000000000000e+02,7.389578891418656426e+00
3.120000000000000000e+02,7.397303035258819826e+00
3.130000000000000000e+02,7.404996351667565868e+00
3.140000000000000000e+02,7.412659654860714653e+00
3.150000000000000000e+02,7.420293114180405603e+00
3.160000000000000000e+02,7.427896048570449494e+00
3.170000000000000000e+02,7.435469687795283278e+00
3.180000000000000000e+02,7.443013772142416329e+00
3.190000000000000000e+02,7.450528465426003777e+00
3.200000000000000000e+02,7.458013929805717090e+00
3.210000000000000000e+02,7.465470535845994959e+00
3.220000000000000000e+02,7.472897393116012310e+00
3.230000000000000000e+02,7.480296337567225784e+00
3.240000000000000000e+02,7.487666684824809238e+00
3.250000000000000000e+02,7.495008797499479236e+00
3.260000000000000000e+02,7.502322619095955325e+00
3.270000000000000000e+02,7.509608508394040705e+00
3.280000000000000000e+02,7.516866406737554129e+00
3.290000000000000000e+02,7.524096669165759366e+00
3.300000000000000000e+02,7.531299028547717711e+00
3.310000000000000000e+02,7.538474043436012906e+00
3.320000000000000000e+02,7.545622267838613340e+00
3.330000000000000000e+02,7.552743635656697485e+00
3.340000000000000000e+02,7.559837671353760058e+00
3.350000000000000000e+02,7.566905129318226564e+00
3.360000000000000000e+02,7.573945941773525981e+00
3.370000000000000000e+02,7.580960041162654761e+00
3.380000000000000000e+02,7.587947970072923098e+00
3.390000000000000000e+02,7.594909860947645086e+00
3.400000000000000000e+02,7.601845642420391513e+00
3.410000000000000000e+02,7.608755849971459817e+00
3.420000000000000000e+02,7.615640409428000801e+00
3.430000000000000000e+02,7.622498843944213398e+00
3.440000000000000000e+02,7.629332288713056798e+00
3.450000000000000000e+02,7.636140063775903819e+00
3.460000000000000000e+02,7.642923096922507042e+00
3.470000000000000000e+02,7.649680908816506530e+00
3.480000000000000000e+02,7.656414221392152442e+00
3.490000000000000000e+02,7.663122156534516449e+00
3.500000000000000000e+02,7.669805831948253605e+00
3.510000000000000000e+02,7.676464768120354165e+00
3.520000000000000000e+02,7.683099678447745440e+00
3.530000000000000000e+02,7.689710083375313587e+00
3.540000000000000000e+02,7.696296889781844008e+00
3.550000000000000000e+02,7.702859419794886087e+00
3.560000000000000000e+02,7.709398181647133974e+00
3.570000000000000000e+02,7.715913090022588960e+00
3.580000000000000000e+02,7.722404648822757345e+00
3.590000000000000000e+02,7.728872770445510021e+00
3.600000000000000000e+02,7.735317367646807440e+00
3.610000000000000000e+02,7.741738939472676329e+00
3.620000000000000000e+02,7.748137201475892688e+00
3.630000000000000000e+02,7.754512649541214664e+00
3.640000000000000000e+02,7.760865387373509172e+00
3.650000000000000000e+02,7.767195517784186265e+00
3.660000000000000000e+02,7.773502755260118136e+00
3.670000000000000000e+02,7.779787589549317595e+00
3.680000000000000000e+02,7.786049927735855469e+00
3.690000000000000000e+02,7.792290255650299535e+00
3.700000000000000000e+02,7.798508093408421438e+00
3.710000000000000000e+02,7.804704117018233411e+00
3.720000000000000000e+02,7.810878230512579457e+00
3.730000000000000000e+02,7.817030529896813462e+00
3.740000000000000000e+02,7.823161301639402154e+00
3.750000000000000000e+02,7.829270257305928737e+00
3.760000000000000000e+02,7.835357682079767905e+00
3.770000000000000000e+02,7.841423859174857292e+00
3.780000000000000000e+02,7.847468879775524542e+00
3.790000000000000000e+02,7.853492644519406873e+00
3.800000000000000000e+02,7.859495243964284228e+00
3.810000000000000000e+02,7.865476957138841207e+00
3.820000000000000000e+02,7.871437683327880741e+00
3.830000000000000000e+02,7.877377888171917419e+00
3.840000000000000000e+02,7.883297657599828590e+00
3.850000000000000000e+02,7.889196512604265799e+00
3.860000000000000000e+02,7.895075103654201065e+00
3.870000000000000000e+02,7.900933327080757351e+00
3.880000000000000000e+02,7.906771266895393779e+00
3.890000000000000000e+02,7.912589006435014838e+00
3.900000000000000000e+02,7.918386815065589168e+00
3.910000000000000000e+02,7.924164587555540429e+00
3.920000000000000000e+02,7.929922591418971045e+00
3.930000000000000000e+02,7.935660906562454819e+00
3.940000000000000000e+02,7.941379797878780344e+00
3.950000000000000000e+02,7.947078787168888603e+00
3.960000000000000000e+02,7.952758139145341687e+00
3.970000000000000000e+02,7.958418301662089966e+00
3.980000000000000000e+02,7.964059350743169396e+00
