# Time [s], Convective Heat Transfer Coefficient [W/m2K]
1.000000000000000000e+00,0.000000000000000000e+00
2.000000000000000000e+00,0.000000000000000000e+00
3.000000000000000000e+00,0.000000000000000000e+00
4.000000000000000000e+00,0.000000000000000000e+00
5.000000000000000000e+00,1.915079995362458862e-02
6.000000000000000000e+00,3.908348017778424249e-02
7.000000000000000000e+00,6.494441196138320271e-02
8.000000000000000000e+00,1.012995442898934617e-01
9.000000000000000000e+00,1.483140038855884357e-01
1.000000000000000000e+01,2.069264488858795492e-01
1.100000000000000000e+01,2.771961472228220980e-01
1.200000000000000000e+01,3.586448794149483255e-01
1.300000000000000000e+01,4.504609903451881059e-01
1.400000000000000000e+01,5.516940599709800885e-01
1.500000000000000000e+01,6.612485277282075247e-01
1.600000000000000000e+01,7.779930515302533323e-01
1.700000000000000000e+01,9.008354384542758275e-01
1.800000000000000000e+01,1.028753900189103954e+00
1.900000000000000000e+01,1.160818245738549859e+00
2.000000000000000000e+01,1.296180745405577817e+00
2.100000000000000000e+01,1.434104980776133909e+00
2.200000000000000000e+01,1.573934252381087973e+00
2.300000000000000000e+01,1.715092171207314831e+00
2.400000000000000000e+01,1.857085350718546080e+00
2.500000000000000000e+01,1.999475471321525033e+00
2.600000000000000000e+01,2.141892077927214366e+00
2.700000000000000000e+01,2.284018773010217718e+00
2.800000000000000000e+01,2.425562558626372933e+00
2.900000000000000000e+01,2.566249322081272322e+00
3.000000000000000000e+01,2.705884774132671922e+00
3.100000000000000000e+01,2.844285509622926700e+00
3.200000000000000000e+01,2.981269490882189732e+00
3.300000000000000000e+01,3.116721282957154227e+00
3.400000000000000000e+01,3.250532714126122436e+00
3.500000000000000000e+01,3.382599974691332445e+00
3.600000000000000000e+01,3.512850417553425864e+00
3.700000000000000000e+01,3.641247699290072415e+00
3.800000000000000000e+01,3.767744890189106854e+00
3.900000000000000000e+01,3.892324939236335712e+00
4.000000000000000000e+01,4.014963667105218903e+00
4.100000000000000000e+01,4.135682157123881098e+00
4.200000000000000000e+01,4.254452229710975253e+00
4.300000000000000000e+01,4.371293626443866209e+00
4.400000000000000000e+01,4.486216709578612516e+00
4.500000000000000000e+01,4.599228123184013306e+00
4.600000000000000000e+01,4.710352836689516209e+00
4.700000000000000000e+01,4.819610534847100780e+00
4.800000000000000000e+01,4.927023578016221705e+00
4.900000000000000000e+01,5.032636981798034093e+00
5.000000000000000000e+01,5.136467240897067299e+00
5.100000000000000000e+01,5.238551073559344573e+00
5.200000000000000000e+01,5.338910531514924784e+00
5.300000000000000000e+01,5.437575087205356539e+00
5.400000000000000000e+01,5.534579774002912345e+00
5.500000000000000000e+01,5.629955518319637697e+00
5.600000000000000000e+01,5.723744137059586734e+00
5.700000000000000000e+01,5.815958265316975684e+00
5.800000000000000000e+01,5.906642243992139996e+00
5.900000000000000000e+01,5.995813006303239767e+00
6.000000000000000000e+01,6.083501614617523146e+00
6.100000000000000000e+01,6.169749212052014542e+00
6.200000000000000000e+01,6.254588392077917725e+00
6.300000000000000000e+01,6.338046456672451257e+00
6.400000000000000000e+01,6.420146275889352161e+00
6.500000000000000000e+01,6.500922506054873651e+00
6.600000000000000000e+01,6.580396761195215660e+00
6.700000000000000000e+01,6.658595996467891354e+00
6.800000000000000000e+01,6.735551834104493985e+00
6.900000000000000000e+01,6.811278293285566221e+00
7.000000000000000000e+01,6.885804503474952654e+00
7.100000000000000000e+01,6.959164605172098561e+00
7.200000000000000000e+01,7.031373053842149723e+00
7.300000000000000000e+01,7.102463222485813077e+00
7.400000000000000000e+01,7.172452758427495745e+00
7.500000000000000000e+01,7.241357336438347225e+00
7.600000000000000000e+01,7.309213820143925844e+00
7.700000000000000000e+01,7.376037013725041724e+00
7.800000000000000000e+01,7.441847180090420011e+00
7.900000000000000000e+01,7.506665395515153882e+00
8.000000000000000000e+01,7.570510609095314258e+00
8.100000000000000000e+01,7.633397999716359017e+00
8.200000000000000000e+01,7.695347571070834114e+00
8.300000000000000000e+01,7.756379675587742106e+00
8.400000000000000000e+01,7.816510959445231776e+00
8.500000000000000000e+01,7.875759921829205368e+00
8.600000000000000000e+01,7.934143798580846507e+00
8.700000000000000000e+01,7.991680850394113023e+00
8.800000000000000000e+01,8.048386313194097141e+00
8.900000000000000000e+01,8.104278487844359447e+00
9.000000000000000000e+01,8.159365872213838244e+00
9.100000000000000000e+01,8.213671233794304527e+00
9.200000000000000000e+01,8.267206874809989614e+00
9.300000000000000000e+01,8.319987816229692967e+00
9.400000000000000000e+01,8.372016095812385927e+00
9.500000000000000000e+01,8.423317030067501321e+00
9.600000000000000000e+01,8.473901302315239192e+00
9.700000000000000000e+01,8.523777591030285095e+00
9.800000000000000000e+01,8.572953321202026800e+00
9.900000000000000000e+01,8.621450166714025087e+00
1.000000000000000000e+02,8.669273514666130609e+00
1.010000000000000000e+02,8.716440318339421012e+00
1.020000000000000000e+02,8.762961712685306992e+00
1.030000000000000000e+02,8.808842871314523038e+00
1.040000000000000000e+02,8.854098692926308800e+00
1.050000000000000000e+02,8.898737199152765953e+00
1.060000000000000000e+02,8.942769978431623912e+00
1.070000000000000000e+02,8.986204331609080498e+00
1.080000000000000000e+02,9.029049653184429758e+00
1.090000000000000000e+02,9.071312782327712654e+00
1.100000000000000000e+02,9.112996430496217215e+00
1.110000000000000000e+02,9.154115990533492564e+00
1.120000000000000000e+02,9.194677375521290941e+00
1.130000000000000000e+02,9.234686633333250683e+00
1.140000000000000000e+02,9.274151846704073776e+00
1.150000000000000000e+02,9.313083723830581917e+00
1.160000000000000000e+02,9.351486926194585436e+00
1.170000000000000000e+02,9.389366424536834899e+00
1.180000000000000000e+02,9.426730911639824129e+00
1.190000000000000000e+02,9.463585599881698229e+00
1.200000000000000000e+02,9.499937026995901590e+00
1.210000000000000000e+02,9.535788887624725874e+00
1.220000000000000000e+02,9.571144184631027230e+00
1.230000000000000000e+02,9.606008298668326617e+00
1.240000000000000000e+02,9.640384746430704865e+00
1.250000000000000000e+02,9.674280000034237048e+00
1.260000000000000000e+02,9.707698789495712077e+00
1.270000000000000000e+02,9.740638488497278757e+00
1.280000000000000000e+02,9.773106395129707025e+00
1.290000000000000000e+02,9.805107350033104296e+00
1.300000000000000000e+02,9.836638253052498726e+00
1.310000000000000000e+02,9.867702379996458717e+00
1.320000000000000000e+02,9.898301534831469795e+00
1.330000000000000000e+02,9.928433600817905713e+00
1.340000000000000000e+02,9.958100093468218006e+00
1.350000000000000000e+02,9.987296075497564374e+00
1.360000000000000000e+02,1.001602212615090437e+01
1.370000000000000000e+02,1.004427420191742293e+01
1.380000000000000000e+02,1.007205022434585828e+01
1.390000000000000000e+02,1.009934749706338231e+01
1.400000000000000000e+02,1.012616214782820556e+01
1.410000000000000000e+02,1.015249006357185735e+01
1.420000000000000000e+02,1.017832519664064783e+01
1.430000000000000000e+02,1.020366747796884077e+01
1.440000000000000000e+02,1.022851002180462920e+01
1.450000000000000000e+02,1.025284529887397156e+01
1.460000000000000000e+02,1.027667024233338644e+01
1.470000000000000000e+02,1.029997984909194386e+01
1.480000000000000000e+02,1.032276633922403519e+01
1.490000000000000000e+02,1.034502577235809362e+01
1.500000000000000000e+02,1.036675207651753539e+01
1.510000000000000000e+02,1.038794142540472087e+01
1.520000000000000000e+02,1.040858797251739176e+01
1.530000000000000000e+02,1.042868948171037147e+01
1.540000000000000000e+02,1.044824596561250196e+01
1.550000000000000000e+02,1.046725536732866857e+01
1.560000000000000000e+02,1.048571806687001917e+01
1.570000000000000000e+02,1.050363418348208633e+01
1.580000000000000000e+02,1.052100812622454740e+01
1.590000000000000000e+02,1.053784662669196592e+01
1.600000000000000000e+02,1.055415071918319292e+01
1.610000000000000000e+02,1.056993207123162826e+01
1.620000000000000000e+02,1.058520154691485438e+01
1.630000000000000000e+02,1.059996870681636061e+01
1.640000000000000000e+02,1.061424640614923476e+01
1.650000000000000000e+02,1.062805386861100132e+01
1.660000000000000000e+02,1.064140462544643206e+01
1.670000000000000000e+02,1.065432021187870149e+01
1.680000000000000000e+02,1.066682051563708278e+01
1.690000000000000000e+02,1.067892791740293745e+01
1.700000000000000000e+02,1.069066389743594669e+01
1.710000000000000000e+02,1.070205345488203008e+01
1.720000000000000000e+02,1.071311967924096820e+01
1.730000000000000000e+02,1.072388724502275714e+01
1.740000000000000000e+02,1.073438027545732787e+01
1.750000000000000000e+02,1.074462945795831104e+01
1.760000000000000000e+02,1.075465610434280705e+01
1.770000000000000000e+02,1.076448780640589398e+01
1.780000000000000000e+02,1.077414961423942685e+01
1.790000000000000000e+02,1.078366809394763415e+01
1.800000000000000000e+02,1.079306499044956702e+01
1.810000000000000000e+02,1.080236710591268690e+01
1.820000000000000000e+02,1.081159394284260067e+01
1.830000000000000000e+02,1.082077006657202745e+01
1.840000000000000000e+02,1.082991897639188039e+01
1.850000000000000000e+02,1.083906012677656250e+01
1.860000000000000000e+02,1.084821403482700397e+01
1.870000000000000000e+02,1.085739988769028308e+01
1.880000000000000000e+02,1.086663822929772216e+01
1.890000000000000000e+02,1.087594936359830378e+01
1.900000000000000000e+02,1.088534831553583970e+01
1.910000000000000000e+02,1.089485631366748386e+01
1.920000000000000000e+02,1.090448773764080670e+01
1.930000000000000000e+02,1.091426255653825805e+01
1.940000000000000000e+02,1.092419391488734171e+01
1.950000000000000000e+02,1.093430561776106380e+01
1.960000000000000000e+02,1.094461160162268776e+01
1.970000000000000000e+02,1.095512860268453537e+01
1.980000000000000000e+02,1.096587524791805990e+01
1.990000000000000000e+02,1.097687280623724604e+01
2.000000000000000000e+02,1.098813952956102824e+01
2.010000000000000000e+02,1.099969435027214892e+01
2.020000000000000000e+02,1.101155647792671743e+01
2.030000000000000000e+02,1.102374962374497791e+01
2.040000000000000000e+02,1.103629895836792407e+01
2.050000000000000000e+02,1.104922427142740560e+01
2.060000000000000000e+02,1.106255694913015475e+01
2.070000000000000000e+02,1.107631825168077633e+01
2.080000000000000000e+02,1.109054444765977721e+01
2.090000000000000000e+02,1.110526353206282124e+01
2.100000000000000000e+02,1.112050666531891174e+01
2.110000000000000000e+02,1.113631451966249131e+01
2.120000000000000000e+02,1.115272308429063486e+01
2.130000000000000000e+02,1.116976444200732743e+01
2.140000000000000000e+02,1.118748577463907878e+01
2.150000000000000000e+02,1.120592707453486092e+01
2.160000000000000000e+02,1.122513058727631119e+01
2.170000000000000000e+02,1.124513497519367178e+01
2.180000000000000000e+02,1.126597698001034331e+01
2.190000000000000000e+02,1.128768864196102584e+01
2.200000000000000000e+02,1.131029422099117987e+01
2.210000000000000000e+02,1.133379991322038371e+01
2.220000000000000000e+02,1.135819836827050366e+01
2.230000000000000000e+02,1.138344612020399360e+01
2.240000000000000000e+02,1.140947781881584788e+01
2.250000000000000000e+02,1.143618048974236068e+01
2.260000000000000000e+02,1.146339716133753583e+01
2.270000000000000000e+02,1.149092911467296574e+01
2.280000000000000000e+02,1.151853578494231378e+01
2.290000000000000000e+02,1.154596702529595476e+01
2.300000000000000000e+02,1.157298405265317243e+01
2.310000000000000000e+02,1.159940311213614095e+01
2.320000000000000000e+02,1.162511875983851262e+01
2.330000000000000000e+02,1.165010604889058676e+01
2.340000000000000000e+02,1.167440791482325757e+01
2.350000000000000000e+02,1.169809836158270677e+01
2.360000000000000000e+02,1.172125079212768028e+01
2.370000000000000000e+02,1.174391779904698296e+01
2.380000000000000000e+02,1.176614395817618686e+01
2.390000000000000000e+02,1.178796020007267309e+01
2.400000000000000000e+02,1.180939550055625986e+01
2.410000000000000000e+02,1.183047074397839715e+01
2.420000000000000000e+02,1.185120821480334818e+01
2.430000000000000000e+02,1.187162460693320298e+01
2.440000000000000000e+02,1.189173592973807736e+01
2.450000000000000000e+02,1.191155455663579410e+01
2.460000000000000000e+02,1.193109340292910758e+01
2.470000000000000000e+02,1.195036387274641676e+01
2.480000000000000000e+02,1.196937564278462141e+01
2.490000000000000000e+02,1.198813807813467847e+01
2.500000000000000000e+02,1.200666097123551168e+01
2.510000000000000000e+02,1.202494862878109494e+01
2.520000000000000000e+02,1.204301085322241782e+01
2.530000000000000000e+02,1.206085449353961536e+01
2.540000000000000000e+02,1.207848485533894234e+01
2.550000000000000000e+02,1.209590812526448822e+01
2.560000000000000000e+02,1.211313135993480827e+01
2.570000000000000000e+02,1.213015817934973306e+01
2.580000000000000000e+02,1.214699397321072283e+01
2.590000000000000000e+02,1.216364461168957156e+01
2.600000000000000000e+02,1.218011210047215798e+01
2.610000000000000000e+02,1.219640210976864836e+01
2.620000000000000000e+02,1.221251796137753232e+01
2.630000000000000000e+02,1.222846426160919009e+01
2.640000000000000000e+02,1.224424423070941970e+01
2.650000000000000000e+02,1.225986151280505076e+01
2.660000000000000000e+02,1.227531908363247837e+01
2.670000000000000000e+02,1.229062057698606303e+01
2.680000000000000000e+02,1.230576888577473937e+01
2.690000000000000000e+02,1.232076663444366815e+01
2.700000000000000000e+02,1.233561610582903967e+01
2.710000000000000000e+02,1.235032039689494887e+01
2.720000000000000000e+02,1.236488272048055848e+01
2.730000000000000000e+02,1.237930495317592516e+01
2.740000000000000000e+02,1.239359092835137588e+01
2.750000000000000000e+02,1.240773957085325918e+01
2.760000000000000000e+02,1.242175602938196377e+01
2.770000000000000000e+02,1.243564161491722508e+01
2.780000000000000000e+02,1.244939852679388359e+01
2.790000000000000000e+02,1.246302893882280394e+01
2.800000000000000000e+02,1.247653409751118936e+01
2.810000000000000000e+02,1.248991575808751975e+01
2.820000000000000000e+02,1.250317745225658150e+01
2.830000000000000000e+02,1.251631938863410731e+01
2.840000000000000000e+02,1.252934363302479603e+01
2.850000000000000000e+02,1.254225141039255398e+01
2.860000000000000000e+02,1.255504467325382123e+01
2.870000000000000000e+02,1.256772557571424365e+01
2.880000000000000000e+02,1.258029469656886512e+01
2.890000000000000000e+02,1.259275363885235244e+01
2.900000000000000000e+02,1.260510428312647591e+01
2.910000000000000000e+02,1.261734827028580774e+01
2.920000000000000000e+02,1.262948693072622852e+01
2.930000000000000000e+02,1.264152055501164185e+01
2.940000000000000000e+02,1.265345140145558389e+01
2.950000000000000000e+02,1.266528002897281802e+01
2.960000000000000000e+02,1.267700837241619283e+01
2.970000000000000000e+02,1.268863696714284472e+01
2.980000000000000000e+02,1.270016771983533488e+01
2.990000000000000000e+02,1.271160143309340462e+01
3.000000000000000000e+02,1.272293868330000244e+01
3.010000000000000000e+02,1.273418133866294610e+01
3.020000000000000000e+02,1.274532988167849012e+01
3.030000000000000000e+02,1.275638694629170189e+01
3.040000000000000000e+02,1.276735205706621912e+01
3.050000000000000000e+02,1.277822660267553267e+01
3.060000000000000000e+02,1.278901110042521694e+01
3.070000000000000000e+02,1.279970670416496326e+01
3.080000000000000000e+02,1.281031534173498088e+01
3.090000000000000000e+02,1.282083721618864658e+01
3.100000000000000000e+02,1.283127252643556204e+01
3.110000000000000000e+02,1.284162274502446266e+01
3.120000000000000000e+02,1.285188933228570995e+01
3.130000000000000000e+02,1.286207260442902189e+01
3.140000000000000000e+02,1.287217336760099151e+01
3.150000000000000000e+02,1.288219242032663914e+01
3.160000000000000000e+02,1.289213146924349118e+01
3.170000000000000000e+02,1.290198988739553521e+01
3.180000000000000000e+02,1.291176950678938873e+01
3.190000000000000000e+02,1.292147011276180812e+01
3.200000000000000000e+02,1.293109414983782024e+01
3.210000000000000000e+02,1.294064083020644063e+01
3.220000000000000000e+02,1.295011209069940961e+01
3.230000000000000000e+02,1.295950734545501781e+01
3.240000000000000000e+02,1.296882698422700209e+01
3.250000000000000000e+02,1.297807431138507717e+01
3.260000000000000000e+02,1.298724796049205743e+01
3.270000000000000000e+02,1.299634892717051393e+01
3.280000000000000000e+02,1.300537806103315219e+01
3.290000000000000000e+02,1.301433565209614684e+01
3.300000000000000000e+02,1.302322316016379666e+01
3.310000000000000000e+02,1.303204093237134664e+01
3.320000000000000000e+02,1.304078972512534484e+01
3.330000000000000000e+02,1.304947008272821662e+01
3.340000000000000000e+02,1.305808233884206437e+01
3.350000000000000000e+02,1.306662675503418214e+01
3.360000000000000000e+02,1.307510406905288569e+01
3.370000000000000000e+02,1.308351562855530048e+01
3.380000000000000000e+02,1.309186147494444619e+01
3.390000000000000000e+02,1.310014246629686951e+01
3.400000000000000000e+02,1.310835897784920689e+01
3.410000000000000000e+02,1.311651206177243978e+01
3.420000000000000000e+02,1.312460194796416779e+01
3.430000000000000000e+02,1.313262886365352422e+01
3.440000000000000000e+02,1.314059377914597171e+01
3.450000000000000000e+02,1.314849698144823797e+01
3.460000000000000000e+02,1.315633956627858048e+01
3.470000000000000000e+02,1.316412167700555713e+01
3.480000000000000000e+02,1.317184352238053080e+01
3.490000000000000000e+02,1.317950571312715091e+01
3.500000000000000000e+02,1.318710845186015490e+01
3.510000000000000000e+02,1.319465361983635177e+01
3.520000000000000000e+02,1.320214100640260924e+01
3.530000000000000000e+02,1.320957073600347798e+01
3.540000000000000000e+02,1.321694266319038391e+01
3.550000000000000000e+02,1.322425898466674354e+01
3.560000000000000000e+02,1.323151941224234385e+01
3.570000000000000000e+02,1.323872345741108703e+01
3.580000000000000000e+02,1.324587276756412813e+01
3.590000000000000000e+02,1.325296804873745415e+01
3.600000000000000000e+02,1.326000813865810279e+01
3.610000000000000000e+02,1.326699533715384050e+01
3.620000000000000000e+02,1.327392934220908849e+01
3.630000000000000000e+02,1.328080998470809249e+01
3.640000000000000000e+02,1.328763895152793850e+01
3.650000000000000000e+02,1.329441560341879836e+01
3.660000000000000000e+02,1.330114135380579299e+01
3.670000000000000000e+02,1.330781516370468154e+01
3.680000000000000000e+02,1.331443910082387205e+01
3.690000000000000000e+02,1.332101258492299678e+01
3.700000000000000000e+02,1.332753615742415043e+01
3.710000000000000000e+02,1.333401035664886436e+01
3.720000000000000000e+02,1.334043571786797244e+01
3.730000000000000000e+02,1.334681237906978524e+01
3.740000000000000000e+02,1.335314126459793194e+01
3.750000000000000000e+02,1.335942172024099328e+01
3.760000000000000000e+02,1.336565512470943595e+01
3.770000000000000000e+02,1.337184154133465519e+01
3.780000000000000000e+02,1.337798109775289745e+01
3.790000000000000000e+02,1.338407437770296227e+01
3.800000000000000000e+02,1.339012222310579325e+01
3.810000000000000000e+02,1.339612403694859211e+01
3.820000000000000000e+02,1.340208104836047909e+01
3.830000000000000000e+02,1.340799350457171002e+01
3.840000000000000000e+02,1.341386100057395403e+01
3.850000000000000000e+02,1.341968488702740459e+01
3.860000000000000000e+02,1.342546443087694108e+01
3.870000000000000000e+02,1.343120143154223811e+01
3.880000000000000000e+02,1.343689476397612559e+01
3.890000000000000000e+02,1.344254563830892835e+01
3.900000000000000000e+02,1.344815428897605614e+01
3.910000000000000000e+02,1.345372081957654586e+01
3.920000000000000000e+02,1.345924636658517493e+01
3.930000000000000000e+02,1.346472999590950614e+01
3.940000000000000000e+02,1.347017329190981627e+01
3.950000000000000000e+02,1.347557564140359077e+01
3.960000000000000000e+02,1.348093746311193364e+01
3.970000000000000000e+02,1.348625891632123874e+01
3.980000000000000000e+02,1.349154125245545544e+01
