# Time [s], Convective Heat Transfer Coefficient [W/m2K]
1.000000000000000000e+00,0.000000000000000000e+00
2.000000000000000000e+00,0.000000000000000000e+00
3.000000000000000000e+00,0.000000000000000000e+00
4.000000000000000000e+00,0.000000000000000000e+00
5.000000000000000000e+00,1.915079995362458862e-02
6.000000000000000000e+00,2.762023300960968902e-02
7.000000000000000000e+00,4.322677809297574558e-02
8.000000000000000000e+00,6.438451848066449601e-02
9.000000000000000000e+00,9.272258704582028721e-02
1.000000000000000000e+01,1.270519115699834944e-01
1.100000000000000000e+01,1.673673256058234304e-01
1.200000000000000000e+01,2.133671943474288735e-01
1.300000000000000000e+01,2.643791503459851921e-01
1.400000000000000000e+01,3.197848687361946607e-01
1.500000000000000000e+01,3.788698153040451766e-01
1.600000000000000000e+01,4.410227966064183547e-01
1.700000000000000000e+01,5.056200974759716971e-01
1.800000000000000000e+01,5.721487135782068467e-01
1.900000000000000000e+01,6.401415786781231576e-01
2.000000000000000000e+01,7.091945760331537230e-01
2.100000000000000000e+01,7.789665724303771466e-01
2.200000000000000000e+01,8.491626444669864160e-01
2.300000000000000000e+01,9.195472227981109636e-01
2.400000000000000000e+01,9.899090505028291798e-01
2.500000000000000000e+01,1.060079065354299743e+00
2.600000000000000000e+01,1.129915535656559111e+00
2.700000000000000000e+01,1.199300290870429553e+00
2.800000000000000000e+01,1.268136779149577897e+00
2.900000000000000000e+01,1.336349175037876424e+00
3.000000000000000000e+01,1.403872037861148669e+00
3.100000000000000000e+01,1.470658768603149147e+00
3.200000000000000000e+01,1.536666794046025686e+00
3.300000000000000000e+01,1.601866314397671243e+00
3.400000000000000000e+01,1.666235975726606089e+00
3.500000000000000000e+01,1.729758015653305225e+00
3.600000000000000000e+01,1.792422803138084664e+00
3.700000000000000000e+01,1.854223991177984310e+00
3.800000000000000000e+01,1.915157872593135524e+00
3.900000000000000000e+01,1.975228906236091930e+00
4.000000000000000000e+01,2.034436048530363195e+00
4.100000000000000000e+01,2.092788622256068098e+00
4.200000000000000000e+01,2.150292669612326346e+00
4.300000000000000000e+01,2.206955306218308266e+00
4.400000000000000000e+01,2.262790584408516548e+00
4.500000000000000000e+01,2.317805840944253237e+00
4.600000000000000000e+01,2.372015224841540260e+00
4.700000000000000000e+01,2.425432824158885836e+00
4.800000000000000000e+01,2.478067694964142031e+00
4.900000000000000000e+01,2.529936024588599786e+00
5.000000000000000000e+01,2.581052713448010572e+00
5.100000000000000000e+01,2.631428916898071346e+00
5.200000000000000000e+01,2.681079587243839324e+00
5.300000000000000000e+01,2.730018430288077891e+00
5.400000000000000000e+01,2.778259818595848252e+00
5.500000000000000000e+01,2.825816079914774015e+00
5.600000000000000000e+01,2.872703261861984991e+00
5.700000000000000000e+01,2.918934277182864356e+00
5.800000000000000000e+01,2.964521431822526587e+00
5.900000000000000000e+01,3.009477993897720083e+00
6.000000000000000000e+01,3.053817864474238863e+00
6.100000000000000000e+01,3.097552745633546767e+00
6.200000000000000000e+01,3.140694048427297602e+00
6.300000000000000000e+01,3.183256002507814930e+00
6.400000000000000000e+01,3.225249283613806917e+00
6.500000000000000000e+01,3.266687236205856326e+00
6.600000000000000000e+01,3.307580266752571774e+00
6.700000000000000000e+01,3.347939819188151311e+00
6.800000000000000000e+01,3.387776796392125700e+00
6.900000000000000000e+01,3.427102094004069510e+00
7.000000000000000000e+01,3.465925700383561292e+00
7.100000000000000000e+01,3.504258489733059534e+00
7.200000000000000000e+01,3.542110148963628191e+00
7.300000000000000000e+01,3.579491019531835683e+00
7.400000000000000000e+01,3.616409956235244305e+00
7.500000000000000000e+01,3.652875513432362720e+00
7.600000000000000000e+01,3.688897681340551848e+00
7.700000000000000000e+01,3.724485374469344023e+00
7.800000000000000000e+01,3.759646687091292350e+00
7.900000000000000000e+01,3.794390096629198794e+00
8.000000000000000000e+01,3.828723941279253751e+00
8.100000000000000000e+01,3.862656031973057846e+00
8.200000000000000000e+01,3.896194692905936563e+00
8.300000000000000000e+01,3.929348105263638313e+00
8.400000000000000000e+01,3.962122300029816468e+00
8.500000000000000000e+01,3.994524848105311943e+00
8.600000000000000000e+01,4.026562638923731896e+00
8.700000000000000000e+01,4.058242853262307825e+00
8.800000000000000000e+01,4.089572167061749752e+00
8.900000000000000000e+01,4.120556785841618996e+00
9.000000000000000000e+01,4.151202815724609252e+00
9.100000000000000000e+01,4.181517070932091684e+00
9.200000000000000000e+01,4.211507548780300425e+00
9.300000000000000000e+01,4.241177943646201598e+00
9.400000000000000000e+01,4.270533909967276109e+00
9.500000000000000000e+01,4.299581090910965742e+00
9.600000000000000000e+01,4.328325179840929238e+00
9.700000000000000000e+01,4.356771298820415694e+00
9.800000000000000000e+01,4.384925555944702680e+00
9.900000000000000000e+01,4.412794801588919569e+00
1.000000000000000000e+02,4.440381179076475782e+00
1.010000000000000000e+02,4.467689859524584861e+00
1.020000000000000000e+02,4.494725497358520450e+00
1.030000000000000000e+02,4.521493004571854435e+00
1.040000000000000000e+02,4.547997874618009639e+00
1.050000000000000000e+02,4.574245589228655540e+00
1.060000000000000000e+02,4.600238908536353755e+00
1.070000000000000000e+02,4.625980811942311810e+00
1.080000000000000000e+02,4.651476703318530248e+00
1.090000000000000000e+02,4.676730426063191892e+00
1.100000000000000000e+02,4.701746676135114988e+00
1.110000000000000000e+02,4.726530433179718216e+00
1.120000000000000000e+02,4.751083523357164218e+00
1.130000000000000000e+02,4.775409143134067946e+00
1.140000000000000000e+02,4.799511688095281059e+00
1.150000000000000000e+02,4.823395083343974044e+00
1.160000000000000000e+02,4.847063304955791629e+00
1.170000000000000000e+02,4.870520130940966474e+00
1.180000000000000000e+02,4.893766755772683830e+00
1.190000000000000000e+02,4.916807140938898257e+00
1.200000000000000000e+02,4.939644816119847626e+00
1.210000000000000000e+02,4.962283184418618376e+00
1.220000000000000000e+02,4.984726376271984449e+00
1.230000000000000000e+02,5.006975855459441682e+00
1.240000000000000000e+02,5.029033961411602860e+00
1.250000000000000000e+02,5.050904054484412598e+00
1.260000000000000000e+02,5.072589698939236946e+00
1.270000000000000000e+02,5.094093707352407741e+00
1.280000000000000000e+02,5.115419245934236692e+00
1.290000000000000000e+02,5.136566758824567813e+00
1.300000000000000000e+02,5.157539843829938242e+00
1.310000000000000000e+02,5.178341109211914706e+00
1.320000000000000000e+02,5.198973902417589166e+00
1.330000000000000000e+02,5.219440992255088396e+00
1.340000000000000000e+02,5.239742886226997243e+00
1.350000000000000000e+02,5.259882275301277943e+00
1.360000000000000000e+02,5.279861851432886333e+00
1.370000000000000000e+02,5.299684016064205139e+00
1.380000000000000000e+02,5.319352380486265019e+00
1.390000000000000000e+02,5.338867327562697440e+00
1.400000000000000000e+02,5.358230328344457227e+00
1.410000000000000000e+02,5.377444186274010995e+00
1.420000000000000000e+02,5.396511342139163503e+00
1.430000000000000000e+02,5.415434286260667029e+00
1.440000000000000000e+02,5.434215041745065200e+00
1.450000000000000000e+02,5.452854275231764802e+00
1.460000000000000000e+02,5.471353806409448239e+00
1.470000000000000000e+02,5.489716025534812083e+00
1.480000000000000000e+02,5.507942987249479394e+00
1.490000000000000000e+02,5.526036958530123222e+00
1.500000000000000000e+02,5.543999536068403344e+00
1.510000000000000000e+02,5.561831138221918991e+00
1.520000000000000000e+02,5.579533975431096415e+00
1.530000000000000000e+02,5.597109751868369010e+00
1.540000000000000000e+02,5.614560535526864626e+00
1.550000000000000000e+02,5.631888894830614944e+00
1.560000000000000000e+02,5.649095022481374961e+00
1.570000000000000000e+02,5.666179724245886007e+00
1.580000000000000000e+02,5.683145161609343354e+00
1.590000000000000000e+02,5.699993118332431941e+00
1.600000000000000000e+02,5.716725155056237462e+00
1.610000000000000000e+02,5.733343755539782371e+00
1.620000000000000000e+02,5.749849007446028004e+00
1.630000000000000000e+02,5.766242050561428023e+00
1.640000000000000000e+02,5.782523996786896880e+00
1.650000000000000000e+02,5.798696662071067820e+00
1.660000000000000000e+02,5.814761681518321623e+00
1.670000000000000000e+02,5.830720583419626735e+00
1.680000000000000000e+02,5.846575066296581191e+00
1.690000000000000000e+02,5.862325052966542493e+00
1.700000000000000000e+02,5.877971990513601419e+00
1.710000000000000000e+02,5.893517057452518415e+00
1.720000000000000000e+02,5.908961606736960803e+00
1.730000000000000000e+02,5.924306761113191655e+00
1.740000000000000000e+02,5.939554580528092487e+00
1.750000000000000000e+02,5.954705628437225506e+00
1.760000000000000000e+02,5.969760455041127400e+00
1.770000000000000000e+02,5.984720480047202251e+00
1.780000000000000000e+02,5.999586507687189929e+00
1.790000000000000000e+02,6.014359971715827591e+00
1.800000000000000000e+02,6.029041567565029958e+00
1.810000000000000000e+02,6.043633417584951317e+00
1.820000000000000000e+02,6.058135177579647035e+00
1.830000000000000000e+02,6.072548476295724029e+00
1.840000000000000000e+02,6.086873898942966044e+00
1.850000000000000000e+02,6.101112772796736472e+00
1.860000000000000000e+02,6.115265678841509178e+00
1.870000000000000000e+02,6.129333653063810061e+00
1.880000000000000000e+02,6.143317679847691615e+00
1.890000000000000000e+02,6.157219249026063324e+00
1.900000000000000000e+02,6.171038408089710714e+00
1.910000000000000000e+02,6.184776364996886322e+00
1.920000000000000000e+02,6.198433756353952440e+00
1.930000000000000000e+02,6.212011570066573007e+00
1.940000000000000000e+02,6.225510473284116664e+00
1.950000000000000000e+02,6.238931601302537544e+00
1.960000000000000000e+02,6.252275349799583104e+00
1.970000000000000000e+02,6.265542583350510952e+00
1.980000000000000000e+02,6.278735041300472552e+00
1.990000000000000000e+02,6.291852480891399146e+00
2.000000000000000000e+02,6.304895663213295975e+00
2.010000000000000000e+02,6.317865394060917517e+00
2.020000000000000000e+02,6.330762727536726864e+00
2.030000000000000000e+02,6.343587972050853452e+00
2.040000000000000000e+02,6.356341893266977294e+00
2.050000000000000000e+02,6.369025676143326820e+00
2.060000000000000000e+02,6.381639393289862738e+00
2.070000000000000000e+02,6.394184231489869141e+00
2.080000000000000000e+02,6.406660901402147168e+00
2.090000000000000000e+02,6.419069732103666936e+00
2.100000000000000000e+02,6.431411272773448040e+00
2.110000000000000000e+02,6.443686739594554069e+00
2.120000000000000000e+02,6.455896233740356926e+00
2.130000000000000000e+02,6.468039853672050477e+00
2.140000000000000000e+02,6.480119646543566425e+00
2.150000000000000000e+02,6.492134850609636132e+00
2.160000000000000000e+02,6.504086927937724916e+00
2.170000000000000000e+02,6.515976215233941105e+00
2.180000000000000000e+02,6.527803043205424594e+00
2.190000000000000000e+02,6.539568010400468090e+00
2.200000000000000000e+02,6.551272523928733271e+00
2.210000000000000000e+02,6.562916339160448587e+00
2.220000000000000000e+02,6.574500297163060836e+00
2.230000000000000000e+02,6.586024416536207404e+00
2.240000000000000000e+02,6.597489790329015946e+00
2.250000000000000000e+02,6.608896423403145981e+00
2.260000000000000000e+02,6.620245655001825824e+00
2.270000000000000000e+02,6.631537208004882444e+00
2.280000000000000000e+02,6.642771869208351276e+00
2.290000000000000000e+02,6.653950149443793372e+00
2.300000000000000000e+02,6.665072551755272912e+00
2.310000000000000000e+02,6.676139571561522601e+00
2.320000000000000000e+02,6.687151435039431213e+00
2.330000000000000000e+02,6.698109147231187777e+00
2.340000000000000000e+02,6.709012918971837713e+00
2.350000000000000000e+02,6.719863216716975174e+00
2.360000000000000000e+02,6.730660500046115935e+00
2.370000000000000000e+02,6.741404964223173479e+00
2.380000000000000000e+02,6.752097828221028664e+00
2.390000000000000000e+02,6.762738503118211675e+00
2.400000000000000000e+02,6.773327682316294229e+00
2.410000000000000000e+02,6.783866304102474487e+00
2.420000000000000000e+02,6.794354026451149053e+00
2.430000000000000000e+02,6.804791774739837429e+00
2.440000000000000000e+02,6.815180210205452838e+00
2.450000000000000000e+02,6.825519482748235056e+00
2.460000000000000000e+02,6.835809739696824039e+00
2.470000000000000000e+02,6.846051375608963596e+00
2.480000000000000000e+02,6.856244779575768611e+00
2.490000000000000000e+02,6.866390831897348335e+00
2.500000000000000000e+02,6.876489163994507159e+00
2.510000000000000000e+02,6.886541138715579713e+00
2.520000000000000000e+02,6.896546133393789191e+00
2.530000000000000000e+02,6.906505004313387097e+00
2.540000000000000000e+02,6.916417863091067986e+00
2.550000000000000000e+02,6.926285307395068536e+00
2.560000000000000000e+02,6.936107684104229953e+00
2.570000000000000000e+02,6.945885092876705080e+00
2.580000000000000000e+02,6.955618115496168485e+00
2.590000000000000000e+02,6.965306844029869104e+00
2.600000000000000000e+02,6.974952090722033482e+00
2.610000000000000000e+02,6.984553458446477237e+00
2.620000000000000000e+02,6.994111989591642597e+00
2.630000000000000000e+02,7.003627759960050270e+00
2.640000000000000000e+02,7.013101081927421099e+00
2.650000000000000000e+02,7.022532026527733784e+00
2.660000000000000000e+02,7.031921610361725250e+00
2.670000000000000000e+02,7.041269185878629600e+00
2.680000000000000000e+02,7.050575760169467188e+00
2.690000000000000000e+02,7.059841389680077128e+00
2.700000000000000000e+02,7.069066598199560403e+00
2.710000000000000000e+02,7.078251202567486189e+00
2.720000000000000000e+02,7.087395953123544423e+00
2.730000000000000000e+02,7.096500429706304125e+00
2.740000000000000000e+02,7.105565607007053863e+00
2.750000000000000000e+02,7.114591524196003824e+00
2.760000000000000000e+02,7.123578680874485869e+00
2.770000000000000000e+02,7.132527340987407705e+00
2.780000000000000000e+02,7.141437535791854252e+00
2.790000000000000000e+02,7.150309524674926642e+00
2.800000000000000000e+02,7.159143335544402298e+00
2.810000000000000000e+02,7.167939679020442156e+00
2.820000000000000000e+02,7.176699030985620453e+00
2.830000000000000000e+02,7.185420955293934320e+00
2.840000000000000000e+02,7.194106150430181756e+00
2.850000000000000000e+02,7.202754856389686822e+00
2.860000000000000000e+02,7.211367535492493985e+00
2.870000000000000000e+02,7.219943746930137962e+00
2.880000000000000000e+02,7.228484397801960171e+00
2.890000000000000000e+02,7.236989492163351301e+00
2.900000000000000000e+02,7.245459479549609227e+00
2.910000000000000000e+02,7.253893914986636382e+00
2.920000000000000000e+02,7.262293466937223663e+00
2.930000000000000000e+02,7.270658575803632395e+00
2.940000000000000000e+02,7.278989456576219652e+00
2.950000000000000000e+02,7.287285660555241407e+00
2.960000000000000000e+02,7.295547842349218826e+00
2.970000000000000000e+02,7.303776430780246187e+00
2.980000000000000000e+02,7.311971412503726064e+00
2.990000000000000000e+02,7.320133429257838387e+00
3.000000000000000000e+02,7.328262026791887429e+00
3.010000000000000000e+02,7.336357841937044100e+00
3.020000000000000000e+02,7.344421071478877572e+00
3.030000000000000000e+02,7.352451910084371711e+00
3.040000000000000000e+02,7.360450118186582458e+00
3.050000000000000000e+02,7.368416320321533597e+00
3.060000000000000000e+02,7.376350920105921638e+00
3.070000000000000000e+02,7.384253673270329443e+00
3.080000000000000000e+02,7.392125194152827206e+00
3.090000000000000000e+02,7.399965022642562396e+00
3.100000000000000000e+02,7.407773982067222818e+00
3.110000000000000000e+02,7.415552462714404491e+00
3.120000000000000000e+02,7.423299789105308299e+00
3.130000000000000000e+02,7.431016562953760562e+00
3.140000000000000000e+02,7.438702957523134707e+00
3.150000000000000000e+02,7.446359355410206327e+00
3.160000000000000000e+02,7.453985925042222682e+00
3.170000000000000000e+02,7.461582833130771419e+00
3.180000000000000000e+02,7.469149825035815482e+00
3.190000000000000000e+02,7.476687694866066103e+00
3.200000000000000000e+02,7.484196185074907248e+00
3.210000000000000000e+02,7.491675665555865393e+00
3.220000000000000000e+02,7.499126502926878324e+00
3.230000000000000000e+02,7.506547814115092088e+00
3.240000000000000000e+02,7.513941003369881244e+00
3.250000000000000000e+02,7.521306015087750652e+00
3.260000000000000000e+02,7.528642793793653532e+00
3.270000000000000000e+02,7.535951490259815699e+00
3.280000000000000000e+02,7.543232253781329000e+00
3.290000000000000000e+02,7.550485232195645047e+00
3.300000000000000000e+02,7.557710981783857918e+00
3.310000000000000000e+02,7.564909031532715211e+00
3.320000000000000000e+02,7.572079526197700083e+00
3.330000000000000000e+02,7.579223016694522030e+00
3.340000000000000000e+02,7.586339642707160102e+00
3.350000000000000000e+02,7.593429745604859171e+00
3.360000000000000000e+02,7.600493258652276651e+00
3.370000000000000000e+02,7.607530115329303122e+00
3.380000000000000000e+02,7.614540653109785673e+00
3.390000000000000000e+02,7.621524803660967073e+00
3.400000000000000000e+02,7.628482901182551679e+00
3.410000000000000000e+02,7.635415277165876979e+00
3.420000000000000000e+02,7.642321859576626686e+00
3.430000000000000000e+02,7.649202576633195250e+00
3.440000000000000000e+02,7.656058155637102125e+00
3.450000000000000000e+02,7.662888521017459986e+00
3.460000000000000000e+02,7.669693199485835500e+00
3.470000000000000000e+02,7.676472912732038800e+00
3.480000000000000000e+02,7.683227980499686360e+00
3.490000000000000000e+02,7.689958126182983911e+00
3.500000000000000000e+02,7.696663865289427697e+00
3.510000000000000000e+02,7.703344723169077923e+00
3.520000000000000000e+02,7.710001409756246815e+00
3.530000000000000000e+02,7.716633253742923415e+00
3.540000000000000000e+02,7.723241746928733775e+00
3.550000000000000000e+02,7.729825823783849081e+00
3.560000000000000000e+02,7.736386186041232627e+00
3.570000000000000000e+02,7.742922749431306428e+00
3.580000000000000000e+02,7.749435819870982733e+00
3.590000000000000000e+02,7.755925117195789475e+00
3.600000000000000000e+02,7.762391139982081079e+00
3.610000000000000000e+02,7.768833995355323374e+00
3.620000000000000000e+02,7.775253789508826507e+00
3.630000000000000000e+02,7.781650241084107300e+00
3.640000000000000000e+02,7.788024228336027477e+00
3.650000000000000000e+02,7.794374696720698381e+00
3.660000000000000000e+02,7.800703291536093431e+00
3.670000000000000000e+02,7.807009150416925003e+00
3.680000000000000000e+02,7.813292375111997146e+00
3.690000000000000000e+02,7.819553449390866717e+00
3.700000000000000000e+02,7.825792089159115505e+00
3.710000000000000000e+02,7.832008775268630707e+00
3.720000000000000000e+02,7.838203604246224643e+00
3.730000000000000000e+02,7.844376671808077184e+00
3.740000000000000000e+02,7.850527692992885775e+00
3.750000000000000000e+02,7.856657332625349710e+00
3.760000000000000000e+02,7.862764925760918011e+00
3.770000000000000000e+02,7.868851512864806885e+00
3.780000000000000000e+02,7.874916617676620767e+00
3.790000000000000000e+02,7.880960520566832272e+00
3.800000000000000000e+02,7.886983499995196212e+00
3.810000000000000000e+02,7.892985268835476909e+00
3.820000000000000000e+02,7.898966104360319207e+00
3.830000000000000000e+02,7.904926281975887647e+00
3.840000000000000000e+02,7.910865701142788531e+00
3.850000000000000000e+02,7.916784635283883098e+00
3.860000000000000000e+02,7.922682610031671402e+00
3.870000000000000000e+02,7.928560829609128113e+00
3.880000000000000000e+02,7.934418445566157274e+00
3.890000000000000000e+02,7.940255728292946458e+00
3.900000000000000000e+02,7.946072946410595250e+00
3.910000000000000000e+02,7.951870366793671430e+00
3.920000000000000000e+02,7.957647330298452282e+00
3.930000000000000000e+02,7.963404842747148216e+00
3.940000000000000000e+02,7.969142798029603902e+00
3.950000000000000000e+02,7.974860906419525719e+00
3.960000000000000000e+02,7.980559614874295882e+00
3.970000000000000000e+02,7.986238633485527316e+00
3.980000000000000000e+02,7.991898406933278132e+00
