# Time [s], Convective Heat Transfer Coefficient [W/m2K]
1.000000000000000000e+00,0.000000000000000000e+00
2.000000000000000000e+00,0.000000000000000000e+00
3.000000000000000000e+00,0.000000000000000000e+00
4.000000000000000000e+00,1.915079995362458862e-02
5.000000000000000000e+00,3.040000000141642594e-02
6.000000000000000000e+00,5.599727877995352293e-02
7.000000000000000000e+00,9.162028243445757836e-02
8.000000000000000000e+00,1.400379804437520415e-01
9.000000000000000000e+00,2.017398794072192969e-01
1.000000000000000000e+01,2.769369142350578405e-01
1.100000000000000000e+01,3.650900471044939422e-01
1.200000000000000000e+01,4.652302721725637413e-01
1.300000000000000000e+01,5.760907969006027196e-01
1.400000000000000000e+01,6.962326673571201940e-01
1.500000000000000000e+01,8.241846521170091977e-01
1.600000000000000000e+01,9.585615603847394972e-01
1.700000000000000000e+01,1.098076217575124414e+00
1.800000000000000000e+01,1.241581475128361367e+00
1.900000000000000000e+01,1.388069013602085677e+00
2.000000000000000000e+01,1.536675221504773869e+00
2.100000000000000000e+01,1.686664418917538377e+00
2.200000000000000000e+01,1.837410859442261346e+00
2.300000000000000000e+01,1.988381459867279988e+00
2.400000000000000000e+01,2.139129460051839349e+00
2.500000000000000000e+01,2.289277657373687269e+00
2.600000000000000000e+01,2.438503551309545436e+00
2.700000000000000000e+01,2.586532253516908408e+00
2.800000000000000000e+01,2.733133706074813318e+00
2.900000000000000000e+01,2.878111019279362193e+00
3.000000000000000000e+01,3.021307477953144360e+00
3.100000000000000000e+01,3.162590210051758000e+00
3.200000000000000000e+01,3.301851348523846763e+00
3.300000000000000000e+01,3.439013818407485434e+00
3.400000000000000000e+01,3.574024876377394300e+00
3.500000000000000000e+01,3.706844588675895391e+00
3.600000000000000000e+01,3.837455786379041278e+00
3.700000000000000000e+01,3.965853385388289798e+00
3.800000000000000000e+01,4.092044150319271267e+00
3.900000000000000000e+01,4.216032956262346865e+00
4.000000000000000000e+01,4.337841196311993386e+00
4.100000000000000000e+01,4.457488863714900162e+00
4.200000000000000000e+01,4.574998780714918389e+00
4.300000000000000000e+01,4.690403102653463385e+00
4.400000000000000000e+01,4.803736512734459119e+00
4.500000000000000000e+01,4.915032897969168424e+00
4.600000000000000000e+01,5.024333677670040466e+00
4.700000000000000000e+01,5.131676903496616760e+00
4.800000000000000000e+01,5.237101795540509031e+00
4.900000000000000000e+01,5.340647679192455755e+00
5.000000000000000000e+01,5.442356985084948917e+00
5.100000000000000000e+01,5.542264260740230597e+00
5.200000000000000000e+01,5.640408789532063594e+00
5.300000000000000000e+01,5.736829914945363207e+00
5.400000000000000000e+01,5.831564773703990845e+00
5.500000000000000000e+01,5.924649743136342295e+00
5.600000000000000000e+01,6.016123067725364315e+00
5.700000000000000000e+01,6.106022081298990045e+00
5.800000000000000000e+01,6.194383634787944182e+00
5.900000000000000000e+01,6.281244615830697597e+00
6.000000000000000000e+01,6.366639683638481095e+00
6.100000000000000000e+01,6.450603221951612731e+00
6.200000000000000000e+01,6.533164286368586815e+00
6.300000000000000000e+01,6.614355839958164118e+00
6.400000000000000000e+01,6.694206140047736397e+00
6.500000000000000000e+01,6.772746132464051882e+00
6.600000000000000000e+01,6.850004848513448152e+00
6.700000000000000000e+01,6.926012248729745302e+00
6.800000000000000000e+01,7.000795735869313141e+00
6.900000000000000000e+01,7.074383189483783418e+00
7.000000000000000000e+01,7.146801508763694244e+00
7.100000000000000000e+01,7.218079601532322087e+00
7.200000000000000000e+01,7.288242437469128809e+00
7.300000000000000000e+01,7.357313776927297155e+00
7.400000000000000000e+01,7.425316899514407432e+00
7.500000000000000000e+01,7.492273587656257838e+00
7.600000000000000000e+01,7.558205677088691843e+00
7.700000000000000000e+01,7.623133629463860750e+00
7.800000000000000000e+01,7.687078418913962707e+00
7.900000000000000000e+01,7.750060701614099656e+00
8.000000000000000000e+01,7.812100450620309999e+00
8.100000000000000000e+01,7.873217947801109062e+00
8.200000000000000000e+01,7.933432640440645223e+00
8.300000000000000000e+01,7.992763567242111122e+00
8.400000000000000000e+01,8.051229386239834085e+00
8.500000000000000000e+01,8.108847866887563427e+00
8.600000000000000000e+01,8.165636127212078321e+00
8.700000000000000000e+01,8.221609639110672774e+00
8.800000000000000000e+01,8.276783876119132799e+00
8.900000000000000000e+01,8.331173132470048870e+00
9.000000000000000000e+01,8.384791431367926151e+00
9.100000000000000000e+01,8.437652706522833057e+00
9.200000000000000000e+01,8.489770158605711714e+00
9.300000000000000000e+01,8.541158386431188632e+00
9.400000000000000000e+01,8.591830134301012833e+00
9.500000000000000000e+01,8.641799066583670808e+00
9.600000000000000000e+01,8.691078012675376385e+00
9.700000000000000000e+01,8.739680395622235309e+00
9.800000000000000000e+01,8.787617019122491158e+00
9.900000000000000000e+01,8.834901309908508082e+00
1.000000000000000000e+02,8.881542652382307779e+00
1.010000000000000000e+02,8.927551741217598646e+00
1.020000000000000000e+02,8.972938480792178595e+00
1.030000000000000000e+02,9.017710731205756503e+00
1.040000000000000000e+02,9.061878543719606327e+00
1.050000000000000000e+02,9.105449962193633340e+00
1.060000000000000000e+02,9.148433497566799133e+00
1.070000000000000000e+02,9.190838800455217950e+00
1.080000000000000000e+02,9.232674276869273555e+00
1.090000000000000000e+02,9.273948235237172710e+00
1.100000000000000000e+02,9.314670511769799432e+00
1.110000000000000000e+02,9.354848661782126484e+00
1.120000000000000000e+02,9.394491640418067391e+00
1.130000000000000000e+02,9.433606721203680934e+00
1.140000000000000000e+02,9.472200480770821329e+00
1.150000000000000000e+02,9.510282064275038749e+00
1.160000000000000000e+02,9.547857050765971465e+00
1.170000000000000000e+02,9.584931926587785256e+00
1.180000000000000000e+02,9.621514304845343091e+00
1.190000000000000000e+02,9.657611128016878155e+00
1.200000000000000000e+02,9.693226826392447038e+00
1.210000000000000000e+02,9.728367492627549851e+00
1.220000000000000000e+02,9.763039104009076041e+00
1.230000000000000000e+02,9.797246552635799688e+00
1.240000000000000000e+02,9.830993684401031274e+00
1.250000000000000000e+02,9.864284057178448251e+00
1.260000000000000000e+02,9.897119277736322829e+00
1.270000000000000000e+02,9.929501202714570596e+00
1.280000000000000000e+02,9.961429924219030951e+00
1.290000000000000000e+02,9.992905817454440509e+00
1.300000000000000000e+02,1.002392696703729591e+01
1.310000000000000000e+02,1.005449259292578290e+01
1.320000000000000000e+02,1.008460094143892860e+01
1.330000000000000000e+02,1.011424919690810853e+01
1.340000000000000000e+02,1.014343464681488705e+01
1.350000000000000000e+02,1.017215512751999462e+01
1.360000000000000000e+02,1.020040641763106670e+01
1.370000000000000000e+02,1.022818452831937464e+01
1.380000000000000000e+02,1.025548513563180109e+01
1.390000000000000000e+02,1.028230325219888641e+01
1.400000000000000000e+02,1.030863136634572008e+01
1.410000000000000000e+02,1.033446366438505493e+01
1.420000000000000000e+02,1.035979303631110326e+01
1.430000000000000000e+02,1.038461327112411858e+01
1.440000000000000000e+02,1.040891611085629975e+01
1.450000000000000000e+02,1.043269440901462985e+01
1.460000000000000000e+02,1.045594263215471109e+01
1.470000000000000000e+02,1.047865297875447155e+01
1.480000000000000000e+02,1.050082115287427520e+01
1.490000000000000000e+02,1.052244120835540109e+01
1.500000000000000000e+02,1.054350778731172333e+01
1.510000000000000000e+02,1.056401777958810762e+01
1.520000000000000000e+02,1.058396755653704524e+01
1.530000000000000000e+02,1.060335620339556151e+01
1.540000000000000000e+02,1.062218297602851713e+01
1.550000000000000000e+02,1.064044998369024242e+01
1.560000000000000000e+02,1.065816110886068735e+01
1.570000000000000000e+02,1.067532362283444947e+01
1.580000000000000000e+02,1.069194557548259539e+01
1.590000000000000000e+02,1.070803803524209741e+01
1.600000000000000000e+02,1.072361423734494323e+01
1.610000000000000000e+02,1.073868956254409390e+01
1.620000000000000000e+02,1.075328182262513543e+01
1.630000000000000000e+02,1.076741033230697475e+01
1.640000000000000000e+02,1.078109681070749559e+01
1.650000000000000000e+02,1.079436657218326623e+01
1.660000000000000000e+02,1.080724388906341993e+01
1.670000000000000000e+02,1.081975702093067682e+01
1.680000000000000000e+02,1.083193469373792084e+01
1.690000000000000000e+02,1.084380790367206515e+01
1.700000000000000000e+02,1.085540603461635811e+01
1.710000000000000000e+02,1.086675956697018641e+01
1.720000000000000000e+02,1.087790186029182671e+01
1.730000000000000000e+02,1.088886410114802139e+01
1.740000000000000000e+02,1.089967681373503616e+01
1.750000000000000000e+02,1.091037095678036906e+01
1.760000000000000000e+02,1.092097822060928713e+01
1.770000000000000000e+02,1.093152818445557095e+01
1.780000000000000000e+02,1.094205303327960799e+01
1.790000000000000000e+02,1.095258148428950840e+01
1.800000000000000000e+02,1.096314144995594653e+01
1.810000000000000000e+02,1.097376121081392064e+01
1.820000000000000000e+02,1.098446824483459494e+01
1.830000000000000000e+02,1.099529039290604437e+01
1.840000000000000000e+02,1.100625488329839818e+01
1.850000000000000000e+02,1.101738688417964340e+01
1.860000000000000000e+02,1.102871163377677810e+01
1.870000000000000000e+02,1.104025711996559878e+01
1.880000000000000000e+02,1.105205404094617627e+01
1.890000000000000000e+02,1.106412428797162839e+01
1.900000000000000000e+02,1.107649448119471813e+01
1.910000000000000000e+02,1.108919837866644720e+01
1.920000000000000000e+02,1.110226376558046191e+01
1.930000000000000000e+02,1.111572396762945303e+01
1.940000000000000000e+02,1.112960632707182818e+01
1.950000000000000000e+02,1.114395487622647529e+01
1.960000000000000000e+02,1.115880489822824018e+01
1.970000000000000000e+02,1.117419397576676943e+01
1.980000000000000000e+02,1.119016986959927529e+01
1.990000000000000000e+02,1.120677644023523811e+01
2.000000000000000000e+02,1.122406647577731142e+01
2.010000000000000000e+02,1.124209547418797328e+01
2.020000000000000000e+02,1.126092023480559057e+01
2.030000000000000000e+02,1.128060593047717752e+01
2.040000000000000000e+02,1.130121761738064201e+01
2.050000000000000000e+02,1.132283090133152115e+01
2.060000000000000000e+02,1.134551105625736334e+01
2.070000000000000000e+02,1.136933229087405728e+01
2.080000000000000000e+02,1.139435406352800584e+01
2.090000000000000000e+02,1.142063911509498553e+01
2.100000000000000000e+02,1.144822698939811900e+01
2.110000000000000000e+02,1.147711873075464872e+01
2.120000000000000000e+02,1.150728097087690927e+01
2.130000000000000000e+02,1.153861581481731768e+01
2.140000000000000000e+02,1.157093945817980440e+01
2.150000000000000000e+02,1.160398570572170840e+01
2.160000000000000000e+02,1.163739551110070636e+01
2.170000000000000000e+02,1.167073610301004649e+01
2.180000000000000000e+02,1.170357817561070490e+01
2.190000000000000000e+02,1.173556705083031559e+01
2.200000000000000000e+02,1.176649054042844966e+01
2.210000000000000000e+02,1.179631990553429688e+01
2.220000000000000000e+02,1.182514828161549403e+01
2.230000000000000000e+02,1.185309794848563492e+01
2.240000000000000000e+02,1.188028852914937339e+01
2.250000000000000000e+02,1.190679979457809168e+01
2.260000000000000000e+02,1.193269435747211560e+01
2.270000000000000000e+02,1.195801925651185904e+01
2.280000000000000000e+02,1.198281970184391554e+01
2.290000000000000000e+02,1.200712534568185852e+01
2.300000000000000000e+02,1.203097326758957308e+01
2.310000000000000000e+02,1.205437884868823417e+01
2.320000000000000000e+02,1.207737055614018473e+01
2.330000000000000000e+02,1.209996868006773596e+01
2.340000000000000000e+02,1.212218900436758062e+01
2.350000000000000000e+02,1.214404670842556122e+01
2.360000000000000000e+02,1.216555662296366869e+01
2.370000000000000000e+02,1.218673671143120707e+01
2.380000000000000000e+02,1.220759231321835792e+01
2.390000000000000000e+02,1.222813836213699545e+01
2.400000000000000000e+02,1.224838323427142228e+01
2.410000000000000000e+02,1.226834262680453591e+01
2.420000000000000000e+02,1.228801905484105816e+01
2.430000000000000000e+02,1.230742524952162498e+01
2.440000000000000000e+02,1.232656905419373849e+01
2.450000000000000000e+02,1.234545212117625823e+01
2.460000000000000000e+02,1.236408593517956334e+01
2.470000000000000000e+02,1.238247685639700180e+01
2.480000000000000000e+02,1.240063076669803444e+01
2.490000000000000000e+02,1.241855323029738223e+01
2.500000000000000000e+02,1.243625192207018770e+01
2.510000000000000000e+02,1.245372935384942892e+01
2.520000000000000000e+02,1.247099348552941578e+01
2.530000000000000000e+02,1.248804639204079869e+01
2.540000000000000000e+02,1.250489519949955408e+01
2.550000000000000000e+02,1.252154290993613017e+01
2.560000000000000000e+02,1.253799232945881315e+01
2.570000000000000000e+02,1.255424919095388425e+01
2.580000000000000000e+02,1.257031611665903448e+01
2.590000000000000000e+02,1.258620004840544127e+01
2.600000000000000000e+02,1.260190224332152376e+01
2.610000000000000000e+02,1.261742496315683937e+01
2.620000000000000000e+02,1.263277395627952338e+01
2.630000000000000000e+02,1.264794948885922388e+01
2.640000000000000000e+02,1.266295677749597104e+01
2.650000000000000000e+02,1.267779791978146697e+01
2.660000000000000000e+02,1.269247665462197894e+01
2.670000000000000000e+02,1.270699500901732648e+01
2.680000000000000000e+02,1.272135527116714471e+01
2.690000000000000000e+02,1.273556027663540213e+01
2.700000000000000000e+02,1.274961376282811010e+01
2.710000000000000000e+02,1.276351647944883716e+01
2.720000000000000000e+02,1.277727045181054777e+01
2.730000000000000000e+02,1.279087739327740181e+01
2.740000000000000000e+02,1.280434342127274228e+01
2.750000000000000000e+02,1.281766732664273789e+01
2.760000000000000000e+02,1.283085067582947580e+01
2.770000000000000000e+02,1.284389827913324389e+01
2.780000000000000000e+02,1.285681051007929376e+01
2.790000000000000000e+02,1.286958773231096664e+01
2.800000000000000000e+02,1.288223502580517810e+01
2.810000000000000000e+02,1.289474925762235458e+01
2.820000000000000000e+02,1.290713630665312017e+01
2.830000000000000000e+02,1.291939814312886270e+01
2.840000000000000000e+02,1.293153384631665936e+01
2.850000000000000000e+02,1.294354612973893737e+01
2.860000000000000000e+02,1.295543865738087419e+01
2.870000000000000000e+02,1.296720914339639741e+01
2.880000000000000000e+02,1.297886205367274393e+01
2.890000000000000000e+02,1.299039703026436676e+01
2.900000000000000000e+02,1.300181738258859276e+01
2.910000000000000000e+02,1.301312528574531768e+01
2.920000000000000000e+02,1.302431834036263680e+01
2.930000000000000000e+02,1.303540015206768032e+01
2.940000000000000000e+02,1.304637292169674012e+01
2.950000000000000000e+02,1.305723629028164545e+01
2.960000000000000000e+02,1.306799250148609914e+01
2.970000000000000000e+02,1.307864206888318570e+01
2.980000000000000000e+02,1.308918761643996120e+01
2.990000000000000000e+02,1.309962874549683320e+01
3.000000000000000000e+02,1.310996716715154520e+01
3.010000000000000000e+02,1.312020464563798328e+01
3.020000000000000000e+02,1.313034164017975769e+01
3.030000000000000000e+02,1.314038029813768560e+01
3.040000000000000000e+02,1.315032011001843415e+01
3.050000000000000000e+02,1.316016326928193791e+01
3.060000000000000000e+02,1.316991100776289159e+01
3.070000000000000000e+02,1.317956407473291591e+01
3.080000000000000000e+02,1.318912260595672947e+01
3.090000000000000000e+02,1.319859016003748131e+01
3.100000000000000000e+02,1.320796463531828735e+01
3.110000000000000000e+02,1.321725023751297279e+01
3.120000000000000000e+02,1.322644478866621576e+01
3.130000000000000000e+02,1.323555146558390483e+01
3.140000000000000000e+02,1.324456995448573160e+01
3.150000000000000000e+02,1.325350207282954962e+01
3.160000000000000000e+02,1.326234789496870548e+01
3.170000000000000000e+02,1.327110888773268016e+01
3.180000000000000000e+02,1.327978624186826195e+01
3.190000000000000000e+02,1.328838140432799086e+01
3.200000000000000000e+02,1.329689362707041766e+01
3.210000000000000000e+02,1.330532467591871537e+01
3.220000000000000000e+02,1.331367531453197373e+01
3.230000000000000000e+02,1.332194623424143209e+01
3.240000000000000000e+02,1.333013818632731962e+01
3.250000000000000000e+02,1.333825178432877934e+01
3.260000000000000000e+02,1.334628895075704769e+01
3.270000000000000000e+02,1.335424956169861410e+01
3.280000000000000000e+02,1.336213460610190751e+01
3.290000000000000000e+02,1.336994486953251560e+01
3.300000000000000000e+02,1.337768087003497719e+01
3.310000000000000000e+02,1.338534338242393140e+01
3.320000000000000000e+02,1.339293422001588851e+01
3.330000000000000000e+02,1.340045238275876294e+01
3.340000000000000000e+02,1.340789967300940866e+01
3.350000000000000000e+02,1.341527723266685435e+01
3.360000000000000000e+02,1.342258561191212607e+01
3.370000000000000000e+02,1.342982457779135963e+01
3.380000000000000000e+02,1.343699486896874440e+01
3.390000000000000000e+02,1.344409819056712863e+01
3.400000000000000000e+02,1.345113481534839650e+01
3.410000000000000000e+02,1.345810527169348170e+01
3.420000000000000000e+02,1.346500898645029487e+01
3.430000000000000000e+02,1.347184938601427895e+01
3.440000000000000000e+02,1.347862504864842315e+01
3.450000000000000000e+02,1.348533726024225388e+01
3.460000000000000000e+02,1.349198672118756370e+01
3.470000000000000000e+02,1.349857393480909096e+01
3.480000000000000000e+02,1.350509952928400459e+01
3.490000000000000000e+02,1.351156400060147789e+01
3.500000000000000000e+02,1.351796790541864013e+01
3.510000000000000000e+02,1.352431192481431310e+01
3.520000000000000000e+02,1.353059686375449822e+01
3.530000000000000000e+02,1.353682294787788898e+01
3.540000000000000000e+02,1.354299154942988181e+01
3.550000000000000000e+02,1.354910231264233111e+01
3.560000000000000000e+02,1.355515590104136336e+01
3.570000000000000000e+02,1.356115354734098055e+01
3.580000000000000000e+02,1.356709431633491114e+01
3.590000000000000000e+02,1.357298102377041715e+01
3.600000000000000000e+02,1.357881260170872117e+01
3.610000000000000000e+02,1.358459001453628012e+01
3.620000000000000000e+02,1.359031339823468620e+01
3.630000000000000000e+02,1.359598402703890052e+01
3.640000000000000000e+02,1.360160165121171616e+01
3.650000000000000000e+02,1.360716677938984809e+01
3.660000000000000000e+02,1.361268073866402339e+01
3.670000000000000000e+02,1.361814396706501107e+01
3.680000000000000000e+02,1.362355626947094045e+01
3.690000000000000000e+02,1.362891852169929230e+01
3.700000000000000000e+02,1.363423077715604492e+01
3.710000000000000000e+02,1.363949396900255273e+01
3.720000000000000000e+02,1.364470820915934368e+01
3.730000000000000000e+02,1.364987473913893723e+01
3.740000000000000000e+02,1.365499328902657261e+01
3.750000000000000000e+02,1.366006478073985342e+01
3.760000000000000000e+02,1.366508925492307469e+01
3.770000000000000000e+02,1.367006718970454848e+01
3.780000000000000000e+02,1.367499949912014579e+01
3.790000000000000000e+02,1.367988621798367177e+01
3.800000000000000000e+02,1.368472750518530923e+01
3.810000000000000000e+02,1.368952458022411633e+01
3.820000000000000000e+02,1.369427753479866006e+01
3.830000000000000000e+02,1.369898683383333449e+01
3.840000000000000000e+02,1.370365256618366701e+01
3.850000000000000000e+02,1.370827407216915361e+01
3.860000000000000000e+02,1.371285405471338770e+01
3.870000000000000000e+02,1.371739228488271678e+01
3.880000000000000000e+02,1.372188878232563169e+01
3.890000000000000000e+02,1.372634369019193201e+01
3.900000000000000000e+02,1.373075702637635942e+01
3.910000000000000000e+02,1.373513004903133350e+01
3.920000000000000000e+02,1.373946357835474608e+01
3.930000000000000000e+02,1.374375694449607543e+01
3.940000000000000000e+02,1.374801090311316543e+01
3.950000000000000000e+02,1.375222521701670253e+01
3.960000000000000000e+02,1.375640187586951591e+01
3.970000000000000000e+02,1.376053940191228619e+01
3.980000000000000000e+02,1.376463897706534212e+01
