# Time [s], Convective Heat Transfer Coefficient [W/m2K]
1.000000000000000000e+00,0.000000000000000000e+00
2.000000000000000000e+00,0.000000000000000000e+00
3.000000000000000000e+00,0.000000000000000000e+00
4.000000000000000000e+00,0.000000000000000000e+00
5.000000000000000000e+00,2.762023300960968902e-02
6.000000000000000000e+00,5.198326877831560555e-02
7.000000000000000000e+00,8.566326007695486411e-02
8.000000000000000000e+00,1.316683440118348869e-01
9.000000000000000000e+00,1.908674998178601923e-01
1.000000000000000000e+01,2.633029225805128548e-01
1.100000000000000000e+01,3.487551116377570759e-01
1.200000000000000000e+01,4.462860952171512352e-01
1.300000000000000000e+01,5.547158438687354032e-01
1.400000000000000000e+01,6.726458861945961987e-01
1.500000000000000000e+01,7.986683320221118487e-01
1.600000000000000000e+01,9.313979673025151174e-01
1.700000000000000000e+01,1.069560764793214380e+00
1.800000000000000000e+01,1.212015164278530621e+00
1.900000000000000000e+01,1.357735420843599439e+00
2.000000000000000000e+01,1.505850234435119228e+00
2.100000000000000000e+01,1.655590981716575483e+00
2.200000000000000000e+01,1.806308138039599775e+00
2.300000000000000000e+01,1.957451521166080122e+00
2.400000000000000000e+01,2.108545571652353345e+00
2.500000000000000000e+01,2.259187460005509962e+00
2.600000000000000000e+01,2.409042149496269491e+00
2.700000000000000000e+01,2.557813828808332524e+00
2.800000000000000000e+01,2.705254065100676897e+00
2.900000000000000000e+01,2.851155956089814314e+00
3.000000000000000000e+01,2.995335126697412420e+00
3.100000000000000000e+01,3.137653507450432144e+00
3.200000000000000000e+01,3.277992155154540121e+00
3.300000000000000000e+01,3.416260139673597429e+00
3.400000000000000000e+01,3.552390395799501555e+00
3.500000000000000000e+01,3.686339293810673379e+00
3.600000000000000000e+01,3.818080711910144753e+00
3.700000000000000000e+01,3.947597440530171031e+00
3.800000000000000000e+01,4.074885378138620062e+00
3.900000000000000000e+01,4.199957439868647668e+00
4.000000000000000000e+01,4.322817822011805866e+00
4.100000000000000000e+01,4.443492612632280014e+00
4.200000000000000000e+01,4.562007711455363435e+00
4.300000000000000000e+01,4.678380540797170362e+00
4.400000000000000000e+01,4.792643908935685815e+00
4.500000000000000000e+01,4.904839530587661756e+00
4.600000000000000000e+01,5.015000239069128618e+00
4.700000000000000000e+01,5.123166115633889461e+00
4.800000000000000000e+01,5.229379920355706091e+00
4.900000000000000000e+01,5.333680443212077904e+00
5.000000000000000000e+01,5.436107915544455160e+00
5.100000000000000000e+01,5.536704736666274940e+00
5.200000000000000000e+01,5.635505352533650480e+00
5.300000000000000000e+01,5.732555451877288100e+00
5.400000000000000000e+01,5.827888362787506438e+00
5.500000000000000000e+01,5.921542512005655290e+00
5.600000000000000000e+01,6.013558202012749376e+00
5.700000000000000000e+01,6.103972811782888641e+00
5.800000000000000000e+01,6.192826116406355830e+00
5.900000000000000000e+01,6.280153577731499404e+00
6.000000000000000000e+01,6.365988760855088024e+00
6.100000000000000000e+01,6.450374496340990582e+00
6.200000000000000000e+01,6.533337339796329246e+00
6.300000000000000000e+01,6.614912869912070725e+00
6.400000000000000000e+01,6.695130741612949521e+00
6.500000000000000000e+01,6.774022400128255406e+00
6.600000000000000000e+01,6.851616579383922101e+00
6.700000000000000000e+01,6.927940036176483574e+00
6.800000000000000000e+01,7.003025352828537997e+00
6.900000000000000000e+01,7.076898136036295028e+00
7.000000000000000000e+01,7.149586853531092245e+00
7.100000000000000000e+01,7.221118928338138510e+00
7.200000000000000000e+01,7.291521255857072781e+00
7.300000000000000000e+01,7.360818072330984840e+00
7.400000000000000000e+01,7.429038180175003170e+00
7.500000000000000000e+01,7.496201191741725722e+00
7.600000000000000000e+01,7.562329988714222573e+00
7.700000000000000000e+01,7.627445599412076227e+00
7.800000000000000000e+01,7.691569321993593888e+00
7.900000000000000000e+01,7.754723277469513398e+00
8.000000000000000000e+01,7.816927464259140201e+00
8.100000000000000000e+01,7.878196146786368814e+00
8.200000000000000000e+01,7.938551102177323848e+00
8.300000000000000000e+01,7.998013551940504229e+00
8.400000000000000000e+01,8.056602760168370736e+00
8.500000000000000000e+01,8.114337418253400713e+00
8.600000000000000000e+01,8.171235334530230432e+00
8.700000000000000000e+01,8.227312630603625720e+00
8.800000000000000000e+01,8.282585219771894103e+00
8.900000000000000000e+01,8.337067810426685099e+00
9.000000000000000000e+01,8.390775314024294218e+00
9.100000000000000000e+01,8.443720370105181061e+00
9.200000000000000000e+01,8.495917703495274864e+00
9.300000000000000000e+01,8.547380313733198065e+00
9.400000000000000000e+01,8.598122745982347936e+00
9.500000000000000000e+01,8.648157246863563685e+00
9.600000000000000000e+01,8.697498385498279916e+00
9.700000000000000000e+01,8.746159559700343422e+00
9.800000000000000000e+01,8.794152307139349034e+00
9.900000000000000000e+01,8.841488504668916448e+00
1.000000000000000000e+02,8.888182130931298275e+00
1.010000000000000000e+02,8.934242121753145582e+00
1.020000000000000000e+02,8.979678726935645727e+00
1.030000000000000000e+02,9.024501290056468505e+00
1.040000000000000000e+02,9.068716586823862613e+00
1.050000000000000000e+02,9.112337126209807181e+00
1.060000000000000000e+02,9.155371943572390592e+00
1.070000000000000000e+02,9.197825105047453320e+00
1.080000000000000000e+02,9.239709783369907115e+00
1.090000000000000000e+02,9.281032087410547859e+00
1.100000000000000000e+02,9.321803096337367478e+00
1.110000000000000000e+02,9.362030499908371439e+00
1.120000000000000000e+02,9.401719805168147204e+00
1.130000000000000000e+02,9.440879682209329715e+00
1.140000000000000000e+02,9.479518188448782468e+00
1.150000000000000000e+02,9.517638402383445495e+00
1.160000000000000000e+02,9.555248365833422852e+00
1.170000000000000000e+02,9.592354021393346031e+00
1.180000000000000000e+02,9.628956769780392833e+00
1.190000000000000000e+02,9.665063916317256698e+00
1.200000000000000000e+02,9.700679993760628506e+00
1.210000000000000000e+02,9.735809211201553737e+00
1.220000000000000000e+02,9.770456937640416228e+00
1.230000000000000000e+02,9.804626861346239508e+00
1.240000000000000000e+02,9.838323104679503217e+00
1.250000000000000000e+02,9.871548768246709571e+00
1.260000000000000000e+02,9.904305726619417882e+00
1.270000000000000000e+02,9.936595972249286035e+00
1.280000000000000000e+02,9.968421021871243681e+00
1.290000000000000000e+02,9.999779472350658338e+00
1.300000000000000000e+02,1.003067162699039727e+01
1.310000000000000000e+02,1.006109539345669290e+01
1.320000000000000000e+02,1.009105072141375459e+01
1.330000000000000000e+02,1.012053393947255309e+01
1.340000000000000000e+02,1.014954387931274482e+01
1.350000000000000000e+02,1.017807728092060593e+01
1.360000000000000000e+02,1.020613154435349479e+01
1.370000000000000000e+02,1.023370291919611752e+01
1.380000000000000000e+02,1.026078553034562013e+01
1.390000000000000000e+02,1.028737529945357387e+01
1.400000000000000000e+02,1.031346549082518216e+01
1.410000000000000000e+02,1.033904918112325788e+01
1.420000000000000000e+02,1.036412132702497857e+01
1.430000000000000000e+02,1.038867491680471566e+01
1.440000000000000000e+02,1.041270122543885890e+01
1.450000000000000000e+02,1.043619532653818460e+01
1.460000000000000000e+02,1.045915139796912285e+01
1.470000000000000000e+02,1.048156497222015737e+01
1.480000000000000000e+02,1.050342886890169325e+01
1.490000000000000000e+02,1.052473990137429460e+01
1.500000000000000000e+02,1.054549436851174171e+01
1.510000000000000000e+02,1.056568942288867596e+01
1.520000000000000000e+02,1.058532336304492105e+01
1.530000000000000000e+02,1.060439550431335753e+01
1.540000000000000000e+02,1.062290854368611903e+01
1.550000000000000000e+02,1.064086643284438161e+01
1.560000000000000000e+02,1.065827528623606391e+01
1.570000000000000000e+02,1.067514365751019767e+01
1.580000000000000000e+02,1.069148117551027788e+01
1.590000000000000000e+02,1.070730088367355037e+01
1.600000000000000000e+02,1.072261879183538547e+01
1.610000000000000000e+02,1.073745120616663762e+01
1.620000000000000000e+02,1.075181818115397014e+01
1.630000000000000000e+02,1.076574035308783905e+01
1.640000000000000000e+02,1.077924257508917627e+01
1.650000000000000000e+02,1.079234764997913310e+01
1.660000000000000000e+02,1.080508499463247141e+01
1.670000000000000000e+02,1.081748127593512621e+01
1.680000000000000000e+02,1.082956684739336950e+01
1.690000000000000000e+02,1.084137293538097246e+01
1.700000000000000000e+02,1.085293085024020598e+01
1.710000000000000000e+02,1.086427160287864169e+01
1.720000000000000000e+02,1.087542750389205182e+01
1.730000000000000000e+02,1.088642969177645448e+01
1.740000000000000000e+02,1.089730923817907637e+01
1.750000000000000000e+02,1.090809745088050420e+01
1.760000000000000000e+02,1.091882597509342112e+01
1.770000000000000000e+02,1.092952689185335835e+01
1.780000000000000000e+02,1.094022997716020740e+01
1.790000000000000000e+02,1.095096477448798389e+01
1.800000000000000000e+02,1.096175913427604520e+01
1.810000000000000000e+02,1.097264156109288358e+01
1.820000000000000000e+02,1.098364188204428338e+01
1.830000000000000000e+02,1.099478977495524390e+01
1.840000000000000000e+02,1.100611099325200470e+01
1.850000000000000000e+02,1.101763057992346617e+01
1.860000000000000000e+02,1.102938306607653729e+01
1.870000000000000000e+02,1.104139161728069851e+01
1.880000000000000000e+02,1.105368510119744307e+01
1.890000000000000000e+02,1.106629619457485880e+01
1.900000000000000000e+02,1.107925579102766989e+01
1.910000000000000000e+02,1.109259252598235435e+01
1.920000000000000000e+02,1.110634303239335985e+01
1.930000000000000000e+02,1.112054916689553608e+01
1.940000000000000000e+02,1.113524516571574097e+01
1.950000000000000000e+02,1.115046486632355638e+01
1.960000000000000000e+02,1.116625998749170812e+01
1.970000000000000000e+02,1.118268457401538996e+01
1.980000000000000000e+02,1.119977390470113221e+01
1.990000000000000000e+02,1.121759849296033629e+01
2.000000000000000000e+02,1.123621162818529662e+01
2.010000000000000000e+02,1.125568606883367906e+01
2.020000000000000000e+02,1.127609583974569496e+01
2.030000000000000000e+02,1.129749572409084024e+01
2.040000000000000000e+02,1.131998024855231755e+01
2.050000000000000000e+02,1.134362689336720820e+01
2.060000000000000000e+02,1.136850975943400854e+01
2.070000000000000000e+02,1.139470605041251261e+01
2.080000000000000000e+02,1.142228549913583358e+01
2.090000000000000000e+02,1.145125750921379648e+01
2.100000000000000000e+02,1.148164057962368645e+01
2.110000000000000000e+02,1.151336779226165064e+01
2.120000000000000000e+02,1.154628058983256977e+01
2.130000000000000000e+02,1.158014898468408305e+01
2.140000000000000000e+02,1.161463000865166606e+01
2.150000000000000000e+02,1.164924928308257712e+01
2.160000000000000000e+02,1.168351316595578560e+01
2.170000000000000000e+02,1.171696685770477231e+01
2.180000000000000000e+02,1.174930943040358322e+01
2.190000000000000000e+02,1.178046314155505669e+01
2.200000000000000000e+02,1.181051377313050033e+01
2.210000000000000000e+02,1.183962289769241849e+01
2.220000000000000000e+02,1.186792373500170150e+01
2.230000000000000000e+02,1.189549951717640930e+01
2.240000000000000000e+02,1.192242635365797732e+01
2.250000000000000000e+02,1.194875420346733108e+01
2.260000000000000000e+02,1.197452905801795708e+01
2.270000000000000000e+02,1.199978534249501649e+01
2.280000000000000000e+02,1.202455525613612686e+01
2.290000000000000000e+02,1.204885989091397569e+01
2.300000000000000000e+02,1.207273252259820673e+01
2.310000000000000000e+02,1.209618598611269746e+01
2.320000000000000000e+02,1.211924376809297854e+01
2.330000000000000000e+02,1.214192584023585653e+01
2.340000000000000000e+02,1.216424438501369387e+01
2.350000000000000000e+02,1.218621379925549064e+01
2.360000000000000000e+02,1.220784586927013748e+01
2.370000000000000000e+02,1.222915412792728596e+01
2.380000000000000000e+02,1.225014657535121820e+01
2.390000000000000000e+02,1.227083471830220418e+01
2.400000000000000000e+02,1.229123064826545964e+01
2.410000000000000000e+02,1.231133807750662079e+01
2.420000000000000000e+02,1.233117364896252788e+01
2.430000000000000000e+02,1.235073450186184019e+01
2.440000000000000000e+02,1.237003782693915710e+01
2.450000000000000000e+02,1.238908288173954020e+01
2.460000000000000000e+02,1.240788160608060053e+01
2.470000000000000000e+02,1.242643841900655666e+01
2.480000000000000000e+02,1.244475781623765975e+01
2.490000000000000000e+02,1.246284625449830230e+01
2.500000000000000000e+02,1.248070859270542954e+01
2.510000000000000000e+02,1.249835246282527734e+01
2.520000000000000000e+02,1.251578210480603737e+01
2.530000000000000000e+02,1.253300132176462434e+01
2.540000000000000000e+02,1.255001140598543152e+01
2.550000000000000000e+02,1.256682080956963254e+01
2.560000000000000000e+02,1.258343152134500009e+01
2.570000000000000000e+02,1.259984682178374094e+01
2.580000000000000000e+02,1.261607266421591689e+01
2.590000000000000000e+02,1.263211089259836228e+01
2.600000000000000000e+02,1.264796602663637159e+01
2.610000000000000000e+02,1.266363938947625023e+01
2.620000000000000000e+02,1.267913584692378137e+01
2.630000000000000000e+02,1.269446194893323643e+01
2.640000000000000000e+02,1.270961177942882969e+01
2.650000000000000000e+02,1.272459414364140606e+01
2.660000000000000000e+02,1.273941054040144039e+01
2.670000000000000000e+02,1.275406381166080472e+01
2.680000000000000000e+02,1.276855690692574719e+01
2.690000000000000000e+02,1.278289202295188431e+01
2.700000000000000000e+02,1.279707125599318296e+01
2.710000000000000000e+02,1.281109724523640025e+01
2.720000000000000000e+02,1.282497266913242839e+01
2.730000000000000000e+02,1.283869974835282335e+01
2.740000000000000000e+02,1.285227996765519265e+01
2.750000000000000000e+02,1.286571450828612839e+01
2.760000000000000000e+02,1.287900785063689391e+01
2.770000000000000000e+02,1.289215935961532011e+01
2.780000000000000000e+02,1.290517303679374805e+01
2.790000000000000000e+02,1.291804919657990958e+01
2.800000000000000000e+02,1.293079038408165893e+01
2.810000000000000000e+02,1.294339897770758085e+01
2.820000000000000000e+02,1.295587628459847629e+01
2.830000000000000000e+02,1.296822415216508162e+01
2.840000000000000000e+02,1.298044176734078192e+01
2.850000000000000000e+02,1.299253441922891383e+01
2.860000000000000000e+02,1.300450146800329776e+01
2.870000000000000000e+02,1.301634538175490086e+01
2.880000000000000000e+02,1.302806591506338485e+01
2.890000000000000000e+02,1.303966784422985370e+01
2.900000000000000000e+02,1.305115068308896120e+01
2.910000000000000000e+02,1.306251655050949800e+01
2.920000000000000000e+02,1.307376651807179968e+01
2.930000000000000000e+02,1.308490205507298043e+01
2.940000000000000000e+02,1.309592372847421871e+01
2.950000000000000000e+02,1.310683325487210737e+01
2.960000000000000000e+02,1.311763247065887050e+01
2.970000000000000000e+02,1.312832108996462388e+01
2.980000000000000000e+02,1.313890289267571276e+01
2.990000000000000000e+02,1.314937763550433303e+01
3.000000000000000000e+02,1.315974662700679332e+01
3.010000000000000000e+02,1.317001150062428394e+01
3.020000000000000000e+02,1.318017367326625866e+01
3.030000000000000000e+02,1.319023226140894955e+01
3.040000000000000000e+02,1.320019027931647138e+01
3.050000000000000000e+02,1.321005018246616203e+01
3.060000000000000000e+02,1.321980958521796445e+01
3.070000000000000000e+02,1.322947166355396398e+01
3.080000000000000000e+02,1.323903856937169010e+01
3.090000000000000000e+02,1.324850777014015435e+01
3.100000000000000000e+02,1.325788460270787361e+01
3.110000000000000000e+02,1.326716579122658324e+01
3.120000000000000000e+02,1.327635664192849951e+01
3.130000000000000000e+02,1.328545460244061438e+01
3.140000000000000000e+02,1.329446329063217824e+01
3.150000000000000000e+02,1.330338028257484773e+01
3.160000000000000000e+02,1.331221076048140617e+01
3.170000000000000000e+02,1.332095380694360642e+01
3.180000000000000000e+02,1.332960863817062069e+01
3.190000000000000000e+02,1.333817868251954053e+01
3.200000000000000000e+02,1.334666399640576628e+01
3.210000000000000000e+02,1.335506555200206513e+01
3.220000000000000000e+02,1.336338339612030879e+01
3.230000000000000000e+02,1.337161894745823787e+01
3.240000000000000000e+02,1.337977413816665084e+01
3.250000000000000000e+02,1.338784801472179353e+01
3.260000000000000000e+02,1.339584295251465917e+01
3.270000000000000000e+02,1.340375909779948316e+01
3.280000000000000000e+02,1.341159763497814517e+01
3.290000000000000000e+02,1.341935954551321153e+01
3.300000000000000000e+02,1.342704470018251683e+01
3.310000000000000000e+02,1.343465497859931190e+01
3.320000000000000000e+02,1.344219017652656234e+01
3.330000000000000000e+02,1.344965105910582892e+01
3.340000000000000000e+02,1.345703812732350535e+01
3.350000000000000000e+02,1.346435362122364232e+01
3.360000000000000000e+02,1.347159744699626316e+01
3.370000000000000000e+02,1.347876854270665348e+01
3.380000000000000000e+02,1.348587080498055180e+01
3.390000000000000000e+02,1.349290393271710009e+01
3.400000000000000000e+02,1.349986743148495272e+01
3.410000000000000000e+02,1.350676183363385441e+01
3.420000000000000000e+02,1.351359055199927539e+01
3.430000000000000000e+02,1.352035179683785238e+01
3.440000000000000000e+02,1.352704653466053486e+01
3.450000000000000000e+02,1.353367687678048981e+01
3.460000000000000000e+02,1.354024077434977613e+01
3.470000000000000000e+02,1.354674262733220580e+01
3.480000000000000000e+02,1.355318025327630949e+01
3.490000000000000000e+02,1.355955510545985199e+01
3.500000000000000000e+02,1.356586799401819654e+01
3.510000000000000000e+02,1.357211838998091302e+01
3.520000000000000000e+02,1.357830805047794342e+01
3.530000000000000000e+02,1.358443783664898596e+01
3.540000000000000000e+02,1.359050721076565615e+01
3.550000000000000000e+02,1.359651854837336771e+01
3.560000000000000000e+02,1.360246978658280348e+01
3.570000000000000000e+02,1.360836405166323537e+01
3.580000000000000000e+02,1.361420161562321951e+01
3.590000000000000000e+02,1.361998142306342174e+01
3.600000000000000000e+02,1.362570551033529931e+01
3.610000000000000000e+02,1.363137363772908728e+01
3.620000000000000000e+02,1.363698751642227336e+01
3.630000000000000000e+02,1.364254576888189696e+01
3.640000000000000000e+02,1.364804991168863424e+01
3.650000000000000000e+02,1.365350101577135256e+01
3.660000000000000000e+02,1.365889952004486574e+01
3.670000000000000000e+02,1.366424629978691385e+01
3.680000000000000000e+02,1.366953953261810284e+01
3.690000000000000000e+02,1.367478209560660218e+01
3.700000000000000000e+02,1.367997366579292695e+01
3.710000000000000000e+02,1.368511473271258616e+01
3.720000000000000000e+02,1.369020622060105730e+01
3.730000000000000000e+02,1.369524823858153795e+01
3.740000000000000000e+02,1.370024120629855702e+01
3.750000000000000000e+02,1.370518566583831621e+01
3.760000000000000000e+02,1.371008246815009635e+01
3.770000000000000000e+02,1.371493171402461897e+01
3.780000000000000000e+02,1.371973431151553591e+01
3.790000000000000000e+02,1.372448986016472894e+01
3.800000000000000000e+02,1.372919932601676152e+01
3.810000000000000000e+02,1.373386348540807589e+01
3.820000000000000000e+02,1.373848211940467046e+01
3.830000000000000000e+02,1.374305600048193909e+01
3.840000000000000000e+02,1.374758602211280234e+01
3.850000000000000000e+02,1.375207226995699017e+01
3.860000000000000000e+02,1.375651476681347596e+01
3.870000000000000000e+02,1.376091446191329304e+01
3.880000000000000000e+02,1.376527100394869585e+01
3.890000000000000000e+02,1.376958589395143662e+01
3.900000000000000000e+02,1.377385939443266771e+01
3.910000000000000000e+02,1.377809139656837267e+01
3.920000000000000000e+02,1.378228172947470931e+01
3.930000000000000000e+02,1.378643231601531483e+01
3.940000000000000000e+02,1.379054279631294833e+01
3.950000000000000000e+02,1.379461293372852104e+01
3.960000000000000000e+02,1.379864427445080111e+01
3.970000000000000000e+02,1.380263645563663744e+01
3.980000000000000000e+02,1.380658966734639037e+01
