# Time [s], Convective Heat Transfer Coefficient [W/m2K]
1.000000000000000000e+00,0.000000000000000000e+00
2.000000000000000000e+00,0.000000000000000000e+00
3.000000000000000000e+00,0.000000000000000000e+00
4.000000000000000000e+00,0.000000000000000000e+00
5.000000000000000000e+00,3.040000000141642594e-02
6.000000000000000000e+00,5.366129469656785722e-02
7.000000000000000000e+00,8.859284558557586897e-02
8.000000000000000000e+00,1.356646779451634865e-01
9.000000000000000000e+00,1.958150892460553405e-01
1.000000000000000000e+01,2.692463154062523234e-01
1.100000000000000000e+01,3.555605569666714927e-01
1.200000000000000000e+01,4.538335756195540083e-01
1.300000000000000000e+01,5.628326838288431055e-01
1.400000000000000000e+01,6.811735214766887481e-01
1.500000000000000000e+01,8.074320238049597087e-01
1.600000000000000000e+01,9.402267646905321241e-01
1.700000000000000000e+01,1.078291637947798698e+00
1.800000000000000000e+01,1.220488784555981754e+00
1.900000000000000000e+01,1.365809696625267078e+00
2.000000000000000000e+01,1.513392249718831684e+00
2.100000000000000000e+01,1.662491884194394975e+00
2.200000000000000000e+01,1.812475261528104120e+00
2.300000000000000000e+01,1.962806527193892814e+00
2.400000000000000000e+01,2.113030218344817524e+00
2.500000000000000000e+01,2.262761777486481662e+00
2.600000000000000000e+01,2.411668131765202894e+00
2.700000000000000000e+01,2.559473178468012478e+00
2.800000000000000000e+01,2.705937213366598204e+00
2.900000000000000000e+01,2.850861298199458993e+00
3.000000000000000000e+01,2.994067964592070918e+00
3.100000000000000000e+01,3.135423884502018588e+00
3.200000000000000000e+01,3.274818993281392920e+00
3.300000000000000000e+01,3.412168856521753835e+00
3.400000000000000000e+01,3.547411771978857153e+00
3.500000000000000000e+01,3.680505435832079453e+00
3.600000000000000000e+01,3.811422216702885724e+00
3.700000000000000000e+01,3.940158923784109035e+00
3.800000000000000000e+01,4.066708307151059465e+00
3.900000000000000000e+01,4.191080420049322797e+00
4.000000000000000000e+01,4.313292270489919034e+00
4.100000000000000000e+01,4.433359640689243264e+00
4.200000000000000000e+01,4.551304171474147786e+00
4.300000000000000000e+01,4.667155665659358910e+00
4.400000000000000000e+01,4.780947038431541785e+00
4.500000000000000000e+01,4.892707610285794040e+00
4.600000000000000000e+01,5.002480631711599735e+00
4.700000000000000000e+01,5.110300248235016163e+00
4.800000000000000000e+01,5.216205867230631732e+00
4.900000000000000000e+01,5.320235413800303625e+00
5.000000000000000000e+01,5.422426773439623204e+00
5.100000000000000000e+01,5.522820605571682862e+00
5.200000000000000000e+01,5.621449077366801994e+00
5.300000000000000000e+01,5.718354782689238469e+00
5.400000000000000000e+01,5.813570978011380674e+00
5.500000000000000000e+01,5.907132409052828770e+00
5.600000000000000000e+01,5.999080825090919333e+00
5.700000000000000000e+01,6.089451322032702230e+00
5.800000000000000000e+01,6.178282730019167168e+00
5.900000000000000000e+01,6.265606961770993522e+00
6.000000000000000000e+01,6.351459624117093306e+00
6.100000000000000000e+01,6.435872892958209412e+00
6.200000000000000000e+01,6.518882543066384372e+00
6.300000000000000000e+01,6.600515299050409901e+00
6.400000000000000000e+01,6.680803664427697797e+00
6.500000000000000000e+01,6.759775545056082358e+00
6.600000000000000000e+01,6.837457214501648117e+00
6.700000000000000000e+01,6.913882254623326062e+00
6.800000000000000000e+01,6.989076105757212609e+00
6.900000000000000000e+01,7.063065328055204262e+00
7.000000000000000000e+01,7.135881358199626767e+00
7.100000000000000000e+01,7.207550080970727358e+00
7.200000000000000000e+01,7.278096321950314085e+00
7.300000000000000000e+01,7.347543707793481538e+00
7.400000000000000000e+01,7.415916246420767521e+00
7.500000000000000000e+01,7.483235975806010742e+00
7.600000000000000000e+01,7.549524149143966412e+00
7.700000000000000000e+01,7.614801894187280595e+00
7.800000000000000000e+01,7.679089418111407106e+00
7.900000000000000000e+01,7.742407635446995506e+00
8.000000000000000000e+01,7.804775989762158694e+00
8.100000000000000000e+01,7.866215022088606013e+00
8.200000000000000000e+01,7.926744419224891480e+00
8.300000000000000000e+01,7.986383441991075749e+00
8.400000000000000000e+01,8.045150773573105596e+00
8.500000000000000000e+01,8.103064559750473350e+00
8.600000000000000000e+01,8.160141742866567682e+00
8.700000000000000000e+01,8.216398144202431197e+00
8.800000000000000000e+01,8.271848881081599103e+00
8.900000000000000000e+01,8.326508750455177577e+00
9.000000000000000000e+01,8.380391749388554246e+00
9.100000000000000000e+01,8.433512113262741750e+00
9.200000000000000000e+01,8.485883163587828903e+00
9.300000000000000000e+01,8.537517685607740603e+00
9.400000000000000000e+01,8.588430341554392555e+00
9.500000000000000000e+01,8.638634268857188658e+00
9.600000000000000000e+01,8.688142720947718445e+00
9.700000000000000000e+01,8.736968449797450020e+00
9.800000000000000000e+01,8.785124494644664495e+00
9.900000000000000000e+01,8.832621168504029896e+00
1.000000000000000000e+02,8.879469619898259225e+00
1.010000000000000000e+02,8.925680468714716653e+00
1.020000000000000000e+02,8.971262671899056684e+00
1.030000000000000000e+02,9.016226344470513965e+00
1.040000000000000000e+02,9.060579709683965532e+00
1.050000000000000000e+02,9.104332863994372360e+00
1.060000000000000000e+02,9.147491954203363917e+00
1.070000000000000000e+02,9.190067956234303281e+00
1.080000000000000000e+02,9.232069863196006310e+00
1.090000000000000000e+02,9.273504913839811792e+00
1.100000000000000000e+02,9.314382989578165351e+00
1.110000000000000000e+02,9.354712622840208880e+00
1.120000000000000000e+02,9.394502649231810665e+00
1.130000000000000000e+02,9.433759961451595899e+00
1.140000000000000000e+02,9.472491939825490093e+00
1.150000000000000000e+02,9.510707081423651843e+00
1.160000000000000000e+02,9.548409950739605634e+00
1.170000000000000000e+02,9.585608979041870370e+00
1.180000000000000000e+02,9.622310375172546060e+00
1.190000000000000000e+02,9.658518839286648117e+00
1.200000000000000000e+02,9.694241107679479441e+00
1.210000000000000000e+02,9.729483159278380811e+00
1.220000000000000000e+02,9.764250613083840236e+00
1.230000000000000000e+02,9.798547523231897927e+00
1.240000000000000000e+02,9.832378008397229863e+00
1.250000000000000000e+02,9.865745047451934369e+00
1.260000000000000000e+02,9.898650517930455806e+00
1.270000000000000000e+02,9.931096300075891392e+00
1.280000000000000000e+02,9.963081681508890952e+00
1.290000000000000000e+02,9.994607656865134970e+00
1.300000000000000000e+02,1.002567198106967972e+01
1.310000000000000000e+02,1.005627366516210586e+01
1.320000000000000000e+02,1.008641074904227075e+01
1.330000000000000000e+02,1.011607941215750017e+01
1.340000000000000000e+02,1.014527902782291768e+01
1.350000000000000000e+02,1.017400505681149170e+01
1.360000000000000000e+02,1.020225432661596621e+01
1.370000000000000000e+02,1.023002275195493205e+01
1.380000000000000000e+02,1.025730546598065374e+01
1.390000000000000000e+02,1.028409650351650662e+01
1.400000000000000000e+02,1.031039091554733389e+01
1.410000000000000000e+02,1.033618166924057569e+01
1.420000000000000000e+02,1.036146165543629749e+01
1.430000000000000000e+02,1.038622324859621315e+01
1.440000000000000000e+02,1.041046025502186545e+01
1.450000000000000000e+02,1.043416561382790775e+01
1.460000000000000000e+02,1.045733215804900063e+01
1.470000000000000000e+02,1.047995548638319541e+01
1.480000000000000000e+02,1.050203039411685779e+01
1.490000000000000000e+02,1.052355003796502153e+01
1.500000000000000000e+02,1.054451164710785704e+01
1.510000000000000000e+02,1.056491119238652132e+01
1.520000000000000000e+02,1.058474622646834540e+01
1.530000000000000000e+02,1.060401678637171230e+01
1.540000000000000000e+02,1.062272337462914074e+01
1.550000000000000000e+02,1.064086829376545751e+01
1.560000000000000000e+02,1.065845767642669450e+01
1.570000000000000000e+02,1.067549731648840172e+01
1.580000000000000000e+02,1.069199810594958500e+01
1.590000000000000000e+02,1.070797106278164357e+01
1.600000000000000000e+02,1.072343151191309296e+01
1.610000000000000000e+02,1.073839527827316331e+01
1.620000000000000000e+02,1.075288021137156846e+01
1.630000000000000000e+02,1.076690718151218107e+01
1.640000000000000000e+02,1.078049773913758180e+01
1.650000000000000000e+02,1.079367824194901893e+01
1.660000000000000000e+02,1.080647369899983978e+01
1.670000000000000000e+02,1.081891160452477862e+01
1.680000000000000000e+02,1.083102242511055557e+01
1.690000000000000000e+02,1.084283500345203599e+01
1.700000000000000000e+02,1.085438066565913928e+01
1.710000000000000000e+02,1.086569003671265143e+01
1.720000000000000000e+02,1.087679405064123728e+01
1.730000000000000000e+02,1.088772445276483758e+01
1.740000000000000000e+02,1.089851212625365484e+01
1.750000000000000000e+02,1.090918838770880761e+01
1.760000000000000000e+02,1.091978145534974765e+01
1.770000000000000000e+02,1.093032353839229209e+01
1.780000000000000000e+02,1.094084561868004890e+01
1.790000000000000000e+02,1.095137551182902769e+01
1.800000000000000000e+02,1.096194140443206422e+01
1.810000000000000000e+02,1.097256883477490774e+01
1.820000000000000000e+02,1.098328828458979878e+01
1.830000000000000000e+02,1.099412486059458161e+01
1.840000000000000000e+02,1.100510578395975791e+01
1.850000000000000000e+02,1.101625746872868383e+01
1.860000000000000000e+02,1.102760552173236519e+01
1.870000000000000000e+02,1.103917291651685773e+01
1.880000000000000000e+02,1.105099017160349995e+01
1.890000000000000000e+02,1.106308559784564061e+01
1.900000000000000000e+02,1.107548225391382779e+01
1.910000000000000000e+02,1.108821265321670424e+01
1.920000000000000000e+02,1.110130581553092988e+01
1.930000000000000000e+02,1.111478861430602905e+01
1.940000000000000000e+02,1.112870005502116122e+01
1.950000000000000000e+02,1.114307573126316520e+01
1.960000000000000000e+02,1.115794868328979028e+01
1.970000000000000000e+02,1.117336215269890154e+01
1.980000000000000000e+02,1.118936276612679670e+01
1.990000000000000000e+02,1.120599848139346300e+01
2.000000000000000000e+02,1.122331526048392902e+01
2.010000000000000000e+02,1.124136306294296794e+01
2.020000000000000000e+02,1.126021058188431034e+01
2.030000000000000000e+02,1.127991218477986379e+01
2.040000000000000000e+02,1.130053840851976155e+01
2.050000000000000000e+02,1.132216350621166434e+01
2.060000000000000000e+02,1.134484914651840093e+01
2.070000000000000000e+02,1.136866590646384090e+01
2.080000000000000000e+02,1.139368952080703501e+01
2.090000000000000000e+02,1.141996254849570569e+01
2.100000000000000000e+02,1.144752616706081483e+01
2.110000000000000000e+02,1.147637885976416250e+01
2.120000000000000000e+02,1.150649042227244578e+01
2.130000000000000000e+02,1.153774715893938030e+01
2.140000000000000000e+02,1.156997561084504689e+01
2.150000000000000000e+02,1.160288778545013422e+01
2.160000000000000000e+02,1.163611446539193039e+01
2.170000000000000000e+02,1.166922201192384811e+01
2.180000000000000000e+02,1.170178508263651729e+01
2.190000000000000000e+02,1.173344770386772140e+01
2.200000000000000000e+02,1.176403358498203389e+01
2.210000000000000000e+02,1.179353611258670753e+01
2.220000000000000000e+02,1.182206086932011679e+01
2.230000000000000000e+02,1.184975239979374351e+01
2.240000000000000000e+02,1.187671355588454603e+01
2.250000000000000000e+02,1.190302269544878833e+01
2.260000000000000000e+02,1.192873217502165950e+01
2.270000000000000000e+02,1.195389493606699105e+01
2.280000000000000000e+02,1.197854732215465745e+01
2.290000000000000000e+02,1.200271709075320103e+01
2.300000000000000000e+02,1.202643671919174828e+01
2.310000000000000000e+02,1.204973293139167012e+01
2.320000000000000000e+02,1.207262080296515805e+01
2.330000000000000000e+02,1.209512279732055440e+01
2.340000000000000000e+02,1.211725484633646666e+01
2.350000000000000000e+02,1.213903426424468890e+01
2.360000000000000000e+02,1.216047110258164388e+01
2.370000000000000000e+02,1.218158272027920752e+01
2.380000000000000000e+02,1.220237959109969594e+01
2.390000000000000000e+02,1.222287098966468477e+01
2.400000000000000000e+02,1.224307079459632064e+01
2.410000000000000000e+02,1.226298426206330738e+01
2.420000000000000000e+02,1.228262058391383249e+01
2.430000000000000000e+02,1.230199367844110014e+01
2.440000000000000000e+02,1.232110268871983116e+01
2.450000000000000000e+02,1.233995919605514047e+01
2.460000000000000000e+02,1.235857024749102351e+01
2.470000000000000000e+02,1.237694125430466130e+01
2.480000000000000000e+02,1.239507830390430598e+01
2.490000000000000000e+02,1.241298860754008082e+01
2.500000000000000000e+02,1.243067578922610394e+01
2.510000000000000000e+02,1.244814492406659667e+01
2.520000000000000000e+02,1.246540199180760311e+01
2.530000000000000000e+02,1.248245176225809061e+01
2.540000000000000000e+02,1.249930013594521405e+01
2.550000000000000000e+02,1.251594718064366418e+01
2.560000000000000000e+02,1.253240040153950474e+01
2.570000000000000000e+02,1.254866312233810532e+01
2.580000000000000000e+02,1.256473758072651847e+01
2.590000000000000000e+02,1.258063056391828916e+01
2.600000000000000000e+02,1.259634309743358571e+01
2.610000000000000000e+02,1.261187993784490757e+01
2.620000000000000000e+02,1.262724189228618243e+01
2.630000000000000000e+02,1.264243209235356602e+01
2.640000000000000000e+02,1.265745516292187922e+01
2.650000000000000000e+02,1.267231450819800465e+01
2.660000000000000000e+02,1.268701349046745896e+01
2.670000000000000000e+02,1.270155180328646694e+01
2.680000000000000000e+02,1.271593318758146651e+01
2.690000000000000000e+02,1.273016047440089871e+01
2.700000000000000000e+02,1.274423682097570065e+01
2.710000000000000000e+02,1.275816491661468888e+01
2.720000000000000000e+02,1.277194569663504531e+01
2.730000000000000000e+02,1.278558187040570715e+01
2.740000000000000000e+02,1.279907304363327647e+01
2.750000000000000000e+02,1.281242616235332221e+01
2.760000000000000000e+02,1.282564027960594899e+01
2.770000000000000000e+02,1.283871579836331378e+01
2.780000000000000000e+02,1.285165920632218928e+01
2.790000000000000000e+02,1.286446823206158996e+01
2.800000000000000000e+02,1.287714668662916750e+01
2.810000000000000000e+02,1.288969531494723952e+01
2.820000000000000000e+02,1.290211738136043174e+01
2.830000000000000000e+02,1.291441232887763668e+01
2.840000000000000000e+02,1.292658387205207049e+01
2.850000000000000000e+02,1.293863268489059593e+01
2.860000000000000000e+02,1.295055936089320348e+01
2.870000000000000000e+02,1.296236720063787295e+01
2.880000000000000000e+02,1.297405592853787581e+01
2.890000000000000000e+02,1.298562956965412418e+01
2.900000000000000000e+02,1.299708747235335693e+01
2.910000000000000000e+02,1.300843188995029998e+01
2.920000000000000000e+02,1.301966422643225840e+01
2.930000000000000000e+02,1.303078463039654622e+01
2.940000000000000000e+02,1.304179585993692214e+01
2.950000000000000000e+02,1.305269824515515253e+01
2.960000000000000000e+02,1.306349293256541166e+01
2.970000000000000000e+02,1.307418119362453801e+01
2.980000000000000000e+02,1.308476647502882706e+01
2.990000000000000000e+02,1.309524878395379943e+01
3.000000000000000000e+02,1.310562744193662077e+01
3.010000000000000000e+02,1.311590490089523442e+01
3.020000000000000000e+02,1.312608257428268388e+01
3.030000000000000000e+02,1.313616206646021389e+01
3.040000000000000000e+02,1.314614259749878045e+01
3.050000000000000000e+02,1.315602751407624105e+01
3.060000000000000000e+02,1.316581723528970116e+01
3.070000000000000000e+02,1.317551048841976424e+01
3.080000000000000000e+02,1.318511219949847124e+01
3.090000000000000000e+02,1.319461959741974688e+01
3.100000000000000000e+02,1.320403704073600970e+01
3.110000000000000000e+02,1.321336249043419286e+01
3.120000000000000000e+02,1.322259960684819902e+01
3.130000000000000000e+02,1.323174754707849488e+01
3.140000000000000000e+02,1.324080867477185741e+01
3.150000000000000000e+02,1.324978253714619925e+01
3.160000000000000000e+02,1.325867027908473261e+01
3.170000000000000000e+02,1.326747429996531125e+01
3.180000000000000000e+02,1.327619326446846415e+01
3.190000000000000000e+02,1.328482915789706631e+01
3.200000000000000000e+02,1.329338223020164556e+01
3.210000000000000000e+02,1.330185491059534897e+01
3.220000000000000000e+02,1.331024617746166960e+01
3.230000000000000000e+02,1.331855844337576755e+01
3.240000000000000000e+02,1.332679239271038263e+01
3.250000000000000000e+02,1.333494784825521506e+01
3.260000000000000000e+02,1.334302588052243976e+01
3.270000000000000000e+02,1.335102722411670939e+01
3.280000000000000000e+02,1.335895293577549126e+01
3.290000000000000000e+02,1.336680367186075102e+01
3.300000000000000000e+02,1.337458008343521776e+01
3.310000000000000000e+02,1.338228288171974789e+01
3.320000000000000000e+02,1.338991303368426777e+01
3.330000000000000000e+02,1.339747195632375742e+01
3.340000000000000000e+02,1.340495962504255623e+01
3.350000000000000000e+02,1.341237770524259432e+01
3.360000000000000000e+02,1.341972531797769541e+01
3.370000000000000000e+02,1.342700307961330886e+01
3.380000000000000000e+02,1.343421315857446352e+01
3.390000000000000000e+02,1.344135544440977803e+01
3.400000000000000000e+02,1.344843047256368429e+01
3.410000000000000000e+02,1.345543922702729489e+01
3.420000000000000000e+02,1.346238236299006452e+01
3.430000000000000000e+02,1.346926091836930262e+01
3.440000000000000000e+02,1.347607450708212262e+01
3.450000000000000000e+02,1.348282506113370438e+01
3.460000000000000000e+02,1.348951199430172743e+01
3.470000000000000000e+02,1.349613652057455759e+01
3.480000000000000000e+02,1.350269894874206678e+01
3.490000000000000000e+02,1.350920016214437780e+01
3.500000000000000000e+02,1.351564116738331123e+01
3.510000000000000000e+02,1.352202130120850398e+01
3.520000000000000000e+02,1.352834271572111646e+01
3.530000000000000000e+02,1.353460486967116871e+01
3.540000000000000000e+02,1.354080894620659592e+01
3.550000000000000000e+02,1.354695440055413158e+01
3.560000000000000000e+02,1.355304412990683893e+01
3.570000000000000000e+02,1.355907630803684860e+01
3.580000000000000000e+02,1.356505229471415319e+01
3.590000000000000000e+02,1.357097369787935470e+01
3.600000000000000000e+02,1.357683919739378631e+01
3.610000000000000000e+02,1.358265001449619547e+01
3.620000000000000000e+02,1.358840793561090088e+01
3.630000000000000000e+02,1.359411144606169231e+01
3.640000000000000000e+02,1.359976194650443126e+01
3.650000000000000000e+02,1.360536064207667906e+01
3.660000000000000000e+02,1.361090727953269841e+01
3.670000000000000000e+02,1.361640274183481658e+01
3.680000000000000000e+02,1.362184727716633859e+01
3.690000000000000000e+02,1.362724157312873174e+01
3.700000000000000000e+02,1.363258593619984893e+01
3.710000000000000000e+02,1.363788073382819555e+01
3.720000000000000000e+02,1.364312651999787107e+01
3.730000000000000000e+02,1.364832416022600725e+01
3.740000000000000000e+02,1.365347307217141370e+01
3.750000000000000000e+02,1.365857474497650514e+01
3.760000000000000000e+02,1.366362978459888033e+01
3.770000000000000000e+02,1.366863785448763835e+01
3.780000000000000000e+02,1.367359980778115158e+01
3.790000000000000000e+02,1.367851549323322047e+01
3.800000000000000000e+02,1.368338594705774547e+01
3.810000000000000000e+02,1.368821107710507334e+01
3.820000000000000000e+02,1.369299197687830905e+01
3.830000000000000000e+02,1.369772880017970351e+01
3.840000000000000000e+02,1.370242244776091489e+01
3.850000000000000000e+02,1.370707288257336209e+01
3.860000000000000000e+02,1.371168068954030517e+01
3.870000000000000000e+02,1.371624551795139801e+01
3.880000000000000000e+02,1.372076782562759689e+01
3.890000000000000000e+02,1.372524881412051556e+01
3.900000000000000000e+02,1.372968943274164921e+01
3.910000000000000000e+02,1.373408889000498512e+01
3.920000000000000000e+02,1.373844726405685535e+01
3.930000000000000000e+02,1.374276543791613214e+01
3.940000000000000000e+02,1.374704503503040698e+01
3.950000000000000000e+02,1.375128488847900954e+01
3.960000000000000000e+02,1.375548550399120629e+01
3.970000000000000000e+02,1.375964732360005094e+01
3.980000000000000000e+02,1.376377196170656347e+01
