# Time [s], Convective Heat Transfer Coefficient [W/m2K]
1.000000000000000000e+00,0.000000000000000000e+00
2.000000000000000000e+00,0.000000000000000000e+00
3.000000000000000000e+00,0.000000000000000000e+00
4.000000000000000000e+00,0.000000000000000000e+00
5.000000000000000000e+00,2.762023300960968902e-02
6.000000000000000000e+00,4.924209937913938406e-02
7.000000000000000000e+00,7.985453566186268004e-02
8.000000000000000000e+00,1.204814083562702615e-01
9.000000000000000000e+00,1.722389036381287708e-01
1.000000000000000000e+01,2.352647329804843923e-01
1.100000000000000000e+01,3.091927939335636921e-01
1.200000000000000000e+01,3.932491629936426536e-01
1.300000000000000000e+01,4.863455668252612552e-01
1.400000000000000000e+01,5.872959753237809721e-01
1.500000000000000000e+01,6.948849561039615041e-01
1.600000000000000000e+01,8.079488114485300354e-01
1.700000000000000000e+01,9.254141743872515979e-01
1.800000000000000000e+01,1.046327354388393527e+00
1.900000000000000000e+01,1.169851117229981918e+00
2.000000000000000000e+01,1.295257588102507240e+00
2.100000000000000000e+01,1.421929075813756604e+00
2.200000000000000000e+01,1.549340555202938008e+00
2.300000000000000000e+01,1.677047228056449901e+00
2.400000000000000000e+01,1.804671704503379770e+00
2.500000000000000000e+01,1.931898198334625949e+00
2.600000000000000000e+01,2.058469916486694640e+00
2.700000000000000000e+01,2.184164805231730178e+00
2.800000000000000000e+01,2.308801965117131871e+00
2.900000000000000000e+01,2.432236487419909832e+00
3.000000000000000000e+01,2.554345672259032529e+00
3.100000000000000000e+01,2.675034786629019390e+00
3.200000000000000000e+01,2.794227486433804142e+00
3.300000000000000000e+01,2.911864709227947046e+00
3.400000000000000000e+01,3.027904417805525217e+00
3.500000000000000000e+01,3.142315731819244728e+00
3.600000000000000000e+01,3.255081033173173655e+00
3.700000000000000000e+01,3.366185184984716638e+00
3.800000000000000000e+01,3.475627875962562285e+00
3.900000000000000000e+01,3.583409641892874031e+00
4.000000000000000000e+01,3.689537153998688979e+00
4.100000000000000000e+01,3.794021579538363831e+00
4.200000000000000000e+01,3.896876407721856950e+00
4.300000000000000000e+01,3.998120304120213131e+00
4.400000000000000000e+01,4.097768411859806115e+00
4.500000000000000000e+01,4.195844275481832142e+00
4.600000000000000000e+01,4.292367022789742137e+00
4.700000000000000000e+01,4.387360436153492138e+00
4.800000000000000000e+01,4.480846464478188906e+00
4.900000000000000000e+01,4.572847905988081330e+00
5.000000000000000000e+01,4.663389097739132794e+00
5.100000000000000000e+01,4.752493255082550938e+00
5.200000000000000000e+01,4.840184247183636046e+00
5.300000000000000000e+01,4.926484355018665440e+00
5.400000000000000000e+01,5.011419441250535733e+00
5.500000000000000000e+01,5.095008199477604194e+00
5.600000000000000000e+01,5.177275765917024763e+00
5.700000000000000000e+01,5.258243170735349636e+00
5.800000000000000000e+01,5.337934370520777350e+00
5.900000000000000000e+01,5.416369667095206175e+00
6.000000000000000000e+01,5.493570556986782094e+00
6.100000000000000000e+01,5.569557873952295957e+00
6.200000000000000000e+01,5.644352438331989852e+00
6.300000000000000000e+01,5.717975649267591720e+00
6.400000000000000000e+01,5.790446888056676400e+00
6.500000000000000000e+01,5.861787335504171637e+00
6.600000000000000000e+01,5.932017365381963003e+00
6.700000000000000000e+01,6.001158171855199619e+00
6.800000000000000000e+01,6.069226922590639006e+00
6.900000000000000000e+01,6.136245264801108767e+00
7.000000000000000000e+01,6.202233451250461549e+00
7.100000000000000000e+01,6.267210151109593674e+00
7.200000000000000000e+01,6.331196344634158812e+00
7.300000000000000000e+01,6.394209569982093555e+00
7.400000000000000000e+01,6.456270323212513595e+00
7.500000000000000000e+01,6.517399664168003426e+00
7.600000000000000000e+01,6.577615170414534695e+00
7.700000000000000000e+01,6.636936867072027013e+00
7.800000000000000000e+01,6.695384570581165207e+00
7.900000000000000000e+01,6.752974559245769726e+00
8.000000000000000000e+01,6.809728441454895531e+00
8.100000000000000000e+01,6.865661289719787064e+00
8.200000000000000000e+01,6.920794131990823495e+00
8.300000000000000000e+01,6.975141210879969300e+00
8.400000000000000000e+01,7.028722582991570711e+00
8.500000000000000000e+01,7.081552943373334408e+00
8.600000000000000000e+01,7.133647767456088751e+00
8.700000000000000000e+01,7.185025066467639832e+00
8.800000000000000000e+01,7.235697160009117113e+00
8.900000000000000000e+01,7.285680108896024798e+00
9.000000000000000000e+01,7.334988675361646671e+00
9.100000000000000000e+01,7.383634477519506412e+00
9.200000000000000000e+01,7.431633399348177349e+00
9.300000000000000000e+01,7.478997158563439385e+00
9.400000000000000000e+01,7.525737288181499451e+00
9.500000000000000000e+01,7.571868618906333559e+00
9.600000000000000000e+01,7.617400206476229840e+00
9.700000000000000000e+01,7.662346040955115178e+00
9.800000000000000000e+01,7.706717273265676127e+00
9.900000000000000000e+01,7.750523742979203767e+00
1.000000000000000000e+02,7.793778485040571802e+00
1.010000000000000000e+02,7.836489741709254275e+00
1.020000000000000000e+02,7.878669519866535076e+00
1.030000000000000000e+02,7.920327235916321484e+00
1.040000000000000000e+02,7.961473361653259140e+00
1.050000000000000000e+02,8.002117361574720533e+00
1.060000000000000000e+02,8.042267564698308391e+00
1.070000000000000000e+02,8.081933910504936591e+00
1.080000000000000000e+02,8.121124145560679963e+00
1.090000000000000000e+02,8.159848325336589880e+00
1.100000000000000000e+02,8.198112437827917987e+00
1.110000000000000000e+02,8.235926013763387843e+00
1.120000000000000000e+02,8.273296836761444339e+00
1.130000000000000000e+02,8.310231871237268919e+00
1.140000000000000000e+02,8.346738644234076077e+00
1.150000000000000000e+02,8.382823723468250776e+00
1.160000000000000000e+02,8.418495567735980956e+00
1.170000000000000000e+02,8.453759208030321659e+00
1.180000000000000000e+02,8.488621589217940411e+00
1.190000000000000000e+02,8.523090043121989368e+00
1.200000000000000000e+02,8.557170516468877608e+00
1.210000000000000000e+02,8.590868578885855200e+00
1.220000000000000000e+02,8.624190855300989611e+00
1.230000000000000000e+02,8.657143581323923698e+00
1.240000000000000000e+02,8.689731379473281336e+00
1.250000000000000000e+02,8.721960705691801152e+00
1.260000000000000000e+02,8.753836270039320411e+00
1.270000000000000000e+02,8.785364286089436092e+00
1.280000000000000000e+02,8.816549858688844665e+00
1.290000000000000000e+02,8.847397622521409488e+00
1.300000000000000000e+02,8.877912353567962711e+00
1.310000000000000000e+02,8.908098375298390437e+00
1.320000000000000000e+02,8.937960600626615459e+00
1.330000000000000000e+02,8.967503494488353155e+00
1.340000000000000000e+02,8.996731523497832228e+00
1.350000000000000000e+02,9.025648582160416211e+00
1.360000000000000000e+02,9.054258725965155463e+00
1.370000000000000000e+02,9.082566309113740743e+00
1.380000000000000000e+02,9.110574989058527251e+00
1.390000000000000000e+02,9.138288589756108138e+00
1.400000000000000000e+02,9.165711236820659025e+00
1.410000000000000000e+02,9.192846518398418709e+00
1.420000000000000000e+02,9.219698052680460165e+00
1.430000000000000000e+02,9.246269761691998212e+00
1.440000000000000000e+02,9.272564502045979040e+00
1.450000000000000000e+02,9.298586261877279213e+00
1.460000000000000000e+02,9.324338245212215881e+00
1.470000000000000000e+02,9.349824099496393259e+00
1.480000000000000000e+02,9.375046572513342724e+00
1.490000000000000000e+02,9.400009126910708446e+00
1.500000000000000000e+02,9.424715922024946124e+00
1.510000000000000000e+02,9.449168256852756187e+00
1.520000000000000000e+02,9.473371296433246158e+00
1.530000000000000000e+02,9.497326577014733928e+00
1.540000000000000000e+02,9.521037004923051938e+00
1.550000000000000000e+02,9.544506437532641385e+00
1.560000000000000000e+02,9.567736591817023850e+00
1.570000000000000000e+02,9.590731296335924583e+00
1.580000000000000000e+02,9.613491755016895013e+00
1.590000000000000000e+02,9.636021904423440532e+00
1.600000000000000000e+02,9.658322327302576227e+00
1.610000000000000000e+02,9.680397075567858778e+00
1.620000000000000000e+02,9.702246006420855551e+00
1.630000000000000000e+02,9.723872428614722452e+00
1.640000000000000000e+02,9.745278342461379140e+00
1.650000000000000000e+02,9.766464223568751990e+00
1.660000000000000000e+02,9.787432477454926172e+00
1.670000000000000000e+02,9.808183869783613673e+00
1.680000000000000000e+02,9.828719863461735429e+00
1.690000000000000000e+02,9.849041518148696994e+00
1.700000000000000000e+02,9.869149859234084943e+00
1.710000000000000000e+02,9.889045040695084055e+00
1.720000000000000000e+02,9.908728508546532865e+00
1.730000000000000000e+02,9.928200243835540562e+00
1.740000000000000000e+02,9.947461275514019263e+00
1.750000000000000000e+02,9.966511303192923776e+00
1.760000000000000000e+02,9.985350952974945571e+00
1.770000000000000000e+02,1.000398082412191769e+01
1.780000000000000000e+02,1.002240009106548868e+01
1.790000000000000000e+02,1.004060943207098866e+01
1.800000000000000000e+02,1.005860880351860231e+01
1.810000000000000000e+02,1.007639779851318274e+01
1.820000000000000000e+02,1.009397645719123204e+01
1.830000000000000000e+02,1.011134388471762868e+01
1.840000000000000000e+02,1.012850043496409747e+01
1.850000000000000000e+02,1.014544495965404280e+01
1.860000000000000000e+02,1.016217698670323166e+01
1.870000000000000000e+02,1.017869614368864006e+01
1.880000000000000000e+02,1.019500181799137373e+01
1.890000000000000000e+02,1.021109304795757922e+01
1.900000000000000000e+02,1.022696875171895492e+01
1.910000000000000000e+02,1.024262850952277226e+01
1.920000000000000000e+02,1.025807099573705372e+01
1.930000000000000000e+02,1.027329598836979763e+01
1.940000000000000000e+02,1.028830214044447189e+01
1.950000000000000000e+02,1.030308898078598112e+01
1.960000000000000000e+02,1.031765459171962007e+01
1.970000000000000000e+02,1.033199924747743381e+01
1.980000000000000000e+02,1.034612188386905807e+01
1.990000000000000000e+02,1.036002066146751588e+01
2.000000000000000000e+02,1.037369612978353750e+01
2.010000000000000000e+02,1.038714685555785877e+01
2.020000000000000000e+02,1.040037291106235351e+01
2.030000000000000000e+02,1.041337304783174744e+01
2.040000000000000000e+02,1.042614718947332619e+01
2.050000000000000000e+02,1.043869469805614081e+01
2.060000000000000000e+02,1.045101630966298067e+01
2.070000000000000000e+02,1.046311176568602441e+01
2.080000000000000000e+02,1.047498174454498709e+01
2.090000000000000000e+02,1.048662572205300236e+01
2.100000000000000000e+02,1.049804495866664844e+01
2.110000000000000000e+02,1.050924099624637620e+01
2.120000000000000000e+02,1.052021385739214132e+01
2.130000000000000000e+02,1.053096575578854832e+01
2.140000000000000000e+02,1.054149801924816465e+01
2.150000000000000000e+02,1.055181257101868297e+01
2.160000000000000000e+02,1.056191202941571206e+01
2.170000000000000000e+02,1.057179813084892750e+01
2.180000000000000000e+02,1.058147435247549417e+01
2.190000000000000000e+02,1.059094318379281852e+01
2.200000000000000000e+02,1.060020874093834031e+01
2.210000000000000000e+02,1.060927404958613174e+01
2.220000000000000000e+02,1.061814323582338915e+01
2.230000000000000000e+02,1.062682027426421172e+01
2.240000000000000000e+02,1.063530971506289369e+01
2.250000000000000000e+02,1.064361626738140743e+01
2.260000000000000000e+02,1.065174500596863183e+01
2.270000000000000000e+02,1.065970085479868779e+01
2.280000000000000000e+02,1.066748920692580960e+01
2.290000000000000000e+02,1.067511643619939221e+01
2.300000000000000000e+02,1.068258712233400942e+01
2.310000000000000000e+02,1.068990765029215062e+01
2.320000000000000000e+02,1.069708394879154412e+01
2.330000000000000000e+02,1.070412221011701526e+01
2.340000000000000000e+02,1.071102878785761447e+01
2.350000000000000000e+02,1.071781019735616169e+01
2.360000000000000000e+02,1.072447250546915853e+01
2.370000000000000000e+02,1.073102255455904341e+01
2.380000000000000000e+02,1.073746663915633448e+01
2.390000000000000000e+02,1.074381122039673286e+01
2.400000000000000000e+02,1.075006323007648668e+01
2.410000000000000000e+02,1.075622834901062141e+01
2.420000000000000000e+02,1.076231323860812772e+01
2.430000000000000000e+02,1.076832452672133300e+01
2.440000000000000000e+02,1.077426870788841917e+01
2.450000000000000000e+02,1.078015224560518348e+01
2.460000000000000000e+02,1.078598086886545637e+01
2.470000000000000000e+02,1.079176088341452733e+01
2.480000000000000000e+02,1.079749816513140459e+01
2.490000000000000000e+02,1.080319916579622586e+01
2.500000000000000000e+02,1.080886960792278195e+01
2.510000000000000000e+02,1.081451458901254981e+01
2.520000000000000000e+02,1.082014028484319468e+01
2.530000000000000000e+02,1.082575154686626817e+01
2.540000000000000000e+02,1.083135430393002530e+01
2.550000000000000000e+02,1.083695366293225426e+01
2.560000000000000000e+02,1.084255461011316513e+01
2.570000000000000000e+02,1.084816240954425481e+01
2.580000000000000000e+02,1.085378091236704989e+01
2.590000000000000000e+02,1.085941683240236699e+01
2.600000000000000000e+02,1.086507298814338185e+01
2.610000000000000000e+02,1.087075684182395641e+01
2.620000000000000000e+02,1.087646968891802501e+01
2.630000000000000000e+02,1.088221736600103462e+01
2.640000000000000000e+02,1.088800538807711682e+01
2.650000000000000000e+02,1.089383599069862818e+01
2.660000000000000000e+02,1.089971563564896329e+01
2.670000000000000000e+02,1.090564672005314506e+01
2.680000000000000000e+02,1.091163634826387963e+01
2.690000000000000000e+02,1.091768628829271925e+01
2.700000000000000000e+02,1.092380084870855406e+01
2.710000000000000000e+02,1.092998539424931437e+01
2.720000000000000000e+02,1.093624389233790062e+01
2.730000000000000000e+02,1.094258107118277756e+01
2.740000000000000000e+02,1.094900134061317765e+01
2.750000000000000000e+02,1.095550811050949491e+01
2.760000000000000000e+02,1.096210613402977962e+01
2.770000000000000000e+02,1.096879984481427428e+01
2.780000000000000000e+02,1.097559569029797721e+01
2.790000000000000000e+02,1.098249542159037695e+01
2.800000000000000000e+02,1.098950746280772961e+01
2.810000000000000000e+02,1.099663437987361370e+01
2.820000000000000000e+02,1.100388248814046399e+01
2.830000000000000000e+02,1.101125622702605966e+01
2.840000000000000000e+02,1.101876144938808899e+01
2.850000000000000000e+02,1.102640444782307050e+01
2.860000000000000000e+02,1.103419098859927594e+01
2.870000000000000000e+02,1.104212612172270269e+01
2.880000000000000000e+02,1.105021763575768823e+01
2.890000000000000000e+02,1.105847191980686972e+01
2.900000000000000000e+02,1.106689358946260704e+01
2.910000000000000000e+02,1.107549389634266745e+01
2.920000000000000000e+02,1.108427762086865265e+01
2.930000000000000000e+02,1.109324892327495959e+01
2.940000000000000000e+02,1.110242340785090676e+01
2.950000000000000000e+02,1.111180470234058504e+01
2.960000000000000000e+02,1.112140149629970232e+01
2.970000000000000000e+02,1.113122428277209508e+01
2.980000000000000000e+02,1.114128043444404526e+01
2.990000000000000000e+02,1.115158100531775531e+01
3.000000000000000000e+02,1.116213355204927105e+01
3.010000000000000000e+02,1.117294638226029058e+01
3.020000000000000000e+02,1.118403191246471984e+01
3.030000000000000000e+02,1.119540045796126826e+01
3.040000000000000000e+02,1.120706062088560273e+01
3.050000000000000000e+02,1.121902609200223289e+01
3.060000000000000000e+02,1.123129767971094850e+01
3.070000000000000000e+02,1.124388585353371361e+01
3.080000000000000000e+02,1.125679751468516443e+01
3.090000000000000000e+02,1.127004607726547647e+01
3.100000000000000000e+02,1.128363088243354007e+01
3.110000000000000000e+02,1.129754910255459777e+01
3.120000000000000000e+02,1.131181232718349605e+01
3.130000000000000000e+02,1.132641170440426315e+01
3.140000000000000000e+02,1.134134022617450199e+01
3.150000000000000000e+02,1.135658789816537251e+01
3.160000000000000000e+02,1.137214287065854457e+01
3.170000000000000000e+02,1.138798208238286591e+01
3.180000000000000000e+02,1.140408492660461803e+01
3.190000000000000000e+02,1.142041069980858126e+01
3.200000000000000000e+02,1.143692288588222894e+01
3.210000000000000000e+02,1.145357733231088204e+01
3.220000000000000000e+02,1.147032379731612117e+01
3.230000000000000000e+02,1.148710950963081778e+01
3.240000000000000000e+02,1.150387417136272816e+01
3.250000000000000000e+02,1.152056021322727908e+01
3.260000000000000000e+02,1.153711890883660729e+01
3.270000000000000000e+02,1.155349314033089847e+01
3.280000000000000000e+02,1.156964575157923747e+01
3.290000000000000000e+02,1.158554207527795654e+01
3.300000000000000000e+02,1.160115945292360173e+01
3.310000000000000000e+02,1.161648532650346688e+01
3.320000000000000000e+02,1.163151969319492984e+01
3.330000000000000000e+02,1.164626328922761900e+01
3.340000000000000000e+02,1.166072627565434239e+01
3.350000000000000000e+02,1.167492374401993338e+01
3.360000000000000000e+02,1.168887043551345073e+01
3.370000000000000000e+02,1.170258049462308847e+01
3.380000000000000000e+02,1.171606935766334523e+01
3.390000000000000000e+02,1.172935008440474292e+01
3.400000000000000000e+02,1.174243211614475513e+01
3.410000000000000000e+02,1.175532614793187314e+01
3.420000000000000000e+02,1.176804284986853588e+01
3.430000000000000000e+02,1.178058721901038020e+01
3.440000000000000000e+02,1.179296773216874605e+01
3.450000000000000000e+02,1.180519278327798638e+01
3.460000000000000000e+02,1.181726347729144067e+01
3.470000000000000000e+02,1.182918826177150073e+01
3.480000000000000000e+02,1.184097058105070666e+01
3.490000000000000000e+02,1.185261584324068629e+01
3.500000000000000000e+02,1.186412865745771583e+01
3.510000000000000000e+02,1.187551143146459687e+01
3.520000000000000000e+02,1.188676911572357042e+01
3.530000000000000000e+02,1.189790421847102841e+01
3.540000000000000000e+02,1.190892087365734398e+01
3.550000000000000000e+02,1.191982004794772365e+01
3.560000000000000000e+02,1.193060631375092306e+01
3.570000000000000000e+02,1.194128289154947353e+01
3.580000000000000000e+02,1.195185084311300372e+01
3.590000000000000000e+02,1.196231228126518609e+01
3.600000000000000000e+02,1.197267117757923849e+01
3.610000000000000000e+02,1.198292861841744994e+01
3.620000000000000000e+02,1.199308763169786651e+01
3.630000000000000000e+02,1.200314853956744443e+01
3.640000000000000000e+02,1.201311295587446359e+01
3.650000000000000000e+02,1.202298418050537343e+01
3.660000000000000000e+02,1.203276379021328069e+01
3.670000000000000000e+02,1.204245359019179773e+01
3.680000000000000000e+02,1.205205456477078663e+01
3.690000000000000000e+02,1.206156857386056913e+01
3.700000000000000000e+02,1.207099649844852074e+01
3.710000000000000000e+02,1.208033872967985545e+01
3.720000000000000000e+02,1.208959757544886315e+01
3.730000000000000000e+02,1.209877636623514263e+01
3.740000000000000000e+02,1.210787545520646091e+01
3.750000000000000000e+02,1.211689519080605315e+01
3.760000000000000000e+02,1.212583647411171128e+01
3.770000000000000000e+02,1.213470043684236011e+01
3.780000000000000000e+02,1.214348756658118411e+01
3.790000000000000000e+02,1.215220104078166941e+01
3.800000000000000000e+02,1.216084116681102323e+01
3.810000000000000000e+02,1.216940824808441235e+01
3.820000000000000000e+02,1.217790305772134829e+01
3.830000000000000000e+02,1.218632730827425981e+01
3.840000000000000000e+02,1.219468230718052659e+01
3.850000000000000000e+02,1.220296738748081289e+01
3.860000000000000000e+02,1.221118510251728928e+01
3.870000000000000000e+02,1.221933383481620616e+01
3.880000000000000000e+02,1.222741682795011187e+01
3.890000000000000000e+02,1.223543425698510667e+01
3.900000000000000000e+02,1.224338590384405201e+01
3.910000000000000000e+02,1.225127388954813412e+01
3.920000000000000000e+02,1.225909751839866324e+01
3.930000000000000000e+02,1.226685897490655286e+01
3.940000000000000000e+02,1.227455802234425697e+01
3.950000000000000000e+02,1.228219574275824932e+01
3.960000000000000000e+02,1.228977243621707949e+01
3.970000000000000000e+02,1.229728832236257396e+01
3.980000000000000000e+02,1.230474547379625960e+01
