# Time [s], Convective Heat Transfer Coefficient [W/m2K]
1.000000000000000000e+00,0.000000000000000000e+00
2.000000000000000000e+00,0.000000000000000000e+00
3.000000000000000000e+00,0.000000000000000000e+00
4.000000000000000000e+00,2.762023300960968902e-02
5.000000000000000000e+00,4.322677809297574558e-02
6.000000000000000000e+00,6.709287542901243295e-02
7.000000000000000000e+00,9.991170446199730548e-02
8.000000000000000000e+00,1.423860778376241920e-01
9.000000000000000000e+00,1.951103816870154717e-01
1.000000000000000000e+01,2.581367561340015548e-01
1.100000000000000000e+01,3.311014541854930271e-01
1.200000000000000000e+01,4.133670661427511495e-01
1.300000000000000000e+01,5.040860966546116817e-01
1.400000000000000000e+01,6.022521664221945903e-01
1.500000000000000000e+01,7.068383684416705837e-01
1.600000000000000000e+01,8.168489585573797118e-01
1.700000000000000000e+01,9.313412892843349056e-01
1.800000000000000000e+01,1.049466830715246157e+00
1.900000000000000000e+01,1.170460670380564228e+00
2.000000000000000000e+01,1.293638889064735009e+00
2.100000000000000000e+01,1.418397298063362122e+00
2.200000000000000000e+01,1.544244360690715911e+00
2.300000000000000000e+01,1.670720210750924695e+00
2.400000000000000000e+01,1.797443066846333926e+00
2.500000000000000000e+01,1.924060714557436214e+00
2.600000000000000000e+01,2.050305542186151353e+00
2.700000000000000000e+01,2.175906775598112297e+00
2.800000000000000000e+01,2.300652795597062816e+00
2.900000000000000000e+01,2.424364374826596169e+00
3.000000000000000000e+01,2.546911312587623932e+00
3.100000000000000000e+01,2.668167427716935158e+00
3.200000000000000000e+01,2.788052663850850710e+00
3.300000000000000000e+01,2.906500322905294365e+00
3.400000000000000000e+01,3.023459331965876906e+00
3.500000000000000000e+01,3.138895808936576604e+00
3.600000000000000000e+01,3.252799889364423880e+00
3.700000000000000000e+01,3.365135766214123247e+00
3.800000000000000000e+01,3.475924280881072193e+00
3.900000000000000000e+01,3.585152460731955593e+00
4.000000000000000000e+01,3.692838242655279046e+00
4.100000000000000000e+01,3.798979177526699669e+00
4.200000000000000000e+01,3.903594131393299804e+00
4.300000000000000000e+01,4.006675122010181056e+00
4.400000000000000000e+01,4.108250831046900586e+00
4.500000000000000000e+01,4.208332936449029837e+00
4.600000000000000000e+01,4.306941298718819588e+00
4.700000000000000000e+01,4.404081327514253630e+00
4.800000000000000000e+01,4.499779073871703616e+00
4.900000000000000000e+01,4.594047274550577598e+00
5.000000000000000000e+01,4.686900899530907161e+00
5.100000000000000000e+01,4.778358091410795261e+00
5.200000000000000000e+01,4.868432360788863100e+00
5.300000000000000000e+01,4.957147790850230606e+00
5.400000000000000000e+01,5.044505172393242809e+00
5.500000000000000000e+01,5.130541037916593439e+00
5.600000000000000000e+01,5.215265646575474534e+00
5.700000000000000000e+01,5.298690803768447921e+00
5.800000000000000000e+01,5.380840632972231141e+00
5.900000000000000000e+01,5.461724979525182100e+00
6.000000000000000000e+01,5.541364536213636782e+00
6.100000000000000000e+01,5.619779990839514738e+00
6.200000000000000000e+01,5.696982939502689192e+00
6.300000000000000000e+01,5.772989308167632672e+00
6.400000000000000000e+01,5.847816895195947495e+00
6.500000000000000000e+01,5.921493336802870822e+00
6.600000000000000000e+01,5.994019792297801352e+00
6.700000000000000000e+01,6.065426008500501176e+00
6.800000000000000000e+01,6.135719134860011081e+00
6.900000000000000000e+01,6.204930059872389769e+00
7.000000000000000000e+01,6.273073573580428608e+00
7.100000000000000000e+01,6.340158534582776007e+00
7.200000000000000000e+01,6.406212624796495447e+00
7.300000000000000000e+01,6.471250764715833270e+00
7.400000000000000000e+01,6.535290480038230321e+00
7.500000000000000000e+01,6.598348666257583872e+00
7.600000000000000000e+01,6.660449460320214676e+00
7.700000000000000000e+01,6.721608690944202102e+00
7.800000000000000000e+01,6.781843764973960020e+00
7.900000000000000000e+01,6.841175514838172766e+00
8.000000000000000000e+01,6.899617814528705928e+00
8.100000000000000000e+01,6.957193624029236467e+00
8.200000000000000000e+01,7.013912829061466070e+00
8.300000000000000000e+01,7.069800437006318106e+00
8.400000000000000000e+01,7.124873953515343139e+00
8.500000000000000000e+01,7.179150538017095684e+00
8.600000000000000000e+01,7.232646131576810689e+00
8.700000000000000000e+01,7.285375322539213272e+00
8.800000000000000000e+01,7.337355354070909108e+00
8.900000000000000000e+01,7.388604437542023895e+00
9.000000000000000000e+01,7.439137246363786815e+00
9.100000000000000000e+01,7.488968910770497089e+00
9.200000000000000000e+01,7.538113340607447199e+00
9.300000000000000000e+01,7.586584525016828451e+00
9.400000000000000000e+01,7.634396729485465549e+00
9.500000000000000000e+01,7.681567059742630654e+00
9.600000000000000000e+01,7.728106865655541391e+00
9.700000000000000000e+01,7.774029252420912250e+00
9.800000000000000000e+01,7.819347448396553268e+00
9.900000000000000000e+01,7.864074422358214633e+00
1.000000000000000000e+02,7.908222714026394762e+00
1.010000000000000000e+02,7.951803905467254907e+00
1.020000000000000000e+02,7.994822082596128254e+00
1.030000000000000000e+02,8.037296522247061148e+00
1.040000000000000000e+02,8.079237947801805930e+00
1.050000000000000000e+02,8.120655896362672266e+00
1.060000000000000000e+02,8.161557902137262843e+00
1.070000000000000000e+02,8.201952381083071231e+00
1.080000000000000000e+02,8.241853931346170725e+00
1.090000000000000000e+02,8.281272970461897032e+00
1.100000000000000000e+02,8.320215091160257259e+00
1.110000000000000000e+02,8.358687150315446956e+00
1.120000000000000000e+02,8.396701196738582951e+00
1.130000000000000000e+02,8.434265026425546097e+00
1.140000000000000000e+02,8.471382699375556768e+00
1.150000000000000000e+02,8.508065213685378936e+00
1.160000000000000000e+02,8.544322194221152245e+00
1.170000000000000000e+02,8.580156706717430026e+00
1.180000000000000000e+02,8.615576411732986273e+00
1.190000000000000000e+02,8.650587277693606580e+00
1.200000000000000000e+02,8.685196754140083186e+00
1.210000000000000000e+02,8.719411097541225786e+00
1.220000000000000000e+02,8.753236641796124928e+00
1.230000000000000000e+02,8.786679645259141580e+00
1.240000000000000000e+02,8.819745091357543032e+00
1.250000000000000000e+02,8.852437782914133635e+00
1.260000000000000000e+02,8.884765315566223620e+00
1.270000000000000000e+02,8.916733561876174718e+00
1.280000000000000000e+02,8.948346442234472065e+00
1.290000000000000000e+02,8.979611075487113681e+00
1.300000000000000000e+02,9.010529884209066864e+00
1.310000000000000000e+02,9.041110207304463131e+00
1.320000000000000000e+02,9.071358446130062703e+00
1.330000000000000000e+02,9.101278260560619060e+00
1.340000000000000000e+02,9.130875012279457081e+00
1.350000000000000000e+02,9.160156408686802365e+00
1.360000000000000000e+02,9.189126469438924971e+00
1.370000000000000000e+02,9.217791154381547614e+00
1.380000000000000000e+02,9.246156935767610108e+00
1.390000000000000000e+02,9.274228879192657260e+00
1.400000000000000000e+02,9.302014610886855550e+00
1.410000000000000000e+02,9.329517384733529539e+00
1.420000000000000000e+02,9.356744368024614289e+00
1.430000000000000000e+02,9.383699350998536914e+00
1.440000000000000000e+02,9.410389454158092803e+00
1.450000000000000000e+02,9.436818594994527132e+00
1.460000000000000000e+02,9.462991238874492339e+00
1.470000000000000000e+02,9.488911994989811305e+00
1.480000000000000000e+02,9.514585096378239015e+00
1.490000000000000000e+02,9.540013896635860746e+00
1.500000000000000000e+02,9.565201277919946676e+00
1.510000000000000000e+02,9.590146736492227930e+00
1.520000000000000000e+02,9.614854194388332331e+00
1.530000000000000000e+02,9.639329492860161608e+00
1.540000000000000000e+02,9.663572197302968902e+00
1.550000000000000000e+02,9.687583487636922897e+00
1.560000000000000000e+02,9.711363015199415472e+00
1.570000000000000000e+02,9.734911286609674974e+00
1.580000000000000000e+02,9.758231486820665879e+00
1.590000000000000000e+02,9.781323909869499289e+00
1.600000000000000000e+02,9.804188340832286741e+00
1.610000000000000000e+02,9.826823946043637292e+00
1.620000000000000000e+02,9.849233751559623329e+00
1.630000000000000000e+02,9.871415305871735768e+00
1.640000000000000000e+02,9.893370609022682061e+00
1.650000000000000000e+02,9.915099822107569238e+00
1.660000000000000000e+02,9.936599291898025044e+00
1.670000000000000000e+02,9.957872728927872785e+00
1.680000000000000000e+02,9.978916944042476089e+00
1.690000000000000000e+02,9.999732997159011205e+00
1.700000000000000000e+02,1.002032016267123993e+01
1.710000000000000000e+02,1.004067666236602818e+01
1.720000000000000000e+02,1.006080315535894876e+01
1.730000000000000000e+02,1.008069646859827095e+01
1.740000000000000000e+02,1.010035644131701815e+01
1.750000000000000000e+02,1.011978152212283000e+01
1.760000000000000000e+02,1.013897278048345640e+01
1.770000000000000000e+02,1.015792682313577089e+01
1.780000000000000000e+02,1.017664277114422156e+01
1.790000000000000000e+02,1.019511725733316077e+01
1.800000000000000000e+02,1.021335008104897746e+01
1.810000000000000000e+02,1.023133878318426149e+01
1.820000000000000000e+02,1.024908158228985577e+01
1.830000000000000000e+02,1.026657669534902162e+01
1.840000000000000000e+02,1.028382189399999547e+01
1.850000000000000000e+02,1.030081550372478105e+01
1.860000000000000000e+02,1.031755595374761114e+01
1.870000000000000000e+02,1.033403881475327069e+01
1.880000000000000000e+02,1.035026525657631957e+01
1.890000000000000000e+02,1.036623150197822696e+01
1.900000000000000000e+02,1.038193617824857995e+01
1.910000000000000000e+02,1.039737648958456973e+01
1.920000000000000000e+02,1.041255125999571796e+01
1.930000000000000000e+02,1.042745724814204422e+01
1.940000000000000000e+02,1.044209572425766552e+01
1.950000000000000000e+02,1.045646309188124512e+01
1.960000000000000000e+02,1.047055949565731403e+01
1.970000000000000000e+02,1.048438568171225249e+01
1.980000000000000000e+02,1.049793799739737921e+01
1.990000000000000000e+02,1.051121734676697272e+01
2.000000000000000000e+02,1.052422479900722152e+01
2.010000000000000000e+02,1.053696095401121013e+01
2.020000000000000000e+02,1.054942615854784016e+01
2.030000000000000000e+02,1.056162155863835750e+01
2.040000000000000000e+02,1.057354846223805822e+01
2.050000000000000000e+02,1.058521021831011133e+01
2.060000000000000000e+02,1.059660917203510166e+01
2.070000000000000000e+02,1.060774938151692481e+01
2.080000000000000000e+02,1.061863307131794265e+01
2.090000000000000000e+02,1.062926593658792918e+01
2.100000000000000000e+02,1.063965224985899560e+01
2.110000000000000000e+02,1.064979787007599121e+01
2.120000000000000000e+02,1.065970652086865833e+01
2.130000000000000000e+02,1.066938567371852997e+01
2.140000000000000000e+02,1.067884241020440861e+01
2.150000000000000000e+02,1.068808230106524881e+01
2.160000000000000000e+02,1.069711361591879140e+01
2.170000000000000000e+02,1.070594362631252139e+01
2.180000000000000000e+02,1.071458238947359298e+01
2.190000000000000000e+02,1.072303600963876491e+01
2.200000000000000000e+02,1.073131348230967141e+01
2.210000000000000000e+02,1.073942362948205087e+01
2.220000000000000000e+02,1.074737561035441757e+01
2.230000000000000000e+02,1.075517902259250036e+01
2.240000000000000000e+02,1.076284279006959999e+01
2.250000000000000000e+02,1.077037658277727061e+01
2.260000000000000000e+02,1.077778899986489769e+01
2.270000000000000000e+02,1.078508878665752846e+01
2.280000000000000000e+02,1.079228724752858426e+01
2.290000000000000000e+02,1.079939090359132514e+01
2.300000000000000000e+02,1.080641124905430672e+01
2.310000000000000000e+02,1.081335711178219405e+01
2.320000000000000000e+02,1.082023577162687822e+01
2.330000000000000000e+02,1.082705756476588554e+01
2.340000000000000000e+02,1.083383147707468908e+01
2.350000000000000000e+02,1.084056415730622547e+01
2.360000000000000000e+02,1.084726381218641755e+01
2.370000000000000000e+02,1.085394069407468898e+01
2.380000000000000000e+02,1.086059994326746292e+01
2.390000000000000000e+02,1.086724746773977657e+01
2.400000000000000000e+02,1.087389617562184618e+01
2.410000000000000000e+02,1.088055129824704537e+01
2.420000000000000000e+02,1.088721695500694153e+01
2.430000000000000000e+02,1.089390336059229369e+01
2.440000000000000000e+02,1.090061585206922423e+01
2.450000000000000000e+02,1.090736151091244466e+01
2.460000000000000000e+02,1.091414325552044318e+01
2.470000000000000000e+02,1.092097193906174724e+01
2.480000000000000000e+02,1.092785139943429762e+01
2.490000000000000000e+02,1.093478721588518177e+01
2.500000000000000000e+02,1.094178865299907955e+01
2.510000000000000000e+02,1.094885711356758229e+01
2.520000000000000000e+02,1.095600306000488544e+01
2.530000000000000000e+02,1.096323124799186743e+01
2.540000000000000000e+02,1.097054689051654996e+01
2.550000000000000000e+02,1.097795371134390230e+01
2.560000000000000000e+02,1.098545967728980699e+01
2.570000000000000000e+02,1.099307076876220002e+01
2.580000000000000000e+02,1.100079205614957445e+01
2.590000000000000000e+02,1.100863069941041772e+01
2.600000000000000000e+02,1.101659419571856624e+01
2.610000000000000000e+02,1.102468854540639320e+01
2.620000000000000000e+02,1.103291883828019415e+01
2.630000000000000000e+02,1.104129367597133715e+01
2.640000000000000000e+02,1.104982207553209150e+01
2.650000000000000000e+02,1.105850906046003779e+01
2.660000000000000000e+02,1.106736266651472711e+01
2.670000000000000000e+02,1.107639658720307629e+01
2.680000000000000000e+02,1.108561088251115656e+01
2.690000000000000000e+02,1.109501652883512790e+01
2.700000000000000000e+02,1.110462962881598692e+01
2.710000000000000000e+02,1.111445373622357025e+01
2.720000000000000000e+02,1.112450039434350302e+01
2.730000000000000000e+02,1.113478075217052599e+01
2.740000000000000000e+02,1.114530556309727771e+01
2.750000000000000000e+02,1.115608847558663363e+01
2.760000000000000000e+02,1.116714271394683955e+01
2.770000000000000000e+02,1.117847957687227378e+01
2.780000000000000000e+02,1.119011162891652056e+01
2.790000000000000000e+02,1.120205212103819115e+01
2.800000000000000000e+02,1.121432083997940587e+01
2.810000000000000000e+02,1.122692498803477079e+01
2.820000000000000000e+02,1.123987988565469998e+01
2.830000000000000000e+02,1.125320045862638807e+01
2.840000000000000000e+02,1.126689874255293411e+01
2.850000000000000000e+02,1.128099218684922889e+01
2.860000000000000000e+02,1.129549128201190555e+01
2.870000000000000000e+02,1.131039835676949856e+01
2.880000000000000000e+02,1.132572949096113035e+01
2.890000000000000000e+02,1.134147791998117150e+01
2.900000000000000000e+02,1.135764619890756322e+01
2.910000000000000000e+02,1.137422634607391814e+01
2.920000000000000000e+02,1.139119963664913016e+01
2.930000000000000000e+02,1.140854855340073648e+01
2.940000000000000000e+02,1.142623391728486659e+01
2.950000000000000000e+02,1.144420292607704503e+01
2.960000000000000000e+02,1.146241211318777253e+01
2.970000000000000000e+02,1.148077420409538085e+01
2.980000000000000000e+02,1.149921310491229498e+01
2.990000000000000000e+02,1.151763965407338297e+01
3.000000000000000000e+02,1.153595641295650331e+01
3.010000000000000000e+02,1.155407068144236149e+01
3.020000000000000000e+02,1.157190157144550646e+01
3.030000000000000000e+02,1.158937395439517282e+01
3.040000000000000000e+02,1.160645352903689442e+01
3.050000000000000000e+02,1.162311629622967324e+01
3.060000000000000000e+02,1.163936411848751717e+01
3.070000000000000000e+02,1.165522107759127479e+01
3.080000000000000000e+02,1.167071513275956995e+01
3.090000000000000000e+02,1.168588168484505196e+01
3.100000000000000000e+02,1.170074725148181294e+01
3.110000000000000000e+02,1.171533846507777099e+01
3.120000000000000000e+02,1.172967544686861174e+01
3.130000000000000000e+02,1.174377512121769662e+01
3.140000000000000000e+02,1.175765058346614644e+01
3.150000000000000000e+02,1.177131182613129745e+01
3.160000000000000000e+02,1.178477142596080718e+01
3.170000000000000000e+02,1.179803770602259583e+01
3.180000000000000000e+02,1.181111998910185434e+01
3.190000000000000000e+02,1.182402339790641044e+01
3.200000000000000000e+02,1.183675792608099364e+01
3.210000000000000000e+02,1.184932846657170558e+01
3.220000000000000000e+02,1.186174268805184440e+01
3.230000000000000000e+02,1.187400303690838399e+01
3.240000000000000000e+02,1.188611449788803576e+01
3.250000000000000000e+02,1.189808696712015745e+01
3.260000000000000000e+02,1.190991828653549689e+01
3.270000000000000000e+02,1.192161652013325224e+01
3.280000000000000000e+02,1.193318505762729487e+01
3.290000000000000000e+02,1.194462446580413229e+01
3.300000000000000000e+02,1.195594086884360507e+01
3.310000000000000000e+02,1.196713551559299482e+01
3.320000000000000000e+02,1.197821469785403892e+01
3.330000000000000000e+02,1.198917797732078228e+01
3.340000000000000000e+02,1.200002751469839168e+01
3.350000000000000000e+02,1.201076828981377886e+01
3.360000000000000000e+02,1.202140329787501472e+01
3.370000000000000000e+02,1.203193178867226187e+01
3.380000000000000000e+02,1.204235704865500445e+01
3.390000000000000000e+02,1.205268274001045548e+01
3.400000000000000000e+02,1.206290968011385267e+01
3.410000000000000000e+02,1.207303939960539019e+01
3.420000000000000000e+02,1.208307293390225290e+01
3.430000000000000000e+02,1.209301258848564053e+01
3.440000000000000000e+02,1.210285985088762040e+01
3.450000000000000000e+02,1.211261763162448979e+01
3.460000000000000000e+02,1.212228523445795858e+01
3.470000000000000000e+02,1.213186570239194673e+01
3.480000000000000000e+02,1.214136022964548545e+01
3.490000000000000000e+02,1.215076881063923331e+01
3.500000000000000000e+02,1.216009325761811866e+01
3.510000000000000000e+02,1.216933639638651421e+01
3.520000000000000000e+02,1.217849756009661455e+01
3.530000000000000000e+02,1.218758002361974135e+01
3.540000000000000000e+02,1.219658223950727027e+01
3.550000000000000000e+02,1.220550447411754291e+01
3.560000000000000000e+02,1.221435099127601731e+01
3.570000000000000000e+02,1.222312250191864891e+01
3.580000000000000000e+02,1.223181845876647778e+01
3.590000000000000000e+02,1.224043909662328034e+01
3.600000000000000000e+02,1.224898566091142982e+01
3.610000000000000000e+02,1.225746094609449166e+01
3.620000000000000000e+02,1.226586562831257687e+01
3.630000000000000000e+02,1.227419804694705441e+01
3.640000000000000000e+02,1.228246050566517233e+01
3.650000000000000000e+02,1.229065413131797690e+01
3.660000000000000000e+02,1.229877826282200282e+01
3.670000000000000000e+02,1.230683602776370655e+01
3.680000000000000000e+02,1.231482582701077177e+01
3.690000000000000000e+02,1.232274969104861029e+01
3.700000000000000000e+02,1.233060840625281251e+01
3.710000000000000000e+02,1.233840029263510196e+01
3.720000000000000000e+02,1.234612989748026024e+01
3.730000000000000000e+02,1.235379368991442384e+01
3.740000000000000000e+02,1.236139604546924176e+01
3.750000000000000000e+02,1.236893488931852048e+01
3.760000000000000000e+02,1.237641327540212544e+01
3.770000000000000000e+02,1.238382897454032161e+01
3.780000000000000000e+02,1.239118517968260491e+01
3.790000000000000000e+02,1.239848057424478789e+01
3.800000000000000000e+02,1.240571628029658058e+01
3.810000000000000000e+02,1.241289394500085308e+01
3.820000000000000000e+02,1.242001148804588162e+01
3.830000000000000000e+02,1.242707229481161590e+01
3.840000000000000000e+02,1.243407609959893811e+01
3.850000000000000000e+02,1.244102172899529712e+01
3.860000000000000000e+02,1.244791209296392509e+01
3.870000000000000000e+02,1.245474737058278514e+01
3.880000000000000000e+02,1.246152547742611993e+01
3.890000000000000000e+02,1.246824938193785393e+01
3.900000000000000000e+02,1.247491872881733244e+01
3.910000000000000000e+02,1.248153601838184379e+01
3.920000000000000000e+02,1.248809818465016974e+01
3.930000000000000000e+02,1.249460719716860879e+01
3.940000000000000000e+02,1.250106374267487475e+01
3.950000000000000000e+02,1.250746798010804639e+01
3.960000000000000000e+02,1.251382096364782193e+01
3.970000000000000000e+02,1.252012456354070657e+01
3.980000000000000000e+02,1.252637638907372342e+01
