# Time [s], Convective Heat Transfer Coefficient [W/m2K]
1.000000000000000000e+00,0.000000000000000000e+00
2.000000000000000000e+00,0.000000000000000000e+00
3.000000000000000000e+00,0.000000000000000000e+00
4.000000000000000000e+00,0.000000000000000000e+00
5.000000000000000000e+00,2.762023300960968902e-02
6.000000000000000000e+00,4.774898591629385403e-02
7.000000000000000000e+00,7.739297921895853249e-02
8.000000000000000000e+00,1.171652294278863610e-01
9.000000000000000000e+00,1.679918363379448165e-01
1.000000000000000000e+01,2.301857930651024231e-01
1.100000000000000000e+01,3.033653426216536553e-01
1.200000000000000000e+01,3.867771857100323896e-01
1.300000000000000000e+01,4.793616655527335180e-01
1.400000000000000000e+01,5.799204895842112739e-01
1.500000000000000000e+01,6.872298929508875442e-01
1.600000000000000000e+01,8.001154934591061529e-01
1.700000000000000000e+01,9.174937291717492061e-01
1.800000000000000000e+01,1.038391307798462559e+00
1.900000000000000000e+01,1.161963828487059480e+00
2.000000000000000000e+01,1.287467950459688204e+00
2.100000000000000000e+01,1.414278042162120830e+00
2.200000000000000000e+01,1.541860885918727275e+00
2.300000000000000000e+01,1.669763489057181305e+00
2.400000000000000000e+01,1.797603200569569015e+00
2.500000000000000000e+01,1.925065413011596727e+00
2.600000000000000000e+01,2.051886011043411173e+00
2.700000000000000000e+01,2.177846913757654601e+00
2.800000000000000000e+01,2.302761837531581701e+00
2.900000000000000000e+01,2.426485222953128851e+00
3.000000000000000000e+01,2.548900957691680347e+00
3.100000000000000000e+01,2.669909093368775022e+00
3.200000000000000000e+01,2.789430670387605726e+00
3.300000000000000000e+01,2.907407672161029133e+00
3.400000000000000000e+01,3.023797363034882224e+00
3.500000000000000000e+01,3.138566312161750194e+00
3.600000000000000000e+01,3.251693710609324217e+00
3.700000000000000000e+01,3.363163299846998910e+00
3.800000000000000000e+01,3.472972802820038840e+00
3.900000000000000000e+01,3.581120637493724779e+00
4.000000000000000000e+01,3.687611183826569050e+00
4.100000000000000000e+01,3.792454257104910020e+00
4.200000000000000000e+01,3.895662154109254427e+00
4.300000000000000000e+01,3.997251590062554261e+00
4.400000000000000000e+01,4.097237059069205323e+00
4.500000000000000000e+01,4.195641331432478083e+00
4.600000000000000000e+01,4.292481891729833521e+00
4.700000000000000000e+01,4.387783781698153085e+00
4.800000000000000000e+01,4.481567612300234593e+00
4.900000000000000000e+01,4.573856058650025425e+00
5.000000000000000000e+01,4.664673128030967675e+00
5.100000000000000000e+01,4.754042362738816863e+00
5.200000000000000000e+01,4.841988492682187228e+00
5.300000000000000000e+01,4.928531338728373790e+00
5.400000000000000000e+01,5.013696842853625490e+00
5.500000000000000000e+01,5.097505368942709225e+00
5.600000000000000000e+01,5.179982562452889461e+00
5.700000000000000000e+01,5.261150592344579380e+00
5.800000000000000000e+01,5.341029049236373005e+00
5.900000000000000000e+01,5.419642114290627255e+00
6.000000000000000000e+01,5.497011284684375276e+00
6.100000000000000000e+01,5.573157624726850834e+00
6.200000000000000000e+01,5.648102749697644143e+00
6.300000000000000000e+01,5.721867985057663475e+00
6.400000000000000000e+01,5.794474983678422397e+00
6.500000000000000000e+01,5.865944898738124635e+00
6.600000000000000000e+01,5.936295653657861493e+00
6.700000000000000000e+01,6.005548810278637184e+00
6.800000000000000000e+01,6.073725775907869107e+00
6.900000000000000000e+01,6.140848022694082253e+00
7.000000000000000000e+01,6.206934062600836910e+00
7.100000000000000000e+01,6.272005788051718156e+00
7.200000000000000000e+01,6.336081158115114853e+00
7.300000000000000000e+01,6.399181247323850741e+00
7.400000000000000000e+01,6.461328070204400476e+00
7.500000000000000000e+01,6.522539465634594968e+00
7.600000000000000000e+01,6.582837268614788684e+00
7.700000000000000000e+01,6.642239401814739708e+00
7.800000000000000000e+01,6.700767896114143696e+00
7.900000000000000000e+01,6.758439815604040390e+00
8.000000000000000000e+01,6.815273208559192497e+00
8.100000000000000000e+01,6.871289249765678342e+00
8.200000000000000000e+01,6.926502958041961477e+00
8.300000000000000000e+01,6.980933761244085822e+00
8.400000000000000000e+01,7.034598531313391412e+00
8.500000000000000000e+01,7.087511773616275157e+00
8.600000000000000000e+01,7.139691767891591212e+00
8.700000000000000000e+01,7.191153504883567749e+00
8.800000000000000000e+01,7.241910256562990256e+00
8.900000000000000000e+01,7.291979416741540376e+00
9.000000000000000000e+01,7.341372014747247654e+00
9.100000000000000000e+01,7.390103853653448240e+00
9.200000000000000000e+01,7.438188429910956856e+00
9.300000000000000000e+01,7.485636037171727430e+00
9.400000000000000000e+01,7.532461187033747230e+00
9.500000000000000000e+01,7.578676033490339137e+00
9.600000000000000000e+01,7.624290113781001743e+00
9.700000000000000000e+01,7.669317866730302136e+00
9.800000000000000000e+01,7.713769301099728359e+00
9.900000000000000000e+01,7.757655501351974792e+00
1.000000000000000000e+02,7.800989145938665992e+00
1.010000000000000000e+02,7.843778334054450241e+00
1.020000000000000000e+02,7.886034739514841796e+00
1.030000000000000000e+02,7.927766904375668666e+00
1.040000000000000000e+02,7.968986670959414376e+00
1.050000000000000000e+02,8.009702264394698901e+00
1.060000000000000000e+02,8.049922270058960549e+00
1.070000000000000000e+02,8.089657048133000572e+00
1.080000000000000000e+02,8.128913866649055464e+00
1.090000000000000000e+02,8.167702315185051631e+00
1.100000000000000000e+02,8.206029156443293004e+00
1.110000000000000000e+02,8.243903281389426851e+00
1.120000000000000000e+02,8.281331347002247156e+00
1.130000000000000000e+02,8.318321768927093629e+00
1.140000000000000000e+02,8.354880453380291172e+00
1.150000000000000000e+02,8.391015728810746310e+00
1.160000000000000000e+02,8.426735112168151076e+00
1.170000000000000000e+02,8.462043546905080760e+00
1.180000000000000000e+02,8.496949671743706745e+00
1.190000000000000000e+02,8.531458756453595527e+00
1.200000000000000000e+02,8.565576508248430088e+00
1.210000000000000000e+02,8.599310005373803634e+00
1.220000000000000000e+02,8.632666702988595731e+00
1.230000000000000000e+02,8.665650211983784601e+00
1.240000000000000000e+02,8.698267252816084039e+00
1.250000000000000000e+02,8.730524162348078931e+00
1.260000000000000000e+02,8.762425080223721352e+00
1.270000000000000000e+02,8.793975208122224885e+00
1.280000000000000000e+02,8.825180472340655058e+00
1.290000000000000000e+02,8.856045410279271834e+00
1.300000000000000000e+02,8.886575443222689330e+00
1.310000000000000000e+02,8.916775080697474820e+00
1.320000000000000000e+02,8.946649561056380762e+00
1.330000000000000000e+02,8.976202358695097416e+00
1.340000000000000000e+02,9.005437840844402686e+00
1.350000000000000000e+02,9.034360665932368306e+00
1.360000000000000000e+02,9.062974920343672025e+00
1.370000000000000000e+02,9.091284562299930982e+00
1.380000000000000000e+02,9.119293567503582665e+00
1.390000000000000000e+02,9.147006209341785876e+00
1.400000000000000000e+02,9.174425521105455061e+00
1.410000000000000000e+02,9.201554854412913542e+00
1.420000000000000000e+02,9.228399245048477084e+00
1.430000000000000000e+02,9.254961538756845130e+00
1.440000000000000000e+02,9.281244900707619649e+00
1.450000000000000000e+02,9.307252942232496551e+00
1.460000000000000000e+02,9.332989574818457257e+00
1.470000000000000000e+02,9.358456596945027073e+00
1.480000000000000000e+02,9.383657474165394419e+00
1.490000000000000000e+02,9.408596237201924950e+00
1.500000000000000000e+02,9.433274310866837098e+00
1.510000000000000000e+02,9.457695686258363210e+00
1.520000000000000000e+02,9.481862688959154184e+00
1.530000000000000000e+02,9.505777187901863101e+00
1.540000000000000000e+02,9.529442927427799859e+00
1.550000000000000000e+02,9.552860991985268058e+00
1.560000000000000000e+02,9.576035360581611755e+00
1.570000000000000000e+02,9.598967501753127962e+00
1.580000000000000000e+02,9.621659847872466642e+00
1.590000000000000000e+02,9.644114640135612149e+00
1.600000000000000000e+02,9.666333432337316012e+00
1.610000000000000000e+02,9.688319227023564295e+00
1.620000000000000000e+02,9.710073836009215142e+00
1.630000000000000000e+02,9.731597907428684024e+00
1.640000000000000000e+02,9.752894520374942644e+00
1.650000000000000000e+02,9.773965088708452598e+00
1.660000000000000000e+02,9.794810861438753236e+00
1.670000000000000000e+02,9.815432804862583183e+00
1.680000000000000000e+02,9.835831850551596034e+00
1.690000000000000000e+02,9.856010221657610870e+00
1.700000000000000000e+02,9.875969006484849544e+00
1.710000000000000000e+02,9.895708420686958107e+00
1.720000000000000000e+02,9.915229491515354709e+00
1.730000000000000000e+02,9.934532499948243611e+00
1.740000000000000000e+02,9.953618294766048535e+00
1.750000000000000000e+02,9.972487222279402985e+00
1.760000000000000000e+02,9.991139722076216145e+00
1.770000000000000000e+02,1.000957620832815742e+01
1.780000000000000000e+02,1.002779625526482121e+01
1.790000000000000000e+02,1.004580046803287097e+01
1.800000000000000000e+02,1.006358849912720999e+01
1.810000000000000000e+02,1.008116090788274555e+01
1.820000000000000000e+02,1.009851673399476546e+01
1.830000000000000000e+02,1.011565626878150503e+01
1.840000000000000000e+02,1.013257898140100899e+01
1.850000000000000000e+02,1.014928375953079609e+01
1.860000000000000000e+02,1.016577129710938188e+01
1.870000000000000000e+02,1.018204011293537548e+01
1.880000000000000000e+02,1.019809041184223553e+01
1.890000000000000000e+02,1.021392057935022990e+01
1.900000000000000000e+02,1.022953045338050870e+01
1.910000000000000000e+02,1.024491895948534115e+01
1.920000000000000000e+02,1.026008556965670593e+01
1.930000000000000000e+02,1.027502940673557852e+01
1.940000000000000000e+02,1.028974980178937670e+01
1.950000000000000000e+02,1.030424584963411583e+01
1.960000000000000000e+02,1.031851696135437635e+01
1.970000000000000000e+02,1.033256242085978549e+01
1.980000000000000000e+02,1.034638182356032488e+01
1.990000000000000000e+02,1.035997409019622673e+01
2.000000000000000000e+02,1.037333888938198712e+01
2.010000000000000000e+02,1.038647565092564662e+01
2.020000000000000000e+02,1.039938432615674202e+01
2.030000000000000000e+02,1.041206462531149235e+01
2.040000000000000000e+02,1.042451688196834425e+01
2.050000000000000000e+02,1.043674107823800590e+01
2.060000000000000000e+02,1.044873706319736506e+01
2.070000000000000000e+02,1.046050551702717435e+01
2.080000000000000000e+02,1.047204719441236165e+01
2.090000000000000000e+02,1.048336324339244285e+01
2.100000000000000000e+02,1.049445403216896899e+01
2.110000000000000000e+02,1.050532149100719082e+01
2.120000000000000000e+02,1.051596687347603165e+01
2.130000000000000000e+02,1.052639245409940116e+01
2.140000000000000000e+02,1.053659951545549944e+01
2.150000000000000000e+02,1.054659162080517021e+01
2.160000000000000000e+02,1.055637018141140260e+01
2.170000000000000000e+02,1.056593877636597334e+01
2.180000000000000000e+02,1.057530083108546570e+01
2.190000000000000000e+02,1.058445930640749388e+01
2.200000000000000000e+02,1.059341785112110479e+01
2.210000000000000000e+02,1.060218079726625362e+01
2.220000000000000000e+02,1.061075190816474745e+01
2.230000000000000000e+02,1.061913625288273266e+01
2.240000000000000000e+02,1.062733843535543166e+01
2.250000000000000000e+02,1.063536311696750758e+01
2.260000000000000000e+02,1.064321584426861200e+01
2.270000000000000000e+02,1.065090139296428795e+01
2.280000000000000000e+02,1.065842583587706294e+01
2.290000000000000000e+02,1.066579468312474432e+01
2.300000000000000000e+02,1.067301350418710371e+01
2.310000000000000000e+02,1.068008813424255443e+01
2.320000000000000000e+02,1.068702518635135768e+01
2.330000000000000000e+02,1.069383112669136615e+01
2.340000000000000000e+02,1.070051145916188240e+01
2.350000000000000000e+02,1.070707277493837850e+01
2.360000000000000000e+02,1.071352121731640850e+01
2.370000000000000000e+02,1.071986299504119877e+01
2.380000000000000000e+02,1.072610479010966777e+01
2.390000000000000000e+02,1.073225273988201245e+01
2.400000000000000000e+02,1.073831315191216795e+01
2.410000000000000000e+02,1.074429240257944507e+01
2.420000000000000000e+02,1.075019673506338158e+01
2.430000000000000000e+02,1.075603226094055209e+01
2.440000000000000000e+02,1.076180526489855893e+01
2.450000000000000000e+02,1.076752129582016160e+01
2.460000000000000000e+02,1.077318658334942469e+01
2.470000000000000000e+02,1.077880692655607753e+01
2.480000000000000000e+02,1.078438749537302499e+01
2.490000000000000000e+02,1.078993454355707193e+01
2.500000000000000000e+02,1.079545309324435820e+01
2.510000000000000000e+02,1.080094884804451461e+01
2.520000000000000000e+02,1.080642658594567784e+01
2.530000000000000000e+02,1.081189166626759146e+01
2.540000000000000000e+02,1.081734912649487867e+01
2.550000000000000000e+02,1.082280408372131930e+01
2.560000000000000000e+02,1.082826143475914371e+01
2.570000000000000000e+02,1.083372525880476900e+01
2.580000000000000000e+02,1.083920061494219489e+01
2.590000000000000000e+02,1.084469224314548974e+01
2.600000000000000000e+02,1.085020377027297123e+01
2.610000000000000000e+02,1.085574069552548337e+01
2.620000000000000000e+02,1.086130621300830335e+01
2.630000000000000000e+02,1.086690508929777366e+01
2.640000000000000000e+02,1.087254098140779313e+01
2.650000000000000000e+02,1.087821792607353188e+01
2.660000000000000000e+02,1.088394112801931257e+01
2.670000000000000000e+02,1.088971251131729723e+01
2.680000000000000000e+02,1.089553793481165300e+01
2.690000000000000000e+02,1.090142007859662954e+01
2.700000000000000000e+02,1.090736426595312381e+01
2.710000000000000000e+02,1.091337333762641038e+01
2.720000000000000000e+02,1.091945041392091120e+01
2.730000000000000000e+02,1.092560124634581875e+01
2.740000000000000000e+02,1.093182891267260359e+01
2.750000000000000000e+02,1.093813872357739569e+01
2.760000000000000000e+02,1.094453371368352279e+01
2.770000000000000000e+02,1.095101719206621915e+01
2.780000000000000000e+02,1.095759449499113103e+01
2.790000000000000000e+02,1.096427053860930734e+01
2.800000000000000000e+02,1.097104826447726822e+01
2.810000000000000000e+02,1.097793409044661495e+01
2.820000000000000000e+02,1.098493158231529598e+01
2.830000000000000000e+02,1.099204670265705275e+01
2.840000000000000000e+02,1.099928363373963336e+01
2.850000000000000000e+02,1.100664768686959505e+01
2.860000000000000000e+02,1.101414326729875270e+01
2.870000000000000000e+02,1.102177705911981143e+01
2.880000000000000000e+02,1.102955396656337683e+01
2.890000000000000000e+02,1.103748087239949349e+01
2.900000000000000000e+02,1.104556364771460153e+01
2.910000000000000000e+02,1.105380907352020259e+01
2.920000000000000000e+02,1.106222387545205876e+01
2.930000000000000000e+02,1.107081386244553123e+01
2.940000000000000000e+02,1.107958793684322174e+01
2.950000000000000000e+02,1.108855225989682580e+01
2.960000000000000000e+02,1.109771540377180443e+01
2.970000000000000000e+02,1.110708405897947415e+01
2.980000000000000000e+02,1.111666882542486867e+01
2.990000000000000000e+02,1.112647509778410537e+01
3.000000000000000000e+02,1.113651415118521015e+01
3.010000000000000000e+02,1.114679309810680330e+01
3.020000000000000000e+02,1.115732282146321985e+01
3.030000000000000000e+02,1.116811230364103835e+01
3.040000000000000000e+02,1.117916854628884060e+01
3.050000000000000000e+02,1.119050163361112915e+01
3.060000000000000000e+02,1.120212096534380386e+01
3.070000000000000000e+02,1.121403339681949518e+01
3.080000000000000000e+02,1.122624753400165609e+01
3.090000000000000000e+02,1.123877213447040901e+01
3.100000000000000000e+02,1.125161110741157877e+01
3.110000000000000000e+02,1.126477085257000255e+01
3.120000000000000000e+02,1.127825516629493485e+01
3.130000000000000000e+02,1.129206453477752703e+01
3.140000000000000000e+02,1.130619424971353482e+01
3.150000000000000000e+02,1.132064424746092790e+01
3.160000000000000000e+02,1.133540356343300282e+01
3.170000000000000000e+02,1.135045956262769096e+01
3.180000000000000000e+02,1.136579588386467599e+01
3.190000000000000000e+02,1.138138969597520322e+01
3.200000000000000000e+02,1.139721278704769603e+01
3.210000000000000000e+02,1.141322940375611772e+01
3.220000000000000000e+02,1.142939995400540631e+01
3.230000000000000000e+02,1.144567982275004958e+01
3.240000000000000000e+02,1.146201535563819540e+01
3.250000000000000000e+02,1.147835661265173712e+01
3.260000000000000000e+02,1.149464828346249767e+01
3.270000000000000000e+02,1.151083638935068088e+01
3.280000000000000000e+02,1.152687178357905573e+01
3.290000000000000000e+02,1.154270937217575010e+01
3.300000000000000000e+02,1.155831461781536085e+01
3.310000000000000000e+02,1.157365962667634562e+01
3.320000000000000000e+02,1.158872810394496256e+01
3.330000000000000000e+02,1.160351258563854238e+01
3.340000000000000000e+02,1.161801206603880132e+01
3.350000000000000000e+02,1.163223598127954439e+01
3.360000000000000000e+02,1.164619528043659535e+01
3.370000000000000000e+02,1.165990439199055295e+01
3.380000000000000000e+02,1.167337818136813077e+01
3.390000000000000000e+02,1.168663058003865807e+01
3.400000000000000000e+02,1.169967494322414758e+01
3.410000000000000000e+02,1.171252312216949498e+01
3.420000000000000000e+02,1.172518642112573772e+01
3.430000000000000000e+02,1.173767314259826833e+01
3.440000000000000000e+02,1.174999158947652056e+01
3.450000000000000000e+02,1.176214939028749740e+01
3.460000000000000000e+02,1.177415148155413682e+01
3.470000000000000000e+02,1.178600552997764161e+01
3.480000000000000000e+02,1.179771450536834188e+01
3.490000000000000000e+02,1.180928587763212967e+01
3.500000000000000000e+02,1.182072235846985642e+01
3.510000000000000000e+02,1.183202905572489527e+01
3.520000000000000000e+02,1.184320902799047026e+01
3.530000000000000000e+02,1.185426572046413973e+01
3.540000000000000000e+02,1.186520387658167408e+01
3.550000000000000000e+02,1.187602537690508875e+01
3.560000000000000000e+02,1.188673448517255871e+01
3.570000000000000000e+02,1.189733261722558666e+01
3.580000000000000000e+02,1.190782348520884781e+01
3.590000000000000000e+02,1.191820846274231371e+01
3.600000000000000000e+02,1.192849047230897241e+01
3.610000000000000000e+02,1.193867200114959637e+01
3.620000000000000000e+02,1.194875494138300631e+01
3.630000000000000000e+02,1.195874149571999467e+01
3.640000000000000000e+02,1.196863352141048509e+01
3.650000000000000000e+02,1.197843334921720704e+01
3.660000000000000000e+02,1.198814198786796581e+01
3.670000000000000000e+02,1.199776157462250303e+01
3.680000000000000000e+02,1.200729390496391069e+01
3.690000000000000000e+02,1.201673978702985046e+01
3.700000000000000000e+02,1.202610123487846394e+01
3.710000000000000000e+02,1.203538008543842430e+01
3.720000000000000000e+02,1.204457719318943809e+01
3.730000000000000000e+02,1.205369380748144792e+01
3.740000000000000000e+02,1.206273140877291894e+01
3.750000000000000000e+02,1.207169130540911794e+01
3.760000000000000000e+02,1.208057463505083007e+01
3.770000000000000000e+02,1.208938196558745126e+01
3.780000000000000000e+02,1.209811545879189332e+01
3.790000000000000000e+02,1.210677590400076120e+01
3.800000000000000000e+02,1.211536360533047052e+01
3.810000000000000000e+02,1.212388029649945764e+01
3.820000000000000000e+02,1.213232730175462315e+01
3.830000000000000000e+02,1.214070395050064377e+01
3.840000000000000000e+02,1.214901282552263595e+01
3.850000000000000000e+02,1.215725387988420714e+01
3.860000000000000000e+02,1.216542769778345878e+01
3.870000000000000000e+02,1.217353707015323749e+01
3.880000000000000000e+02,1.218158074811918645e+01
3.890000000000000000e+02,1.218956000870424816e+01
3.900000000000000000e+02,1.219747596316284088e+01
3.910000000000000000e+02,1.220532940100353869e+01
3.920000000000000000e+02,1.221312102757806350e+01
3.930000000000000000e+02,1.222085052411807382e+01
3.940000000000000000e+02,1.222852015518550139e+01
3.950000000000000000e+02,1.223613006150089078e+01
3.960000000000000000e+02,1.224367999117527006e+01
3.970000000000000000e+02,1.225117203186377424e+01
3.980000000000000000e+02,1.225860545527576484e+01
