# Time [s], Temperature [C]
0.000000000000000000e+00,2.500000000000000000e+01
1.000000000000000000e+00,2.499996900000000011e+01
2.000000000000000000e+00,4.695786300000000324e+01
3.000000000000000000e+00,5.905789899999999903e+01
4.000000000000000000e+00,6.893717999999999790e+01
5.000000000000000000e+00,7.714848299999999881e+01
6.000000000000000000e+00,8.435899399999999559e+01
7.000000000000000000e+00,9.081019600000000480e+01
8.000000000000000000e+00,9.668751500000000476e+01
9.000000000000000000e+00,1.021032600000000059e+02
1.000000000000000000e+01,1.071389700000000005e+02
1.100000000000000000e+01,1.118554000000000030e+02
1.200000000000000000e+01,1.162977400000000046e+02
1.300000000000000000e+01,1.205020099999999985e+02
1.400000000000000000e+01,1.244971199999999953e+02
1.500000000000000000e+01,1.283051299999999912e+02
1.600000000000000000e+01,1.319462699999999984e+02
1.700000000000000000e+01,1.354367699999999957e+02
1.800000000000000000e+01,1.387896700000000010e+02
1.900000000000000000e+01,1.420168199999999956e+02
2.000000000000000000e+01,1.451295200000000136e+02
2.100000000000000000e+01,1.481353300000000104e+02
2.200000000000000000e+01,1.510429200000000094e+02
2.300000000000000000e+01,1.538585999999999956e+02
2.400000000000000000e+01,1.565886099999999885e+02
2.500000000000000000e+01,1.592383299999999906e+02
2.600000000000000000e+01,1.618134499999999889e+02
2.700000000000000000e+01,1.643173800000000142e+02
2.800000000000000000e+01,1.667543799999999976e+02
2.900000000000000000e+01,1.691288800000000094e+02
3.000000000000000000e+01,1.714432400000000030e+02
3.100000000000000000e+01,1.737007299999999930e+02
3.200000000000000000e+01,1.759046600000000069e+02
3.300000000000000000e+01,1.780571099999999944e+02
3.400000000000000000e+01,1.801605500000000006e+02
3.500000000000000000e+01,1.822178600000000017e+02
3.600000000000000000e+01,1.842303200000000061e+02
3.700000000000000000e+01,1.862000400000000013e+02
3.800000000000000000e+01,1.881293799999999976e+02
3.900000000000000000e+01,1.900189699999999959e+02
4.000000000000000000e+01,1.918707599999999900e+02
4.100000000000000000e+01,1.936868900000000053e+02
4.200000000000000000e+01,1.954680500000000052e+02
4.300000000000000000e+01,1.972152700000000038e+02
4.400000000000000000e+01,1.989311800000000119e+02
4.500000000000000000e+01,2.006155100000000004e+02
4.600000000000000000e+01,2.022697599999999909e+02
4.700000000000000000e+01,2.038957200000000114e+02
4.800000000000000000e+01,2.054932900000000018e+02
4.900000000000000000e+01,2.070639500000000055e+02
5.000000000000000000e+01,2.086090499999999963e+02
5.100000000000000000e+01,2.101287399999999934e+02
5.200000000000000000e+01,2.116239799999999889e+02
5.300000000000000000e+01,2.130963000000000136e+02
5.400000000000000000e+01,2.145452400000000068e+02
5.500000000000000000e+01,2.159723199999999963e+02
5.600000000000000000e+01,2.173783999999999992e+02
5.700000000000000000e+01,2.187632399999999961e+02
5.800000000000000000e+01,2.201284599999999898e+02
5.900000000000000000e+01,2.214740299999999991e+02
6.000000000000000000e+01,2.228007200000000125e+02
6.100000000000000000e+01,2.241090100000000120e+02
6.200000000000000000e+01,2.254000900000000058e+02
6.300000000000000000e+01,2.266734899999999868e+02
6.400000000000000000e+01,2.279304400000000044e+02
6.500000000000000000e+01,2.291713699999999960e+02
6.600000000000000000e+01,2.303962199999999996e+02
6.700000000000000000e+01,2.316058800000000133e+02
6.800000000000000000e+01,2.328011500000000069e+02
6.900000000000000000e+01,2.339818400000000054e+02
7.000000000000000000e+01,2.351485099999999875e+02
7.100000000000000000e+01,2.363019400000000019e+02
7.200000000000000000e+01,2.374418599999999913e+02
7.300000000000000000e+01,2.385688800000000072e+02
7.400000000000000000e+01,2.396840799999999945e+02
7.500000000000000000e+01,2.407867300000000057e+02
7.600000000000000000e+01,2.418775599999999883e+02
7.700000000000000000e+01,2.429572100000000034e+02
7.800000000000000000e+01,2.440257699999999943e+02
7.900000000000000000e+01,2.450832399999999893e+02
8.000000000000000000e+01,2.461306500000000028e+02
8.100000000000000000e+01,2.471681700000000035e+02
8.200000000000000000e+01,2.481953300000000127e+02
8.300000000000000000e+01,2.492131699999999910e+02
8.400000000000000000e+01,2.502218000000000018e+02
8.500000000000000000e+01,2.512207600000000127e+02
8.600000000000000000e+01,2.522114100000000008e+02
8.700000000000000000e+01,2.531931899999999871e+02
8.800000000000000000e+01,2.541664299999999912e+02
8.900000000000000000e+01,2.551318499999999858e+02
9.000000000000000000e+01,2.560890499999999861e+02
9.100000000000000000e+01,2.570382399999999734e+02
9.200000000000000000e+01,2.579801299999999742e+02
9.300000000000000000e+01,2.589145800000000008e+02
9.400000000000000000e+01,2.598412500000000023e+02
9.500000000000000000e+01,2.607615700000000061e+02
9.600000000000000000e+01,2.616744400000000041e+02
9.700000000000000000e+01,2.625804099999999721e+02
9.800000000000000000e+01,2.634803200000000061e+02
9.900000000000000000e+01,2.643730499999999779e+02
1.000000000000000000e+02,2.652594599999999900e+02
1.010000000000000000e+02,2.661396500000000174e+02
1.020000000000000000e+02,2.670133400000000279e+02
1.030000000000000000e+02,2.678810399999999845e+02
1.040000000000000000e+02,2.687429799999999886e+02
1.050000000000000000e+02,2.695985400000000141e+02
1.060000000000000000e+02,2.704481799999999794e+02
1.070000000000000000e+02,2.712923299999999927e+02
1.080000000000000000e+02,2.721305800000000090e+02
1.090000000000000000e+02,2.729631699999999910e+02
1.100000000000000000e+02,2.737904700000000275e+02
1.110000000000000000e+02,2.746119699999999852e+02
1.120000000000000000e+02,2.754277599999999779e+02
1.130000000000000000e+02,2.762386799999999880e+02
1.140000000000000000e+02,2.770440100000000143e+02
1.150000000000000000e+02,2.778439599999999814e+02
1.160000000000000000e+02,2.786391600000000039e+02
1.170000000000000000e+02,2.794289899999999989e+02
1.180000000000000000e+02,2.802136499999999728e+02
1.190000000000000000e+02,2.809936500000000024e+02
1.200000000000000000e+02,2.817683999999999855e+02
1.210000000000000000e+02,2.825381800000000112e+02
1.220000000000000000e+02,2.833034700000000043e+02
1.230000000000000000e+02,2.840637800000000084e+02
1.240000000000000000e+02,2.848193999999999733e+02
1.250000000000000000e+02,2.855708000000000197e+02
1.260000000000000000e+02,2.863173499999999763e+02
1.270000000000000000e+02,2.870593600000000265e+02
1.280000000000000000e+02,2.877973600000000260e+02
1.290000000000000000e+02,2.885307599999999866e+02
1.300000000000000000e+02,2.892600100000000225e+02
1.310000000000000000e+02,2.899851400000000012e+02
1.320000000000000000e+02,2.907059600000000046e+02
1.330000000000000000e+02,2.914225799999999822e+02
1.340000000000000000e+02,2.921354999999999791e+02
1.350000000000000000e+02,2.928442400000000134e+02
1.360000000000000000e+02,2.935494400000000041e+02
1.370000000000000000e+02,2.942506999999999948e+02
1.380000000000000000e+02,2.949479999999999791e+02
1.390000000000000000e+02,2.956414800000000014e+02
1.400000000000000000e+02,2.963319099999999935e+02
1.410000000000000000e+02,2.970181900000000041e+02
1.420000000000000000e+02,2.977011100000000283e+02
1.430000000000000000e+02,2.983807699999999841e+02
1.440000000000000000e+02,2.990568200000000161e+02
1.450000000000000000e+02,2.997291599999999789e+02
1.460000000000000000e+02,3.003985900000000129e+02
1.470000000000000000e+02,3.010648199999999974e+02
1.480000000000000000e+02,3.017273599999999760e+02
1.490000000000000000e+02,3.023871500000000196e+02
1.500000000000000000e+02,3.030435200000000009e+02
1.510000000000000000e+02,3.036964399999999955e+02
1.520000000000000000e+02,3.043468899999999735e+02
1.530000000000000000e+02,3.049939600000000155e+02
1.540000000000000000e+02,3.056376599999999826e+02
1.550000000000000000e+02,3.062792099999999778e+02
1.560000000000000000e+02,3.069174199999999928e+02
1.570000000000000000e+02,3.075523400000000152e+02
1.580000000000000000e+02,3.081850900000000024e+02
1.590000000000000000e+02,3.088145799999999781e+02
1.600000000000000000e+02,3.094411000000000058e+02
1.610000000000000000e+02,3.100654000000000110e+02
1.620000000000000000e+02,3.106865199999999732e+02
1.630000000000000000e+02,3.113048099999999749e+02
1.640000000000000000e+02,3.119206500000000233e+02
1.650000000000000000e+02,3.125338699999999790e+02
1.660000000000000000e+02,3.131438299999999799e+02
1.670000000000000000e+02,3.137516800000000217e+02
1.680000000000000000e+02,3.143568700000000149e+02
1.690000000000000000e+02,3.149589500000000157e+02
1.700000000000000000e+02,3.155594199999999887e+02
1.710000000000000000e+02,3.161563699999999812e+02
1.720000000000000000e+02,3.167509200000000078e+02
1.730000000000000000e+02,3.173435699999999997e+02
1.740000000000000000e+02,3.179331999999999994e+02
1.750000000000000000e+02,3.185201700000000073e+02
1.760000000000000000e+02,3.191053800000000251e+02
1.770000000000000000e+02,3.196873199999999997e+02
1.780000000000000000e+02,3.202670899999999961e+02
1.790000000000000000e+02,3.208448500000000081e+02
1.800000000000000000e+02,3.214196200000000090e+02
1.810000000000000000e+02,3.219918499999999995e+02
1.820000000000000000e+02,3.225623800000000188e+02
1.830000000000000000e+02,3.231299399999999764e+02
1.840000000000000000e+02,3.236949200000000246e+02
1.850000000000000000e+02,3.242584200000000010e+02
1.860000000000000000e+02,3.248185700000000224e+02
1.870000000000000000e+02,3.253766200000000026e+02
1.880000000000000000e+02,3.259329799999999864e+02
1.890000000000000000e+02,3.264863899999999717e+02
1.900000000000000000e+02,3.270372600000000034e+02
1.910000000000000000e+02,3.275866399999999885e+02
1.920000000000000000e+02,3.281330600000000004e+02
1.930000000000000000e+02,3.286770599999999831e+02
1.940000000000000000e+02,3.292196000000000140e+02
1.950000000000000000e+02,3.297591199999999958e+02
1.960000000000000000e+02,3.302961700000000178e+02
1.970000000000000000e+02,3.308316699999999742e+02
1.980000000000000000e+02,3.313643799999999828e+02
1.990000000000000000e+02,3.318943499999999744e+02
2.000000000000000000e+02,3.324232799999999770e+02
2.010000000000000000e+02,3.329490700000000061e+02
2.020000000000000000e+02,3.334724699999999871e+02
2.030000000000000000e+02,3.339947199999999725e+02
2.040000000000000000e+02,3.345137300000000096e+02
2.050000000000000000e+02,3.350303000000000111e+02
2.060000000000000000e+02,3.355456199999999853e+02
2.070000000000000000e+02,3.360580400000000054e+02
2.080000000000000000e+02,3.365678700000000276e+02
2.090000000000000000e+02,3.370765400000000227e+02
2.100000000000000000e+02,3.375821799999999939e+02
2.110000000000000000e+02,3.380850500000000238e+02
2.120000000000000000e+02,3.385873100000000022e+02
2.130000000000000000e+02,3.390860299999999938e+02
2.140000000000000000e+02,3.395822800000000257e+02
2.150000000000000000e+02,3.400779999999999745e+02
2.160000000000000000e+02,3.405702200000000062e+02
2.170000000000000000e+02,3.410595099999999888e+02
2.180000000000000000e+02,3.415486799999999903e+02
2.190000000000000000e+02,3.420341799999999921e+02
2.200000000000000000e+02,3.425168800000000147e+02
2.210000000000000000e+02,3.429992700000000241e+02
2.220000000000000000e+02,3.434781500000000278e+02
2.230000000000000000e+02,3.439541300000000206e+02
2.240000000000000000e+02,3.444300499999999943e+02
2.250000000000000000e+02,3.449021599999999808e+02
2.260000000000000000e+02,3.453715500000000134e+02
2.270000000000000000e+02,3.458407300000000077e+02
2.280000000000000000e+02,3.463060899999999833e+02
2.290000000000000000e+02,3.467688600000000179e+02
2.300000000000000000e+02,3.472314799999999764e+02
2.310000000000000000e+02,3.476900299999999788e+02
2.320000000000000000e+02,3.481460900000000152e+02
2.330000000000000000e+02,3.486022899999999822e+02
2.340000000000000000e+02,3.490541999999999803e+02
2.350000000000000000e+02,3.495034800000000246e+02
2.360000000000000000e+02,3.499531600000000253e+02
2.370000000000000000e+02,3.503985299999999938e+02
2.380000000000000000e+02,3.508410000000000082e+02
2.390000000000000000e+02,3.512840299999999729e+02
2.400000000000000000e+02,3.517226299999999810e+02
2.410000000000000000e+02,3.521585099999999784e+02
2.420000000000000000e+02,3.525950300000000084e+02
2.430000000000000000e+02,3.530269499999999994e+02
2.440000000000000000e+02,3.534558999999999855e+02
2.450000000000000000e+02,3.538859899999999925e+02
2.460000000000000000e+02,3.543112199999999916e+02
2.470000000000000000e+02,3.547335800000000177e+02
2.480000000000000000e+02,3.551571700000000078e+02
2.490000000000000000e+02,3.555756499999999960e+02
2.500000000000000000e+02,3.559912100000000237e+02
2.510000000000000000e+02,3.564081699999999842e+02
2.520000000000000000e+02,3.568201000000000249e+02
2.530000000000000000e+02,3.572291000000000167e+02
2.540000000000000000e+02,3.576395899999999983e+02
2.550000000000000000e+02,3.580448299999999904e+02
2.560000000000000000e+02,3.584471100000000092e+02
2.570000000000000000e+02,3.588511399999999867e+02
2.580000000000000000e+02,3.592497599999999807e+02
2.590000000000000000e+02,3.596451700000000073e+02
2.600000000000000000e+02,3.600427900000000250e+02
2.610000000000000000e+02,3.604346899999999891e+02
2.620000000000000000e+02,3.608236400000000117e+02
2.630000000000000000e+02,3.612148700000000190e+02
2.640000000000000000e+02,3.616003099999999790e+02
2.650000000000000000e+02,3.619826400000000035e+02
2.660000000000000000e+02,3.623674300000000130e+02
2.670000000000000000e+02,3.627462499999999750e+02
2.680000000000000000e+02,3.631219800000000077e+02
2.690000000000000000e+02,3.635004900000000134e+02
2.700000000000000000e+02,3.638727999999999838e+02
2.710000000000000000e+02,3.642419699999999807e+02
2.720000000000000000e+02,3.646141999999999825e+02
2.730000000000000000e+02,3.649801600000000121e+02
2.740000000000000000e+02,3.653427699999999732e+02
2.750000000000000000e+02,3.657088299999999776e+02
2.760000000000000000e+02,3.660682400000000030e+02
2.770000000000000000e+02,3.664244699999999852e+02
2.780000000000000000e+02,3.667843300000000113e+02
2.790000000000000000e+02,3.671374200000000201e+02
2.800000000000000000e+02,3.674873000000000047e+02
2.810000000000000000e+02,3.678411300000000210e+02
2.820000000000000000e+02,3.681879599999999755e+02
2.830000000000000000e+02,3.685315600000000131e+02
2.840000000000000000e+02,3.688794599999999946e+02
2.850000000000000000e+02,3.692200300000000084e+02
2.860000000000000000e+02,3.695574599999999919e+02
2.870000000000000000e+02,3.698992900000000077e+02
2.880000000000000000e+02,3.702338300000000118e+02
2.890000000000000000e+02,3.705651199999999790e+02
2.900000000000000000e+02,3.709014000000000237e+02
2.910000000000000000e+02,3.712301299999999742e+02
2.920000000000000000e+02,3.715553600000000074e+02
2.930000000000000000e+02,3.718857399999999984e+02
2.940000000000000000e+02,3.722083999999999833e+02
2.950000000000000000e+02,3.725278000000000134e+02
2.960000000000000000e+02,3.728525700000000143e+02
2.970000000000000000e+02,3.731695599999999899e+02
2.980000000000000000e+02,3.734830900000000042e+02
2.990000000000000000e+02,3.738026100000000156e+02
3.000000000000000000e+02,3.741139499999999884e+02
3.010000000000000000e+02,3.744219699999999875e+02
3.020000000000000000e+02,3.747360199999999963e+02
3.030000000000000000e+02,3.750416000000000167e+02
3.040000000000000000e+02,3.753440899999999942e+02
3.050000000000000000e+02,3.756528000000000134e+02
3.060000000000000000e+02,3.759534300000000258e+02
3.070000000000000000e+02,3.762504599999999755e+02
3.080000000000000000e+02,3.765541099999999801e+02
3.090000000000000000e+02,3.768491500000000087e+02
3.100000000000000000e+02,3.771412399999999820e+02
3.110000000000000000e+02,3.774399999999999977e+02
3.120000000000000000e+02,3.777300399999999740e+02
3.130000000000000000e+02,3.780168499999999767e+02
3.140000000000000000e+02,3.783107899999999972e+02
3.150000000000000000e+02,3.785957000000000221e+02
3.160000000000000000e+02,3.788777799999999729e+02
3.170000000000000000e+02,3.791669299999999794e+02
3.180000000000000000e+02,3.794473300000000222e+02
3.190000000000000000e+02,3.797243300000000090e+02
3.200000000000000000e+02,3.800091600000000085e+02
3.210000000000000000e+02,3.802847899999999868e+02
3.220000000000000000e+02,3.805575299999999856e+02
3.230000000000000000e+02,3.808377399999999966e+02
3.240000000000000000e+02,3.811091000000000122e+02
3.250000000000000000e+02,3.813773199999999974e+02
3.260000000000000000e+02,3.816532000000000266e+02
3.270000000000000000e+02,3.819200399999999718e+02
3.280000000000000000e+02,3.821841999999999757e+02
3.290000000000000000e+02,3.824560500000000047e+02
3.300000000000000000e+02,3.827187200000000189e+02
3.310000000000000000e+02,3.829785200000000032e+02
3.320000000000000000e+02,3.832465500000000134e+02
3.330000000000000000e+02,3.835052800000000275e+02
3.340000000000000000e+02,3.837611400000000117e+02
3.350000000000000000e+02,3.840254199999999969e+02
3.360000000000000000e+02,3.842803299999999922e+02
3.370000000000000000e+02,3.845324699999999893e+02
3.380000000000000000e+02,3.847929100000000062e+02
3.390000000000000000e+02,3.850442499999999768e+02
3.400000000000000000e+02,3.852927900000000250e+02
3.410000000000000000e+02,3.855497700000000236e+02
3.420000000000000000e+02,3.857976400000000012e+02
3.430000000000000000e+02,3.860426899999999932e+02
3.440000000000000000e+02,3.862963300000000118e+02
3.450000000000000000e+02,3.865407999999999902e+02
3.460000000000000000e+02,3.867825000000000273e+02
3.470000000000000000e+02,3.870328400000000215e+02
3.480000000000000000e+02,3.872742900000000077e+02
3.490000000000000000e+02,3.875125400000000013e+02
3.500000000000000000e+02,3.877599799999999846e+02
3.510000000000000000e+02,3.879983500000000163e+02
3.520000000000000000e+02,3.882336399999999799e+02
3.530000000000000000e+02,3.884782700000000091e+02
3.540000000000000000e+02,3.887134100000000103e+02
3.550000000000000000e+02,3.889459499999999821e+02
3.560000000000000000e+02,3.891879000000000133e+02
3.570000000000000000e+02,3.894200999999999908e+02
3.580000000000000000e+02,3.896500199999999836e+02
3.590000000000000000e+02,3.898888900000000035e+02
3.600000000000000000e+02,3.901185600000000022e+02
3.610000000000000000e+02,3.903458600000000160e+02
3.620000000000000000e+02,3.905820600000000127e+02
3.630000000000000000e+02,3.908093299999999886e+02
3.640000000000000000e+02,3.910340600000000109e+02
3.650000000000000000e+02,3.912677600000000098e+02
3.660000000000000000e+02,3.914925799999999754e+02
3.670000000000000000e+02,3.917149400000000128e+02
3.680000000000000000e+02,3.919463499999999954e+02
3.690000000000000000e+02,3.921687600000000202e+02
3.700000000000000000e+02,3.923889800000000037e+02
3.710000000000000000e+02,3.926176500000000260e+02
3.720000000000000000e+02,3.928380399999999781e+02
3.730000000000000000e+02,3.930561200000000213e+02
3.740000000000000000e+02,3.932827500000000214e+02
3.750000000000000000e+02,3.935008900000000267e+02
3.760000000000000000e+02,3.937165499999999838e+02
3.770000000000000000e+02,3.939412800000000061e+02
3.780000000000000000e+02,3.941569799999999759e+02
3.790000000000000000e+02,3.943710599999999999e+02
3.800000000000000000e+02,3.945934399999999869e+02
3.810000000000000000e+02,3.948072799999999916e+02
3.820000000000000000e+02,3.950196500000000128e+02
3.830000000000000000e+02,3.952395900000000211e+02
3.840000000000000000e+02,3.954520899999999983e+02
3.850000000000000000e+02,3.956620199999999841e+02
3.860000000000000000e+02,3.958805500000000279e+02
3.870000000000000000e+02,3.960906400000000076e+02
3.880000000000000000e+02,3.962991299999999910e+02
3.890000000000000000e+02,3.965152899999999931e+02
3.900000000000000000e+02,3.967237200000000144e+02
3.910000000000000000e+02,3.969307299999999827e+02
3.920000000000000000e+02,3.971446799999999939e+02
3.930000000000000000e+02,3.973518100000000004e+02
3.940000000000000000e+02,3.975565500000000156e+02
3.950000000000000000e+02,3.977691699999999742e+02
3.960000000000000000e+02,3.979739999999999895e+02
3.970000000000000000e+02,3.981774899999999775e+02
3.980000000000000000e+02,3.983878500000000145e+02
