# Time [s], Temperature [C]
1.000000000000000000e+00,2.499997099999999861e+01
2.000000000000000000e+00,3.348106400000000349e+01
3.000000000000000000e+00,3.819155899999999804e+01
4.000000000000000000e+00,4.203798299999999699e+01
5.000000000000000000e+00,4.524496800000000007e+01
6.000000000000000000e+00,4.806570800000000077e+01
7.000000000000000000e+00,5.059501999999999811e+01
8.000000000000000000e+00,5.290425499999999914e+01
9.000000000000000000e+00,5.503667399999999787e+01
1.000000000000000000e+01,5.702362099999999856e+01
1.100000000000000000e+01,5.888898799999999767e+01
1.200000000000000000e+01,6.064944100000000304e+01
1.300000000000000000e+01,6.231954999999999956e+01
1.400000000000000000e+01,6.390915700000000044e+01
1.500000000000000000e+01,6.542855099999999879e+01
1.600000000000000000e+01,6.688477299999999559e+01
1.700000000000000000e+01,6.828386700000000076e+01
1.800000000000000000e+01,6.963044700000000375e+01
1.900000000000000000e+01,7.093025199999999586e+01
2.000000000000000000e+01,7.218673699999999371e+01
2.100000000000000000e+01,7.340267199999999548e+01
2.200000000000000000e+01,7.458168000000000575e+01
2.300000000000000000e+01,7.572617300000000284e+01
2.400000000000000000e+01,7.683865400000000534e+01
2.500000000000000000e+01,7.792059299999999666e+01
2.600000000000000000e+01,7.897433499999999640e+01
2.700000000000000000e+01,8.000141100000000449e+01
2.800000000000000000e+01,8.100417299999999443e+01
2.900000000000000000e+01,8.198272699999999702e+01
3.000000000000000000e+01,8.293949100000000385e+01
3.100000000000000000e+01,8.387425199999999847e+01
3.200000000000000000e+01,8.478963500000000408e+01
3.300000000000000000e+01,8.568578300000000070e+01
3.400000000000000000e+01,8.656297299999999950e+01
3.500000000000000000e+01,8.742340900000000659e+01
3.600000000000000000e+01,8.826710500000000081e+01
3.700000000000000000e+01,8.909495499999999879e+01
3.800000000000000000e+01,8.990723400000000254e+01
3.900000000000000000e+01,9.070504800000000500e+01
4.000000000000000000e+01,9.148878499999999292e+01
4.100000000000000000e+01,9.225912499999999739e+01
4.200000000000000000e+01,9.301646399999999915e+01
4.300000000000000000e+01,9.376132200000000694e+01
4.400000000000000000e+01,9.449419399999999314e+01
4.500000000000000000e+01,9.521575900000000559e+01
4.600000000000000000e+01,9.592575100000000532e+01
4.700000000000000000e+01,9.662519100000000094e+01
4.800000000000000000e+01,9.731372799999999756e+01
4.900000000000000000e+01,9.799229400000000112e+01
5.000000000000000000e+01,9.866165200000000368e+01
5.100000000000000000e+01,9.932138100000000236e+01
5.200000000000000000e+01,9.997143599999999708e+01
5.300000000000000000e+01,1.006132400000000047e+02
5.400000000000000000e+01,1.012464300000000037e+02
5.500000000000000000e+01,1.018707200000000057e+02
5.600000000000000000e+01,1.024878199999999993e+02
5.700000000000000000e+01,1.030964000000000027e+02
5.800000000000000000e+01,1.036972999999999985e+02
5.900000000000000000e+01,1.042915500000000009e+02
6.000000000000000000e+01,1.048778199999999998e+02
6.100000000000000000e+01,1.054578599999999966e+02
6.200000000000000000e+01,1.060308200000000056e+02
6.300000000000000000e+01,1.065972199999999930e+02
6.400000000000000000e+01,1.071571899999999999e+02
6.500000000000000000e+01,1.077109800000000064e+02
6.600000000000000000e+01,1.082590900000000005e+02
6.700000000000000000e+01,1.088005399999999980e+02
6.800000000000000000e+01,1.093371000000000066e+02
6.900000000000000000e+01,1.098675499999999943e+02
7.000000000000000000e+01,1.103926199999999938e+02
7.100000000000000000e+01,1.109128500000000059e+02
7.200000000000000000e+01,1.114274199999999979e+02
7.300000000000000000e+01,1.119370700000000056e+02
7.400000000000000000e+01,1.124421799999999934e+02
7.500000000000000000e+01,1.129420700000000011e+02
7.600000000000000000e+01,1.134377199999999988e+02
7.700000000000000000e+01,1.139285600000000045e+02
7.800000000000000000e+01,1.144148899999999998e+02
7.900000000000000000e+01,1.148972399999999965e+02
8.000000000000000000e+01,1.153755599999999930e+02
8.100000000000000000e+01,1.158494299999999981e+02
8.200000000000000000e+01,1.163191900000000061e+02
8.300000000000000000e+01,1.167854399999999941e+02
8.400000000000000000e+01,1.172479299999999967e+02
8.500000000000000000e+01,1.177066499999999962e+02
8.600000000000000000e+01,1.181618100000000027e+02
8.700000000000000000e+01,1.186127900000000039e+02
8.800000000000000000e+01,1.190608900000000006e+02
8.900000000000000000e+01,1.195056100000000043e+02
9.000000000000000000e+01,1.199470199999999949e+02
9.100000000000000000e+01,1.203853199999999930e+02
9.200000000000000000e+01,1.208205600000000004e+02
9.300000000000000000e+01,1.212526900000000012e+02
9.400000000000000000e+01,1.216814300000000060e+02
9.500000000000000000e+01,1.221076199999999972e+02
9.600000000000000000e+01,1.225308600000000041e+02
9.700000000000000000e+01,1.229510099999999966e+02
9.800000000000000000e+01,1.233688899999999933e+02
9.900000000000000000e+01,1.237839799999999997e+02
1.000000000000000000e+02,1.241965000000000003e+02
1.010000000000000000e+02,1.246065600000000018e+02
1.020000000000000000e+02,1.250140800000000070e+02
1.030000000000000000e+02,1.254191699999999940e+02
1.040000000000000000e+02,1.258219200000000058e+02
1.050000000000000000e+02,1.262221899999999977e+02
1.060000000000000000e+02,1.266201200000000000e+02
1.070000000000000000e+02,1.270155299999999983e+02
1.080000000000000000e+02,1.274089500000000044e+02
1.090000000000000000e+02,1.278002900000000039e+02
1.100000000000000000e+02,1.281896199999999908e+02
1.110000000000000000e+02,1.285768899999999917e+02
1.120000000000000000e+02,1.289621400000000051e+02
1.130000000000000000e+02,1.293454999999999870e+02
1.140000000000000000e+02,1.297269000000000005e+02
1.150000000000000000e+02,1.301063800000000015e+02
1.160000000000000000e+02,1.304840900000000090e+02
1.170000000000000000e+02,1.308599199999999882e+02
1.180000000000000000e+02,1.312339800000000025e+02
1.190000000000000000e+02,1.316063399999999888e+02
1.200000000000000000e+02,1.319772000000000105e+02
1.210000000000000000e+02,1.323464700000000107e+02
1.220000000000000000e+02,1.327139099999999985e+02
1.230000000000000000e+02,1.330796400000000119e+02
1.240000000000000000e+02,1.334437299999999880e+02
1.250000000000000000e+02,1.338062999999999931e+02
1.260000000000000000e+02,1.341673099999999863e+02
1.270000000000000000e+02,1.345267900000000054e+02
1.280000000000000000e+02,1.348848600000000033e+02
1.290000000000000000e+02,1.352414200000000051e+02
1.300000000000000000e+02,1.355965400000000045e+02
1.310000000000000000e+02,1.359502999999999986e+02
1.320000000000000000e+02,1.363028999999999940e+02
1.330000000000000000e+02,1.366538199999999961e+02
1.340000000000000000e+02,1.370035200000000088e+02
1.350000000000000000e+02,1.373519699999999943e+02
1.360000000000000000e+02,1.376995400000000132e+02
1.370000000000000000e+02,1.380455300000000136e+02
1.380000000000000000e+02,1.383901799999999866e+02
1.390000000000000000e+02,1.387335699999999861e+02
1.400000000000000000e+02,1.390760199999999998e+02
1.410000000000000000e+02,1.394169500000000141e+02
1.420000000000000000e+02,1.397567400000000077e+02
1.430000000000000000e+02,1.400954099999999869e+02
1.440000000000000000e+02,1.404329199999999958e+02
1.450000000000000000e+02,1.407692999999999870e+02
1.460000000000000000e+02,1.411050299999999993e+02
1.470000000000000000e+02,1.414396999999999878e+02
1.480000000000000000e+02,1.417730400000000088e+02
1.490000000000000000e+02,1.421054399999999873e+02
1.500000000000000000e+02,1.424366599999999892e+02
1.510000000000000000e+02,1.427667999999999893e+02
1.520000000000000000e+02,1.430959300000000098e+02
1.530000000000000000e+02,1.434246200000000044e+02
1.540000000000000000e+02,1.437517899999999997e+02
1.550000000000000000e+02,1.440780200000000093e+02
1.560000000000000000e+02,1.444032300000000077e+02
1.570000000000000000e+02,1.447275999999999954e+02
1.580000000000000000e+02,1.450511799999999880e+02
1.590000000000000000e+02,1.453739899999999921e+02
1.600000000000000000e+02,1.456959200000000010e+02
1.610000000000000000e+02,1.460167700000000082e+02
1.620000000000000000e+02,1.463366100000000074e+02
1.630000000000000000e+02,1.466554999999999893e+02
1.640000000000000000e+02,1.469738900000000115e+02
1.650000000000000000e+02,1.472911400000000128e+02
1.660000000000000000e+02,1.476078500000000133e+02
1.670000000000000000e+02,1.479235099999999932e+02
1.680000000000000000e+02,1.482383000000000095e+02
1.690000000000000000e+02,1.485524900000000059e+02
1.700000000000000000e+02,1.488656000000000006e+02
1.710000000000000000e+02,1.491780200000000036e+02
1.720000000000000000e+02,1.494899699999999996e+02
1.730000000000000000e+02,1.498008600000000001e+02
1.740000000000000000e+02,1.501110700000000122e+02
1.750000000000000000e+02,1.504201999999999941e+02
1.760000000000000000e+02,1.507286799999999971e+02
1.770000000000000000e+02,1.510367899999999963e+02
1.780000000000000000e+02,1.513441799999999944e+02
1.790000000000000000e+02,1.516504700000000128e+02
1.800000000000000000e+02,1.519559900000000141e+02
1.810000000000000000e+02,1.522607299999999952e+02
1.820000000000000000e+02,1.525651100000000042e+02
1.830000000000000000e+02,1.528688500000000090e+02
1.840000000000000000e+02,1.531715700000000027e+02
1.850000000000000000e+02,1.534735900000000015e+02
1.860000000000000000e+02,1.537748100000000022e+02
1.870000000000000000e+02,1.540758700000000090e+02
1.880000000000000000e+02,1.543757799999999918e+02
1.890000000000000000e+02,1.546751099999999894e+02
1.900000000000000000e+02,1.549737499999999955e+02
1.910000000000000000e+02,1.552722300000000075e+02
1.920000000000000000e+02,1.555694399999999860e+02
1.930000000000000000e+02,1.558659499999999980e+02
1.940000000000000000e+02,1.561619399999999871e+02
1.950000000000000000e+02,1.564575199999999882e+02
1.960000000000000000e+02,1.567523999999999944e+02
1.970000000000000000e+02,1.570464499999999930e+02
1.980000000000000000e+02,1.573397400000000061e+02
1.990000000000000000e+02,1.576326599999999871e+02
2.000000000000000000e+02,1.579251099999999894e+02
2.010000000000000000e+02,1.582166899999999998e+02
2.020000000000000000e+02,1.585075400000000059e+02
2.030000000000000000e+02,1.587979599999999891e+02
2.040000000000000000e+02,1.590878299999999967e+02
2.050000000000000000e+02,1.593769700000000000e+02
2.060000000000000000e+02,1.596656600000000026e+02
2.070000000000000000e+02,1.599533999999999878e+02
2.080000000000000000e+02,1.602406200000000069e+02
2.090000000000000000e+02,1.605275900000000036e+02
2.100000000000000000e+02,1.608138399999999990e+02
2.110000000000000000e+02,1.610991999999999962e+02
2.120000000000000000e+02,1.613840199999999925e+02
2.130000000000000000e+02,1.616685899999999947e+02
2.140000000000000000e+02,1.619525800000000118e+02
2.150000000000000000e+02,1.622356299999999862e+02
2.160000000000000000e+02,1.625184199999999919e+02
2.170000000000000000e+02,1.628006599999999935e+02
2.180000000000000000e+02,1.630820600000000127e+02
2.190000000000000000e+02,1.633628400000000056e+02
2.200000000000000000e+02,1.636433100000000138e+02
2.210000000000000000e+02,1.639233399999999961e+02
2.220000000000000000e+02,1.642024700000000053e+02
2.230000000000000000e+02,1.644809700000000134e+02
2.240000000000000000e+02,1.647594499999999869e+02
2.250000000000000000e+02,1.650369100000000060e+02
2.260000000000000000e+02,1.653138899999999865e+02
2.270000000000000000e+02,1.655904199999999946e+02
2.280000000000000000e+02,1.658663799999999924e+02
2.290000000000000000e+02,1.661417099999999891e+02
2.300000000000000000e+02,1.664165500000000009e+02
2.310000000000000000e+02,1.666912100000000123e+02
2.320000000000000000e+02,1.669647699999999872e+02
2.330000000000000000e+02,1.672379200000000026e+02
2.340000000000000000e+02,1.675107000000000141e+02
2.350000000000000000e+02,1.677829099999999869e+02
2.360000000000000000e+02,1.680544600000000059e+02
2.370000000000000000e+02,1.683256199999999865e+02
2.380000000000000000e+02,1.685963099999999883e+02
2.390000000000000000e+02,1.688663200000000018e+02
2.400000000000000000e+02,1.691358500000000049e+02
2.410000000000000000e+02,1.694046199999999942e+02
2.420000000000000000e+02,1.696733099999999865e+02
2.430000000000000000e+02,1.699413600000000031e+02
2.440000000000000000e+02,1.702086299999999994e+02
2.450000000000000000e+02,1.704757700000000114e+02
2.460000000000000000e+02,1.707422300000000064e+02
2.470000000000000000e+02,1.710078900000000033e+02
2.480000000000000000e+02,1.712734800000000064e+02
2.490000000000000000e+02,1.715384799999999927e+02
2.500000000000000000e+02,1.718025800000000061e+02
2.510000000000000000e+02,1.720662700000000029e+02
2.520000000000000000e+02,1.723299599999999998e+02
2.530000000000000000e+02,1.725926399999999887e+02
2.540000000000000000e+02,1.728548000000000116e+02
2.550000000000000000e+02,1.731169700000000091e+02
2.560000000000000000e+02,1.733781700000000114e+02
2.570000000000000000e+02,1.736388200000000097e+02
2.580000000000000000e+02,1.738993800000000078e+02
2.590000000000000000e+02,1.741590600000000109e+02
2.600000000000000000e+02,1.744183199999999943e+02
2.610000000000000000e+02,1.746774399999999901e+02
2.620000000000000000e+02,1.749356500000000096e+02
2.630000000000000000e+02,1.751934400000000096e+02
2.640000000000000000e+02,1.754510300000000029e+02
2.650000000000000000e+02,1.757077500000000043e+02
2.660000000000000000e+02,1.759640699999999924e+02
2.670000000000000000e+02,1.762202100000000087e+02
2.680000000000000000e+02,1.764753699999999981e+02
2.690000000000000000e+02,1.767302099999999996e+02
2.700000000000000000e+02,1.769849700000000041e+02
2.710000000000000000e+02,1.772386600000000101e+02
2.720000000000000000e+02,1.774920199999999966e+02
2.730000000000000000e+02,1.777453299999999956e+02
2.740000000000000000e+02,1.779976000000000056e+02
2.750000000000000000e+02,1.782496899999999869e+02
2.760000000000000000e+02,1.785013299999999958e+02
2.770000000000000000e+02,1.787522400000000005e+02
2.780000000000000000e+02,1.790028499999999951e+02
2.790000000000000000e+02,1.792530099999999891e+02
2.800000000000000000e+02,1.795024899999999946e+02
2.810000000000000000e+02,1.797516899999999964e+02
2.820000000000000000e+02,1.800004299999999944e+02
2.830000000000000000e+02,1.802486600000000010e+02
2.840000000000000000e+02,1.804961999999999875e+02
2.850000000000000000e+02,1.807435600000000022e+02
2.860000000000000000e+02,1.809903400000000033e+02
2.870000000000000000e+02,1.812363900000000001e+02
2.880000000000000000e+02,1.814823199999999872e+02
2.890000000000000000e+02,1.817277400000000114e+02
2.900000000000000000e+02,1.819723999999999933e+02
2.910000000000000000e+02,1.822171199999999942e+02
2.920000000000000000e+02,1.824608900000000062e+02
2.930000000000000000e+02,1.827045300000000054e+02
2.940000000000000000e+02,1.829476600000000133e+02
2.950000000000000000e+02,1.831900200000000041e+02
2.960000000000000000e+02,1.834323100000000011e+02
2.970000000000000000e+02,1.836740599999999972e+02
2.980000000000000000e+02,1.839149600000000078e+02
2.990000000000000000e+02,1.841560399999999902e+02
3.000000000000000000e+02,1.843961500000000058e+02
3.010000000000000000e+02,1.846359999999999957e+02
3.020000000000000000e+02,1.848754399999999976e+02
3.030000000000000000e+02,1.851141399999999919e+02
3.040000000000000000e+02,1.853527799999999957e+02
3.050000000000000000e+02,1.855906099999999981e+02
3.060000000000000000e+02,1.858280200000000093e+02
3.070000000000000000e+02,1.860652800000000013e+02
3.080000000000000000e+02,1.863017600000000016e+02
3.090000000000000000e+02,1.865382400000000018e+02
3.100000000000000000e+02,1.867737099999999941e+02
3.110000000000000000e+02,1.870088700000000017e+02
3.120000000000000000e+02,1.872439599999999871e+02
3.130000000000000000e+02,1.874780900000000088e+02
3.140000000000000000e+02,1.877120500000000050e+02
3.150000000000000000e+02,1.879455600000000004e+02
3.160000000000000000e+02,1.881785099999999886e+02
3.170000000000000000e+02,1.884114500000000021e+02
3.180000000000000000e+02,1.886433700000000044e+02
3.190000000000000000e+02,1.888750799999999970e+02
3.200000000000000000e+02,1.891064100000000110e+02
3.210000000000000000e+02,1.893372300000000052e+02
3.220000000000000000e+02,1.895676100000000019e+02
3.230000000000000000e+02,1.897975199999999916e+02
3.240000000000000000e+02,1.900270199999999932e+02
3.250000000000000000e+02,1.902560900000000004e+02
3.260000000000000000e+02,1.904847399999999880e+02
3.270000000000000000e+02,1.907129400000000032e+02
3.280000000000000000e+02,1.909407199999999989e+02
3.290000000000000000e+02,1.911677699999999902e+02
3.300000000000000000e+02,1.913947000000000003e+02
3.310000000000000000e+02,1.916211399999999969e+02
3.320000000000000000e+02,1.918471999999999866e+02
3.330000000000000000e+02,1.920728300000000104e+02
3.340000000000000000e+02,1.922976700000000108e+02
3.350000000000000000e+02,1.925226299999999924e+02
3.360000000000000000e+02,1.927466900000000010e+02
3.370000000000000000e+02,1.929706299999999999e+02
3.380000000000000000e+02,1.931941199999999981e+02
3.390000000000000000e+02,1.934167899999999918e+02
3.400000000000000000e+02,1.936395599999999888e+02
3.410000000000000000e+02,1.938615000000000066e+02
3.420000000000000000e+02,1.940833399999999926e+02
3.430000000000000000e+02,1.943043800000000090e+02
3.440000000000000000e+02,1.945253399999999999e+02
3.450000000000000000e+02,1.947458000000000027e+02
3.460000000000000000e+02,1.949655600000000106e+02
3.470000000000000000e+02,1.951852900000000091e+02
3.480000000000000000e+02,1.954042100000000062e+02
3.490000000000000000e+02,1.956231400000000065e+02
3.500000000000000000e+02,1.958412600000000054e+02
3.510000000000000000e+02,1.960594000000000108e+02
3.520000000000000000e+02,1.962766000000000020e+02
3.530000000000000000e+02,1.964935199999999895e+02
3.540000000000000000e+02,1.967103299999999990e+02
3.550000000000000000e+02,1.969262999999999977e+02
3.560000000000000000e+02,1.971423499999999933e+02
3.570000000000000000e+02,1.973575299999999970e+02
3.580000000000000000e+02,1.975727200000000039e+02
3.590000000000000000e+02,1.977870299999999872e+02
3.600000000000000000e+02,1.980011100000000113e+02
3.610000000000000000e+02,1.982147799999999904e+02
3.620000000000000000e+02,1.984281300000000101e+02
3.630000000000000000e+02,1.986410199999999975e+02
3.640000000000000000e+02,1.988534199999999998e+02
3.650000000000000000e+02,1.990654800000000080e+02
3.660000000000000000e+02,1.992770099999999900e+02
3.670000000000000000e+02,1.994884500000000003e+02
3.680000000000000000e+02,1.996991399999999999e+02
3.690000000000000000e+02,1.999095299999999895e+02
3.700000000000000000e+02,2.001194900000000132e+02
3.710000000000000000e+02,2.003290700000000015e+02
3.720000000000000000e+02,2.005382199999999955e+02
3.730000000000000000e+02,2.007470199999999920e+02
3.740000000000000000e+02,2.009553999999999974e+02
3.750000000000000000e+02,2.011633899999999926e+02
3.760000000000000000e+02,2.013709399999999903e+02
3.770000000000000000e+02,2.015781700000000001e+02
3.780000000000000000e+02,2.017848500000000058e+02
3.790000000000000000e+02,2.019911999999999921e+02
3.800000000000000000e+02,2.021969100000000026e+02
3.810000000000000000e+02,2.024026499999999942e+02
3.820000000000000000e+02,2.026075700000000097e+02
3.830000000000000000e+02,2.028125799999999970e+02
3.840000000000000000e+02,2.030167399999999986e+02
3.850000000000000000e+02,2.032209200000000067e+02
3.860000000000000000e+02,2.034242900000000134e+02
3.870000000000000000e+02,2.036274300000000039e+02
3.880000000000000000e+02,2.038301700000000096e+02
3.890000000000000000e+02,2.040325300000000084e+02
3.900000000000000000e+02,2.042345400000000097e+02
3.910000000000000000e+02,2.044360800000000040e+02
3.920000000000000000e+02,2.046373100000000136e+02
3.930000000000000000e+02,2.048380600000000129e+02
3.940000000000000000e+02,2.050384400000000085e+02
3.950000000000000000e+02,2.052382200000000125e+02
3.960000000000000000e+02,2.054380199999999945e+02
3.970000000000000000e+02,2.056369899999999973e+02
3.980000000000000000e+02,2.058360000000000127e+02
3.990000000000000000e+02,2.060342100000000016e+02
