# Time [s], Thickness [m]
1.000000000000000000e+00,8.000000400000000303e-03
2.000000000000000000e+00,8.000000400000000303e-03
3.000000000000000000e+00,8.000000400000000303e-03
4.000000000000000000e+00,8.000000400000000303e-03
5.000000000000000000e+00,8.000000400000000303e-03
6.000000000000000000e+00,8.000000400000000303e-03
7.000000000000000000e+00,8.000000400000000303e-03
8.000000000000000000e+00,8.000000400000000303e-03
9.000000000000000000e+00,8.000000400000000303e-03
1.000000000000000000e+01,8.000000400000000303e-03
1.100000000000000000e+01,8.000000400000000303e-03
1.200000000000000000e+01,8.000000400000000303e-03
1.300000000000000000e+01,7.999999400000000829e-03
1.400000000000000000e+01,7.999999400000000829e-03
1.500000000000000000e+01,7.999999400000000829e-03
1.600000000000000000e+01,7.999998499999999221e-03
1.700000000000000000e+01,7.999995700000000001e-03
1.800000000000000000e+01,7.999991999999999173e-03
1.900000000000000000e+01,7.999985500000000860e-03
2.000000000000000000e+01,7.999974300000000510e-03
2.100000000000000000e+01,7.999955700000000239e-03
2.200000000000000000e+01,7.999925899999999618e-03
2.300000000000000000e+01,7.999879300000000207e-03
2.400000000000000000e+01,7.999807600000000476e-03
2.500000000000000000e+01,7.999701399999999823e-03
2.600000000000000000e+01,7.999546800000000013e-03
2.700000000000000000e+01,7.999327000000000520e-03
2.800000000000000000e+01,7.999018800000000373e-03
2.900000000000000000e+01,7.998595000000000704e-03
3.000000000000000000e+01,7.998022299999999266e-03
3.100000000000000000e+01,7.997261400000000436e-03
3.200000000000000000e+01,7.996267600000000683e-03
3.300000000000000000e+01,7.994988899999999621e-03
3.400000000000000000e+01,7.993388900000000449e-03
3.500000000000000000e+01,7.991409899999999539e-03
3.600000000000000000e+01,7.988986599999999341e-03
3.700000000000000000e+01,7.986060300000000223e-03
3.800000000000000000e+01,7.982577200000000317e-03
3.900000000000000000e+01,7.978488699999999531e-03
4.000000000000000000e+01,7.973758500000000665e-03
4.100000000000000000e+01,7.968360600000000057e-03
4.200000000000000000e+01,7.962277199999999444e-03
4.300000000000000000e+01,7.955503699999999859e-03
4.400000000000000000e+01,7.948045600000000141e-03
4.500000000000000000e+01,7.939916099999999588e-03
4.600000000000000000e+01,7.931134700000000079e-03
4.700000000000000000e+01,7.921725500000000725e-03
4.800000000000000000e+01,7.911716600000000266e-03
4.900000000000000000e+01,7.901136799999999849e-03
5.000000000000000000e+01,7.890015800000000495e-03
5.100000000000000000e+01,7.878382700000000419e-03
5.200000000000000000e+01,7.866265299999999558e-03
5.300000000000000000e+01,7.853691499999999187e-03
5.400000000000000000e+01,7.840686499999999226e-03
5.500000000000000000e+01,7.827273600000000248e-03
5.600000000000000000e+01,7.813476999999999228e-03
5.700000000000000000e+01,7.799315700000000046e-03
5.800000000000000000e+01,7.784810399999999783e-03
5.900000000000000000e+01,7.769978599999999638e-03
6.000000000000000000e+01,7.754836699999999999e-03
6.100000000000000000e+01,7.739399999999999578e-03
6.200000000000000000e+01,7.723683000000000284e-03
6.300000000000000000e+01,7.707699200000000216e-03
6.400000000000000000e+01,7.691460699999999595e-03
6.500000000000000000e+01,7.674979000000000176e-03
6.600000000000000000e+01,7.658264599999999901e-03
6.700000000000000000e+01,7.640833500000000257e-03
6.800000000000000000e+01,7.623775400000000306e-03
6.900000000000000000e+01,7.606628800000000100e-03
7.000000000000000000e+01,7.589325800000000337e-03
7.100000000000000000e+01,7.571833699999999841e-03
7.200000000000000000e+01,7.554145100000000425e-03
7.300000000000000000e+01,7.536259499999999750e-03
7.400000000000000000e+01,7.518181999999999990e-03
7.500000000000000000e+01,7.499917400000000178e-03
7.600000000000000000e+01,7.481472099999999896e-03
7.700000000000000000e+01,7.462852600000000058e-03
7.800000000000000000e+01,7.444065100000000178e-03
7.900000000000000000e+01,7.425115000000000361e-03
8.000000000000000000e+01,7.406008900000000256e-03
8.100000000000000000e+01,7.386751500000000165e-03
8.200000000000000000e+01,7.367347800000000058e-03
8.300000000000000000e+01,7.347802199999999700e-03
8.400000000000000000e+01,7.328119600000000330e-03
8.500000000000000000e+01,7.307866100000000135e-03
8.600000000000000000e+01,7.288059199999999578e-03
8.700000000000000000e+01,7.268222999999999871e-03
8.800000000000000000e+01,7.248290299999999783e-03
8.900000000000000000e+01,7.228228300000000273e-03
9.000000000000000000e+01,7.208029700000000151e-03
9.100000000000000000e+01,7.187692400000000002e-03
9.200000000000000000e+01,7.167218300000000042e-03
9.300000000000000000e+01,7.146610400000000425e-03
9.400000000000000000e+01,7.125872699999999914e-03
9.500000000000000000e+01,7.105008700000000135e-03
9.600000000000000000e+01,7.084021299999999910e-03
9.700000000000000000e+01,7.062914800000000271e-03
9.800000000000000000e+01,7.041691299999999765e-03
9.900000000000000000e+01,7.020354700000000156e-03
1.000000000000000000e+02,6.998906400000000187e-03
1.010000000000000000e+02,6.977350000000000219e-03
1.020000000000000000e+02,6.955250199999999695e-03
1.030000000000000000e+02,6.933660200000000412e-03
1.040000000000000000e+02,6.912057800000000370e-03
1.050000000000000000e+02,6.890371400000000306e-03
1.060000000000000000e+02,6.868566900000000301e-03
1.070000000000000000e+02,6.846636500000000299e-03
1.080000000000000000e+02,6.824578599999999752e-03
1.090000000000000000e+02,6.802394500000000406e-03
1.100000000000000000e+02,6.780086999999999746e-03
1.110000000000000000e+02,6.757659400000000198e-03
1.120000000000000000e+02,6.735114399999999647e-03
1.130000000000000000e+02,6.712454399999999780e-03
1.140000000000000000e+02,6.689682100000000214e-03
1.150000000000000000e+02,6.666799499999999899e-03
1.160000000000000000e+02,6.643808900000000052e-03
1.170000000000000000e+02,6.620289799999999961e-03
1.180000000000000000e+02,6.597246499999999923e-03
1.190000000000000000e+02,6.574182799999999868e-03
1.200000000000000000e+02,6.551032400000000172e-03
1.210000000000000000e+02,6.527763300000000331e-03
1.220000000000000000e+02,6.504367599999999819e-03
1.230000000000000000e+02,6.480842799999999952e-03
1.240000000000000000e+02,6.457189999999999805e-03
1.250000000000000000e+02,6.433411499999999728e-03
1.260000000000000000e+02,6.409509100000000334e-03
1.270000000000000000e+02,6.385484700000000104e-03
1.280000000000000000e+02,6.361340600000000255e-03
1.290000000000000000e+02,6.337078799999999734e-03
1.300000000000000000e+02,6.312700000000000082e-03
1.310000000000000000e+02,6.287803399999999932e-03
1.320000000000000000e+02,6.263364599999999768e-03
1.330000000000000000e+02,6.238886600000000116e-03
1.340000000000000000e+02,6.214306200000000238e-03
1.350000000000000000e+02,6.189593099999999778e-03
1.360000000000000000e+02,6.164740299999999819e-03
1.370000000000000000e+02,6.139745900000000145e-03
1.380000000000000000e+02,6.114610900000000231e-03
1.390000000000000000e+02,6.089337600000000426e-03
1.400000000000000000e+02,6.063927900000000079e-03
1.410000000000000000e+02,6.038382600000000329e-03
1.420000000000000000e+02,6.012704199999999860e-03
1.430000000000000000e+02,5.986893499999999813e-03
1.440000000000000000e+02,5.960578099999999831e-03
1.450000000000000000e+02,5.934688300000000132e-03
1.460000000000000000e+02,5.908731799999999805e-03
1.470000000000000000e+02,5.882650100000000153e-03
1.480000000000000000e+02,5.856415299999999900e-03
1.490000000000000000e+02,5.830020600000000199e-03
1.500000000000000000e+02,5.803465800000000112e-03
1.510000000000000000e+02,5.776752300000000118e-03
1.520000000000000000e+02,5.749880800000000021e-03
1.530000000000000000e+02,5.722853400000000104e-03
1.540000000000000000e+02,5.695671799999999646e-03
1.550000000000000000e+02,5.668336500000000118e-03
1.560000000000000000e+02,5.640848500000000126e-03
1.570000000000000000e+02,5.612801800000000001e-03
1.580000000000000000e+02,5.585189899999999825e-03
1.590000000000000000e+02,5.557492800000000087e-03
1.600000000000000000e+02,5.529646299999999709e-03
1.610000000000000000e+02,5.501619999999999601e-03
1.620000000000000000e+02,5.473407500000000182e-03
1.630000000000000000e+02,5.445007699999999777e-03
1.640000000000000000e+02,5.416420800000000188e-03
1.650000000000000000e+02,5.387648000000000090e-03
1.660000000000000000e+02,5.358690900000000028e-03
1.670000000000000000e+02,5.329550199999999807e-03
1.680000000000000000e+02,5.299912799999999778e-03
1.690000000000000000e+02,5.270602600000000304e-03
1.700000000000000000e+02,5.241149599999999839e-03
1.710000000000000000e+02,5.211503699999999947e-03
1.720000000000000000e+02,5.181642200000000260e-03
1.730000000000000000e+02,5.151560999999999814e-03
1.740000000000000000e+02,5.121259000000000401e-03
1.750000000000000000e+02,5.090737700000000365e-03
1.760000000000000000e+02,5.059997099999999706e-03
1.770000000000000000e+02,5.029038100000000032e-03
1.780000000000000000e+02,4.997860199999999871e-03
1.790000000000000000e+02,4.966462999999999954e-03
1.800000000000000000e+02,4.934444599999999841e-03
1.810000000000000000e+02,4.902786099999999724e-03
1.820000000000000000e+02,4.870955800000000002e-03
1.830000000000000000e+02,4.838892299999999688e-03
1.840000000000000000e+02,4.806566100000000431e-03
1.850000000000000000e+02,4.773971600000000322e-03
1.860000000000000000e+02,4.741106600000000344e-03
1.870000000000000000e+02,4.707971099999999631e-03
1.880000000000000000e+02,4.674564600000000181e-03
1.890000000000000000e+02,4.640886599999999654e-03
1.900000000000000000e+02,4.606609200000000293e-03
1.910000000000000000e+02,4.572558200000000073e-03
1.920000000000000000e+02,4.538263199999999914e-03
1.930000000000000000e+02,4.503677600000000406e-03
1.940000000000000000e+02,4.468779499999999717e-03
1.950000000000000000e+02,4.433565300000000091e-03
1.960000000000000000e+02,4.398034399999999587e-03
1.970000000000000000e+02,4.362188300000000019e-03
1.980000000000000000e+02,4.326026900000000050e-03
1.990000000000000000e+02,4.289256899999999845e-03
2.000000000000000000e+02,4.252635900000000142e-03
2.010000000000000000e+02,4.215721500000000135e-03
2.020000000000000000e+02,4.178476500000000149e-03
2.030000000000000000e+02,4.140885999999999872e-03
2.040000000000000000e+02,4.102951399999999783e-03
2.050000000000000000e+02,4.064677299999999716e-03
2.060000000000000000e+02,4.026069299999999844e-03
2.070000000000000000e+02,3.987133999999999817e-03
2.080000000000000000e+02,3.947555600000000366e-03
2.090000000000000000e+02,3.908130800000000384e-03
2.100000000000000000e+02,3.868416700000000194e-03
2.110000000000000000e+02,3.828382400000000102e-03
2.120000000000000000e+02,3.788019799999999947e-03
2.130000000000000000e+02,3.747338199999999866e-03
2.140000000000000000e+02,3.706349299999999944e-03
2.150000000000000000e+02,3.665066299999999912e-03
2.160000000000000000e+02,3.623502800000000072e-03
2.170000000000000000e+02,3.581326900000000001e-03
2.180000000000000000e+02,3.539366600000000158e-03
2.190000000000000000e+02,3.497180800000000180e-03
2.200000000000000000e+02,3.454745999999999859e-03
2.210000000000000000e+02,3.412059500000000009e-03
2.220000000000000000e+02,3.369135799999999938e-03
2.230000000000000000e+02,3.325990200000000091e-03
2.240000000000000000e+02,3.282359800000000157e-03
2.250000000000000000e+02,3.238930799999999947e-03
2.260000000000000000e+02,3.195328199999999952e-03
2.270000000000000000e+02,3.151539200000000145e-03
2.280000000000000000e+02,3.107566600000000179e-03
2.290000000000000000e+02,3.063424999999999829e-03
2.300000000000000000e+02,3.019129399999999873e-03
2.310000000000000000e+02,2.974694400000000086e-03
2.320000000000000000e+02,2.929794400000000024e-03
2.330000000000000000e+02,2.885207800000000149e-03
2.340000000000000000e+02,2.840521300000000034e-03
2.350000000000000000e+02,2.795714400000000061e-03
2.360000000000000000e+02,2.750783900000000008e-03
2.370000000000000000e+02,2.705740999999999789e-03
2.380000000000000000e+02,2.660596700000000120e-03
2.390000000000000000e+02,2.615028499999999881e-03
2.400000000000000000e+02,2.569776000000000178e-03
2.410000000000000000e+02,2.524448099999999917e-03
2.420000000000000000e+02,2.479026599999999830e-03
2.430000000000000000e+02,2.433507899999999991e-03
2.440000000000000000e+02,2.387902900000000214e-03
2.450000000000000000e+02,2.342221800000000072e-03
2.460000000000000000e+02,2.296473399999999967e-03
2.470000000000000000e+02,2.250265600000000196e-03
2.480000000000000000e+02,2.204429400000000074e-03
2.490000000000000000e+02,2.158540300000000127e-03
2.500000000000000000e+02,2.112579800000000119e-03
2.510000000000000000e+02,2.066544999999999927e-03
2.520000000000000000e+02,2.020447299999999970e-03
2.530000000000000000e+02,1.974296300000000053e-03
2.540000000000000000e+02,1.927678200000000012e-03
2.550000000000000000e+02,1.881430699999999930e-03
2.560000000000000000e+02,1.835146900000000046e-03
2.570000000000000000e+02,1.788816900000000020e-03
2.580000000000000000e+02,1.742443100000000021e-03
2.590000000000000000e+02,1.696038100000000007e-03
2.600000000000000000e+02,1.649611700000000068e-03
2.610000000000000000e+02,1.602696299999999911e-03
2.620000000000000000e+02,1.556207900000000080e-03
2.630000000000000000e+02,1.509728699999999917e-03
2.640000000000000000e+02,1.463259099999999991e-03
2.650000000000000000e+02,1.416803199999999967e-03
2.660000000000000000e+02,1.370372900000000000e-03
2.670000000000000000e+02,1.323977700000000075e-03
2.680000000000000000e+02,1.277128399999999907e-03
2.690000000000000000e+02,1.230836099999999943e-03
2.700000000000000000e+02,1.184654700000000067e-03
2.710000000000000000e+02,1.138592500000000073e-03
2.720000000000000000e+02,1.092651600000000027e-03
2.730000000000000000e+02,1.046847700000000077e-03
2.740000000000000000e+02,1.001201599999999945e-03
2.750000000000000000e+02,9.557383000000000241e-04
2.760000000000000000e+02,9.101288699999999501e-04
2.770000000000000000e+02,8.654038500000000135e-04
2.780000000000000000e+02,8.210154499999999626e-04
2.790000000000000000e+02,7.769950900000000167e-04
2.800000000000000000e+02,7.333730999999999800e-04
2.810000000000000000e+02,6.902087500000000280e-04
2.820000000000000000e+02,6.475666300000000033e-04
2.830000000000000000e+02,6.057129899999999512e-04
2.840000000000000000e+02,5.653183299999999661e-04
2.850000000000000000e+02,5.255932300000000371e-04
2.860000000000000000e+02,4.867534999999999874e-04
2.870000000000000000e+02,4.488943400000000258e-04
2.880000000000000000e+02,4.121264200000000202e-04
2.890000000000000000e+02,3.765932299999999932e-04
2.900000000000000000e+02,3.424218700000000270e-04
2.910000000000000000e+02,3.097646999999999922e-04
2.920000000000000000e+02,2.801278300000000139e-04
2.930000000000000000e+02,2.530854300000000235e-04
2.940000000000000000e+02,2.270513699999999904e-04
2.950000000000000000e+02,2.031782100000000132e-04
2.960000000000000000e+02,1.808322800000000121e-04
2.970000000000000000e+02,1.605875100000000077e-04
2.980000000000000000e+02,1.420663000000000123e-04
2.990000000000000000e+02,1.256017600000000048e-04
3.000000000000000000e+02,1.108451299999999956e-04
3.010000000000000000e+02,9.800500299999999581e-05
3.020000000000000000e+02,8.670736899999999779e-05
3.030000000000000000e+02,7.706402500000000117e-05
3.040000000000000000e+02,6.870558000000000025e-05
3.050000000000000000e+02,6.167665600000000494e-05
3.060000000000000000e+02,5.564391499999999866e-05
3.070000000000000000e+02,5.061007700000000228e-05
3.080000000000000000e+02,4.632541099999999874e-05
3.090000000000000000e+02,4.274054999999999857e-05
3.100000000000000000e+02,3.970769499999999896e-05
3.110000000000000000e+02,3.715476900000000063e-05
3.120000000000000000e+02,3.499205599999999957e-05
3.130000000000000000e+02,3.315893300000000225e-05
3.140000000000000000e+02,3.159875599999999938e-05
3.150000000000000000e+02,3.026431299999999980e-05
3.160000000000000000e+02,2.911906399999999860e-05
3.170000000000000000e+02,2.813165000000000026e-05
3.180000000000000000e+02,2.727542600000000092e-05
3.190000000000000000e+02,2.652967700000000156e-05
3.200000000000000000e+02,2.587695800000000155e-05
3.210000000000000000e+02,2.530215500000000000e-05
3.220000000000000000e+02,2.479366799999999858e-05
3.230000000000000000e+02,2.434171600000000152e-05
3.240000000000000000e+02,2.393772199999999971e-05
3.250000000000000000e+02,2.357498700000000157e-05
3.260000000000000000e+02,2.324786499999999904e-05
3.270000000000000000e+02,2.295137500000000012e-05
3.280000000000000000e+02,2.268155199999999849e-05
3.290000000000000000e+02,2.243502999999999990e-05
3.300000000000000000e+02,2.220882899999999919e-05
3.310000000000000000e+02,2.200052899999999984e-05
3.320000000000000000e+02,2.180806200000000154e-05
3.330000000000000000e+02,2.162958999999999970e-05
3.340000000000000000e+02,2.146358399999999850e-05
3.350000000000000000e+02,2.130872400000000046e-05
3.360000000000000000e+02,2.116382500000000061e-05
3.370000000000000000e+02,2.102789399999999929e-05
3.380000000000000000e+02,2.090006600000000035e-05
3.390000000000000000e+02,2.077956199999999944e-05
3.400000000000000000e+02,2.066571100000000113e-05
3.410000000000000000e+02,2.055793099999999994e-05
3.420000000000000000e+02,2.045568500000000031e-05
3.430000000000000000e+02,2.035851499999999934e-05
3.440000000000000000e+02,2.026600900000000006e-05
3.450000000000000000e+02,2.017779100000000056e-05
3.460000000000000000e+02,2.009353200000000086e-05
3.470000000000000000e+02,2.001293999999999884e-05
3.480000000000000000e+02,1.993573999999999897e-05
3.490000000000000000e+02,1.986169599999999897e-05
3.500000000000000000e+02,1.979058999999999918e-05
3.510000000000000000e+02,1.972222199999999916e-05
3.520000000000000000e+02,1.965641100000000048e-05
3.530000000000000000e+02,1.959299499999999993e-05
3.540000000000000000e+02,1.953182300000000119e-05
3.550000000000000000e+02,1.947275600000000062e-05
3.560000000000000000e+02,1.941567499999999940e-05
3.570000000000000000e+02,1.936045899999999989e-05
3.580000000000000000e+02,1.930700500000000032e-05
3.590000000000000000e+02,1.925521200000000107e-05
3.600000000000000000e+02,1.920499200000000140e-05
3.610000000000000000e+02,1.915626100000000155e-05
3.620000000000000000e+02,1.910894399999999964e-05
3.630000000000000000e+02,1.906296299999999904e-05
3.640000000000000000e+02,1.901825799999999893e-05
3.650000000000000000e+02,1.897476199999999937e-05
3.660000000000000000e+02,1.893241999999999991e-05
3.670000000000000000e+02,1.889117600000000068e-05
3.680000000000000000e+02,1.885098000000000158e-05
3.690000000000000000e+02,1.881178500000000068e-05
3.700000000000000000e+02,1.877354600000000160e-05
3.710000000000000000e+02,1.873622199999999877e-05
3.720000000000000000e+02,1.869977299999999956e-05
3.730000000000000000e+02,1.866416500000000090e-05
3.740000000000000000e+02,1.862935999999999878e-05
3.750000000000000000e+02,1.859532699999999849e-05
3.760000000000000000e+02,1.856203600000000132e-05
3.770000000000000000e+02,1.852945800000000117e-05
3.780000000000000000e+02,1.849756299999999934e-05
3.790000000000000000e+02,1.846632799999999963e-05
3.800000000000000000e+02,1.843572899999999969e-05
3.810000000000000000e+02,1.840573899999999898e-05
3.820000000000000000e+02,1.837633899999999889e-05
3.830000000000000000e+02,1.834750599999999984e-05
3.840000000000000000e+02,1.831922400000000138e-05
3.850000000000000000e+02,1.829147000000000056e-05
3.860000000000000000e+02,1.826422700000000093e-05
3.870000000000000000e+02,1.823748100000000083e-05
3.880000000000000000e+02,1.821121099999999947e-05
3.890000000000000000e+02,1.818540299999999859e-05
3.900000000000000000e+02,1.816004399999999929e-05
3.910000000000000000e+02,1.813512099999999933e-05
3.920000000000000000e+02,1.811061500000000007e-05
3.930000000000000000e+02,1.808651899999999901e-05
3.940000000000000000e+02,1.806281599999999969e-05
3.950000000000000000e+02,1.803949800000000019e-05
3.960000000000000000e+02,1.801655200000000165e-05
3.970000000000000000e+02,1.799396499999999840e-05
3.980000000000000000e+02,1.797173000000000149e-05
3.990000000000000000e+02,1.794983700000000004e-05
