# Time [s], Thickness [m]
1.000000000000000000e+00,8.000000400000000303e-03
2.000000000000000000e+00,8.000000400000000303e-03
3.000000000000000000e+00,8.000000400000000303e-03
4.000000000000000000e+00,8.000000400000000303e-03
5.000000000000000000e+00,8.000000400000000303e-03
6.000000000000000000e+00,8.000000400000000303e-03
7.000000000000000000e+00,8.000000400000000303e-03
8.000000000000000000e+00,8.000000400000000303e-03
9.000000000000000000e+00,7.999999400000000829e-03
1.000000000000000000e+01,7.999999400000000829e-03
1.100000000000000000e+01,7.999998499999999221e-03
1.200000000000000000e+01,7.999995700000000001e-03
1.300000000000000000e+01,7.999988300000000080e-03
1.400000000000000000e+01,7.999971499999999555e-03
1.500000000000000000e+01,7.999933299999999539e-03
1.600000000000000000e+01,7.999853200000000414e-03
1.700000000000000000e+01,7.999698600000000603e-03
1.800000000000000000e+01,7.999412699999999821e-03
1.900000000000000000e+01,7.998910700000000373e-03
2.000000000000000000e+01,7.998069700000000684e-03
2.100000000000000000e+01,7.996720299999999365e-03
2.200000000000000000e+01,7.994648099999999633e-03
2.300000000000000000e+01,7.991632400000000386e-03
2.400000000000000000e+01,7.987433099999999980e-03
2.500000000000000000e+01,7.981781800000000565e-03
2.600000000000000000e+01,7.974482099999999352e-03
2.700000000000000000e+01,7.965422200000000716e-03
2.800000000000000000e+01,7.954583499999999183e-03
2.900000000000000000e+01,7.942024599999999990e-03
3.000000000000000000e+01,7.927857300000000496e-03
3.100000000000000000e+01,7.912217600000000239e-03
3.200000000000000000e+01,7.895248000000000543e-03
3.300000000000000000e+01,7.877081600000000391e-03
3.400000000000000000e+01,7.857839599999999480e-03
3.500000000000000000e+01,7.837629900000000344e-03
3.600000000000000000e+01,7.816545700000000069e-03
3.700000000000000000e+01,7.794667499999999652e-03
3.800000000000000000e+01,7.772067100000000159e-03
3.900000000000000000e+01,7.748804500000000366e-03
4.000000000000000000e+01,7.724935700000000287e-03
4.100000000000000000e+01,7.700507500000000269e-03
4.200000000000000000e+01,7.675562099999999957e-03
4.300000000000000000e+01,7.650137399999999699e-03
4.400000000000000000e+01,7.623331199999999752e-03
4.500000000000000000e+01,7.597627099999999627e-03
4.600000000000000000e+01,7.571428100000000307e-03
4.700000000000000000e+01,7.544860199999999656e-03
4.800000000000000000e+01,7.517861199999999883e-03
4.900000000000000000e+01,7.490478000000000067e-03
5.000000000000000000e+01,7.462724599999999778e-03
5.100000000000000000e+01,7.434628900000000290e-03
5.200000000000000000e+01,7.406212399999999828e-03
5.300000000000000000e+01,7.377496899999999753e-03
5.400000000000000000e+01,7.348500699999999802e-03
5.500000000000000000e+01,7.319240799999999700e-03
5.600000000000000000e+01,7.288852699999999983e-03
5.700000000000000000e+01,7.259724700000000190e-03
5.800000000000000000e+01,7.230226400000000324e-03
5.900000000000000000e+01,7.200508399999999698e-03
6.000000000000000000e+01,7.170499299999999986e-03
6.100000000000000000e+01,7.140240600000000160e-03
6.200000000000000000e+01,7.109736600000000385e-03
6.300000000000000000e+01,7.079008999999999822e-03
6.400000000000000000e+01,7.048069500000000293e-03
6.500000000000000000e+01,7.016933099999999972e-03
6.600000000000000000e+01,6.985610800000000009e-03
6.700000000000000000e+01,6.953254300000000394e-03
6.800000000000000000e+01,6.922229700000000034e-03
6.900000000000000000e+01,6.890875299999999967e-03
7.000000000000000000e+01,6.859355600000000344e-03
7.100000000000000000e+01,6.827597500000000090e-03
7.200000000000000000e+01,6.795639600000000224e-03
7.300000000000000000e+01,6.763484299999999831e-03
7.400000000000000000e+01,6.731150699999999786e-03
7.500000000000000000e+01,6.698647000000000282e-03
7.600000000000000000e+01,6.665985600000000344e-03
7.700000000000000000e+01,6.633174599999999699e-03
7.800000000000000000e+01,6.599440199999999888e-03
7.900000000000000000e+01,6.567079600000000177e-03
8.000000000000000000e+01,6.534369699999999746e-03
8.100000000000000000e+01,6.501504200000000032e-03
8.200000000000000000e+01,6.468407300000000339e-03
8.300000000000000000e+01,6.435124199999999600e-03
8.400000000000000000e+01,6.401656200000000428e-03
8.500000000000000000e+01,6.368021899999999624e-03
8.600000000000000000e+01,6.334228899999999780e-03
8.700000000000000000e+01,6.300288299999999911e-03
8.800000000000000000e+01,6.265393499999999914e-03
8.900000000000000000e+01,6.231837900000000360e-03
9.000000000000000000e+01,6.197949399999999609e-03
9.100000000000000000e+01,6.163915600000000050e-03
9.200000000000000000e+01,6.129658799999999907e-03
9.300000000000000000e+01,6.095219899999999684e-03
9.400000000000000000e+01,6.060597499999999770e-03
9.500000000000000000e+01,6.025808399999999822e-03
9.600000000000000000e+01,5.990857700000000279e-03
9.700000000000000000e+01,5.955086600000000265e-03
9.800000000000000000e+01,5.920533999999999866e-03
9.900000000000000000e+01,5.885605200000000418e-03
1.000000000000000000e+02,5.850503200000000022e-03
1.010000000000000000e+02,5.815159500000000037e-03
1.020000000000000000e+02,5.779616500000000177e-03
1.030000000000000000e+02,5.743874199999999576e-03
1.040000000000000000e+02,5.707948499999999752e-03
1.050000000000000000e+02,5.671844799999999943e-03
1.060000000000000000e+02,5.635571699999999615e-03
1.070000000000000000e+02,5.598374599999999916e-03
1.080000000000000000e+02,5.562518300000000339e-03
1.090000000000000000e+02,5.526243200000000196e-03
1.100000000000000000e+02,5.489773600000000080e-03
1.110000000000000000e+02,5.453028700000000194e-03
1.120000000000000000e+02,5.416055200000000416e-03
1.130000000000000000e+02,5.378850299999999793e-03
1.140000000000000000e+02,5.341430700000000115e-03
1.150000000000000000e+02,5.303800600000000212e-03
1.160000000000000000e+02,5.265199100000000389e-03
1.170000000000000000e+02,5.227837699999999740e-03
1.180000000000000000e+02,5.190036299999999971e-03
1.190000000000000000e+02,5.152011800000000016e-03
1.200000000000000000e+02,5.113682700000000275e-03
1.210000000000000000e+02,5.075092899999999671e-03
1.220000000000000000e+02,5.036235299999999686e-03
1.230000000000000000e+02,4.997125399999999967e-03
1.240000000000000000e+02,4.957151100000000386e-03
1.250000000000000000e+02,4.918239100000000065e-03
1.260000000000000000e+02,4.878813400000000210e-03
1.270000000000000000e+02,4.839102300000000176e-03
1.280000000000000000e+02,4.799033500000000028e-03
1.290000000000000000e+02,4.758649999999999686e-03
1.300000000000000000e+02,4.717947400000000249e-03
1.310000000000000000e+02,4.676937100000000402e-03
1.320000000000000000e+02,4.635618999999999677e-03
1.330000000000000000e+02,4.593260600000000256e-03
1.340000000000000000e+02,4.552063999999999763e-03
1.350000000000000000e+02,4.510256500000000418e-03
1.360000000000000000e+02,4.468092199999999965e-03
1.370000000000000000e+02,4.425481900000000079e-03
1.380000000000000000e+02,4.382472000000000104e-03
1.390000000000000000e+02,4.339051000000000019e-03
1.400000000000000000e+02,4.295229000000000234e-03
1.410000000000000000e+02,4.250277799999999627e-03
1.420000000000000000e+02,4.206300700000000295e-03
1.430000000000000000e+02,4.161620500000000160e-03
1.440000000000000000e+02,4.116479299999999814e-03
1.450000000000000000e+02,4.070784899999999908e-03
1.460000000000000000e+02,4.024574999999999854e-03
1.470000000000000000e+02,3.977830100000000375e-03
1.480000000000000000e+02,3.929913499999999893e-03
1.490000000000000000e+02,3.882727099999999914e-03
1.500000000000000000e+02,3.834678800000000057e-03
1.510000000000000000e+02,3.786019700000000082e-03
1.520000000000000000e+02,3.736658300000000009e-03
1.530000000000000000e+02,3.686627599999999817e-03
1.540000000000000000e+02,3.635905899999999913e-03
1.550000000000000000e+02,3.583801199999999808e-03
1.560000000000000000e+02,3.532282800000000143e-03
1.570000000000000000e+02,3.479730099999999923e-03
1.580000000000000000e+02,3.426412800000000047e-03
1.590000000000000000e+02,3.372243400000000165e-03
1.600000000000000000e+02,3.317270900000000074e-03
1.610000000000000000e+02,3.260899099999999863e-03
1.620000000000000000e+02,3.204873999999999917e-03
1.630000000000000000e+02,3.147752299999999857e-03
1.640000000000000000e+02,3.089837700000000031e-03
1.650000000000000000e+02,3.031087599999999788e-03
1.660000000000000000e+02,2.971589800000000014e-03
1.670000000000000000e+02,2.910735099999999832e-03
1.680000000000000000e+02,2.850356999999999977e-03
1.690000000000000000e+02,2.789043599999999935e-03
1.700000000000000000e+02,2.727144899999999796e-03
1.710000000000000000e+02,2.664644700000000106e-03
1.720000000000000000e+02,2.601010700000000193e-03
1.730000000000000000e+02,2.537983000000000166e-03
1.740000000000000000e+02,2.474251399999999931e-03
1.750000000000000000e+02,2.410157100000000045e-03
1.760000000000000000e+02,2.345682600000000180e-03
1.770000000000000000e+02,2.280924200000000214e-03
1.780000000000000000e+02,2.215155600000000106e-03
1.790000000000000000e+02,2.150278800000000098e-03
1.800000000000000000e+02,2.084866900000000196e-03
1.810000000000000000e+02,2.019271999999999907e-03
1.820000000000000000e+02,1.953444400000000063e-03
1.830000000000000000e+02,1.886650599999999903e-03
1.840000000000000000e+02,1.820778099999999927e-03
1.850000000000000000e+02,1.754454099999999944e-03
1.860000000000000000e+02,1.688035600000000044e-03
1.870000000000000000e+02,1.621467199999999985e-03
1.880000000000000000e+02,1.553909899999999893e-03
1.890000000000000000e+02,1.487396900000000077e-03
1.900000000000000000e+02,1.420523199999999993e-03
1.910000000000000000e+02,1.353691100000000000e-03
1.920000000000000000e+02,1.286821299999999944e-03
1.930000000000000000e+02,1.219040399999999930e-03
1.940000000000000000e+02,1.152589500000000041e-03
1.950000000000000000e+02,1.085955200000000061e-03
1.960000000000000000e+02,1.019625699999999937e-03
1.970000000000000000e+02,9.534890400000000212e-04
1.980000000000000000e+02,8.870156599999999688e-04
1.990000000000000000e+02,8.224613300000000078e-04
2.000000000000000000e+02,7.580450600000000283e-04
2.010000000000000000e+02,6.945665800000000445e-04
2.020000000000000000e+02,6.319131900000000057e-04
2.030000000000000000e+02,5.710006200000000177e-04
2.040000000000000000e+02,5.127447099999999638e-04
2.050000000000000000e+02,4.555067599999999980e-04
2.060000000000000000e+02,4.009229299999999782e-04
2.070000000000000000e+02,3.484861500000000075e-04
2.080000000000000000e+02,2.995165400000000073e-04
2.090000000000000000e+02,2.575009100000000208e-04
2.100000000000000000e+02,2.173774300000000056e-04
2.110000000000000000e+02,1.830745500000000004e-04
2.120000000000000000e+02,1.502592900000000059e-04
2.130000000000000000e+02,1.257350200000000029e-04
2.140000000000000000e+02,9.907355700000000198e-05
2.150000000000000000e+02,8.659207400000000282e-05
2.160000000000000000e+02,5.872237299999999818e-05
2.170000000000000000e+02,5.766142600000000103e-05
2.180000000000000000e+02,3.766894200000000273e-05
2.190000000000000000e+02,3.749173599999999730e-05
2.200000000000000000e+02,3.351891400000000018e-05
2.210000000000000000e+02,2.841012200000000114e-05
2.220000000000000000e+02,2.708194399999999937e-05
2.230000000000000000e+02,2.405582399999999996e-05
2.240000000000000000e+02,2.295346699999999943e-05
2.250000000000000000e+02,2.146918599999999940e-05
2.260000000000000000e+02,2.045626400000000083e-05
2.270000000000000000e+02,1.960493000000000137e-05
2.280000000000000000e+02,1.889923599999999870e-05
2.290000000000000000e+02,1.831474900000000004e-05
2.300000000000000000e+02,1.782398200000000156e-05
2.310000000000000000e+02,1.740642399999999887e-05
2.320000000000000000e+02,1.704831100000000083e-05
2.330000000000000000e+02,1.673854100000000126e-05
2.340000000000000000e+02,1.646769500000000124e-05
2.350000000000000000e+02,1.622915799999999882e-05
2.360000000000000000e+02,1.601759300000000146e-05
2.370000000000000000e+02,1.582834899999999959e-05
2.380000000000000000e+02,1.565805399999999921e-05
2.390000000000000000e+02,1.550395099999999856e-05
2.400000000000000000e+02,1.536358600000000148e-05
2.410000000000000000e+02,1.523512499999999925e-05
2.420000000000000000e+02,1.511703700000000066e-05
2.430000000000000000e+02,1.500795700000000001e-05
2.440000000000000000e+02,1.490680900000000061e-05
2.450000000000000000e+02,1.481268599999999969e-05
2.460000000000000000e+02,1.472476100000000002e-05
2.470000000000000000e+02,1.464237800000000044e-05
2.480000000000000000e+02,1.456497500000000025e-05
2.490000000000000000e+02,1.449203700000000072e-05
2.500000000000000000e+02,1.442314000000000028e-05
2.510000000000000000e+02,1.435791499999999956e-05
2.520000000000000000e+02,1.429602299999999958e-05
2.530000000000000000e+02,1.423718000000000012e-05
2.540000000000000000e+02,1.418113199999999967e-05
2.550000000000000000e+02,1.412764499999999982e-05
2.560000000000000000e+02,1.407652100000000061e-05
2.570000000000000000e+02,1.402758200000000010e-05
2.580000000000000000e+02,1.398066300000000028e-05
2.590000000000000000e+02,1.393561800000000011e-05
2.600000000000000000e+02,1.389231899999999942e-05
2.610000000000000000e+02,1.385064399999999952e-05
2.620000000000000000e+02,1.381048899999999923e-05
2.630000000000000000e+02,1.377175300000000062e-05
2.640000000000000000e+02,1.373435000000000005e-05
2.650000000000000000e+02,1.369819899999999932e-05
2.660000000000000000e+02,1.366322299999999947e-05
2.670000000000000000e+02,1.362935699999999935e-05
2.680000000000000000e+02,1.359653700000000057e-05
2.690000000000000000e+02,1.356470300000000063e-05
2.700000000000000000e+02,1.353380600000000051e-05
2.710000000000000000e+02,1.350379399999999961e-05
2.720000000000000000e+02,1.347462199999999989e-05
2.730000000000000000e+02,1.344624900000000083e-05
2.740000000000000000e+02,1.341863400000000025e-05
2.750000000000000000e+02,1.339174099999999969e-05
2.760000000000000000e+02,1.336553599999999949e-05
2.770000000000000000e+02,1.333998599999999937e-05
2.780000000000000000e+02,1.331506299999999941e-05
2.790000000000000000e+02,1.329074000000000076e-05
2.800000000000000000e+02,1.326698699999999963e-05
2.810000000000000000e+02,1.324378399999999971e-05
2.820000000000000000e+02,1.322110400000000046e-05
2.830000000000000000e+02,1.319892899999999927e-05
2.840000000000000000e+02,1.317723699999999935e-05
2.850000000000000000e+02,1.315600699999999989e-05
2.860000000000000000e+02,1.313522399999999986e-05
2.870000000000000000e+02,1.311487000000000002e-05
2.880000000000000000e+02,1.309492699999999945e-05
2.890000000000000000e+02,1.307538300000000037e-05
2.900000000000000000e+02,1.305622000000000016e-05
2.910000000000000000e+02,1.303742700000000043e-05
2.920000000000000000e+02,1.301898999999999950e-05
2.930000000000000000e+02,1.300089600000000022e-05
2.940000000000000000e+02,1.298313400000000077e-05
2.950000000000000000e+02,1.296569200000000000e-05
2.960000000000000000e+02,1.294856099999999998e-05
2.970000000000000000e+02,1.293172899999999953e-05
2.980000000000000000e+02,1.291518700000000073e-05
2.990000000000000000e+02,1.289892699999999997e-05
3.000000000000000000e+02,1.288293800000000056e-05
3.010000000000000000e+02,1.286721299999999996e-05
3.020000000000000000e+02,1.285174399999999965e-05
3.030000000000000000e+02,1.283652299999999941e-05
3.040000000000000000e+02,1.282154200000000071e-05
3.050000000000000000e+02,1.280679599999999982e-05
3.060000000000000000e+02,1.279227600000000051e-05
3.070000000000000000e+02,1.277797599999999965e-05
3.080000000000000000e+02,1.276389100000000027e-05
3.090000000000000000e+02,1.275001399999999986e-05
3.100000000000000000e+02,1.273633999999999976e-05
3.110000000000000000e+02,1.272286300000000023e-05
3.120000000000000000e+02,1.270957699999999983e-05
3.130000000000000000e+02,1.269647900000000038e-05
3.140000000000000000e+02,1.268356199999999937e-05
3.150000000000000000e+02,1.267082300000000030e-05
3.160000000000000000e+02,1.265825600000000005e-05
3.170000000000000000e+02,1.264585800000000045e-05
3.180000000000000000e+02,1.263362399999999944e-05
3.190000000000000000e+02,1.262154999999999946e-05
3.200000000000000000e+02,1.260963199999999955e-05
3.210000000000000000e+02,1.259786699999999984e-05
3.220000000000000000e+02,1.258625099999999938e-05
3.230000000000000000e+02,1.257477899999999950e-05
3.240000000000000000e+02,1.256345000000000081e-05
3.250000000000000000e+02,1.255225899999999958e-05
3.260000000000000000e+02,1.254120400000000042e-05
3.270000000000000000e+02,1.253028200000000005e-05
3.280000000000000000e+02,1.251948899999999922e-05
3.290000000000000000e+02,1.250882300000000084e-05
3.300000000000000000e+02,1.249828000000000055e-05
3.310000000000000000e+02,1.248785900000000068e-05
3.320000000000000000e+02,1.247755499999999916e-05
3.330000000000000000e+02,1.246736900000000047e-05
3.340000000000000000e+02,1.245729599999999919e-05
3.350000000000000000e+02,1.244733399999999991e-05
3.360000000000000000e+02,1.243748100000000046e-05
3.370000000000000000e+02,1.242773500000000037e-05
3.380000000000000000e+02,1.241809299999999976e-05
3.390000000000000000e+02,1.240855399999999924e-05
3.400000000000000000e+02,1.239911500000000063e-05
3.410000000000000000e+02,1.238977499999999946e-05
3.420000000000000000e+02,1.238053099999999925e-05
3.430000000000000000e+02,1.237138300000000000e-05
3.440000000000000000e+02,1.236232599999999965e-05
3.450000000000000000e+02,1.235336099999999931e-05
3.460000000000000000e+02,1.234448500000000078e-05
3.470000000000000000e+02,1.233569800000000069e-05
3.480000000000000000e+02,1.232699599999999977e-05
3.490000000000000000e+02,1.231837800000000032e-05
3.500000000000000000e+02,1.230984299999999957e-05
3.510000000000000000e+02,1.230139099999999919e-05
3.520000000000000000e+02,1.229301799999999994e-05
3.530000000000000000e+02,1.228472300000000073e-05
3.540000000000000000e+02,1.227650599999999986e-05
3.550000000000000000e+02,1.226836400000000084e-05
3.560000000000000000e+02,1.226029799999999969e-05
3.570000000000000000e+02,1.225230400000000052e-05
3.580000000000000000e+02,1.224438299999999935e-05
3.590000000000000000e+02,1.223653199999999969e-05
3.600000000000000000e+02,1.222875099999999984e-05
3.610000000000000000e+02,1.222103900000000041e-05
3.620000000000000000e+02,1.221339200000000045e-05
3.630000000000000000e+02,1.220581399999999921e-05
3.640000000000000000e+02,1.219829900000000035e-05
3.650000000000000000e+02,1.219085000000000035e-05
3.660000000000000000e+02,1.218346299999999994e-05
3.670000000000000000e+02,1.217613900000000021e-05
3.680000000000000000e+02,1.216887400000000021e-05
3.690000000000000000e+02,1.216167099999999979e-05
3.700000000000000000e+02,1.215452599999999971e-05
3.710000000000000000e+02,1.214743999999999935e-05
3.720000000000000000e+02,1.214041199999999932e-05
3.730000000000000000e+02,1.213344000000000084e-05
3.740000000000000000e+02,1.212652299999999943e-05
3.750000000000000000e+02,1.211966100000000017e-05
3.760000000000000000e+02,1.211285300000000029e-05
3.770000000000000000e+02,1.210609899999999978e-05
3.780000000000000000e+02,1.209939600000000046e-05
3.790000000000000000e+02,1.209274599999999943e-05
3.800000000000000000e+02,1.208614699999999960e-05
3.810000000000000000e+02,1.207959799999999988e-05
3.820000000000000000e+02,1.207309699999999978e-05
3.830000000000000000e+02,1.206664599999999980e-05
3.840000000000000000e+02,1.206024299999999945e-05
3.850000000000000000e+02,1.205388699999999934e-05
3.860000000000000000e+02,1.204757799999999946e-05
3.870000000000000000e+02,1.204131500000000043e-05
3.880000000000000000e+02,1.203509699999999947e-05
3.890000000000000000e+02,1.202892399999999996e-05
3.900000000000000000e+02,1.202279600000000021e-05
3.910000000000000000e+02,1.201671099999999974e-05
3.920000000000000000e+02,1.201066900000000025e-05
3.930000000000000000e+02,1.200467000000000004e-05
3.940000000000000000e+02,1.199871299999999972e-05
3.950000000000000000e+02,1.199279600000000050e-05
3.960000000000000000e+02,1.198692099999999948e-05
3.970000000000000000e+02,1.198108599999999956e-05
3.980000000000000000e+02,1.197528999999999965e-05
3.990000000000000000e+02,1.196953399999999916e-05
