# Time [s], Thickness [m]
1.000000000000000000e+00,8.000000400000000303e-03
2.000000000000000000e+00,8.000000400000000303e-03
3.000000000000000000e+00,8.000000400000000303e-03
4.000000000000000000e+00,8.000000400000000303e-03
5.000000000000000000e+00,8.000000400000000303e-03
6.000000000000000000e+00,8.000000400000000303e-03
7.000000000000000000e+00,8.000000400000000303e-03
8.000000000000000000e+00,8.000000400000000303e-03
9.000000000000000000e+00,8.000000400000000303e-03
1.000000000000000000e+01,8.000000400000000303e-03
1.100000000000000000e+01,8.000000400000000303e-03
1.200000000000000000e+01,8.000000400000000303e-03
1.300000000000000000e+01,8.000000400000000303e-03
1.400000000000000000e+01,8.000000400000000303e-03
1.500000000000000000e+01,8.000000400000000303e-03
1.600000000000000000e+01,8.000000400000000303e-03
1.700000000000000000e+01,7.999999400000000829e-03
1.800000000000000000e+01,7.999999400000000829e-03
1.900000000000000000e+01,7.999999400000000829e-03
2.000000000000000000e+01,7.999999400000000829e-03
2.100000000000000000e+01,7.999999400000000829e-03
2.200000000000000000e+01,7.999999400000000829e-03
2.300000000000000000e+01,7.999998499999999221e-03
2.400000000000000000e+01,7.999997599999999348e-03
2.500000000000000000e+01,7.999996699999999475e-03
2.600000000000000000e+01,7.999995700000000001e-03
2.700000000000000000e+01,7.999993900000000255e-03
2.800000000000000000e+01,7.999991099999999300e-03
2.900000000000000000e+01,7.999988300000000080e-03
3.000000000000000000e+01,7.999984499999999651e-03
3.100000000000000000e+01,7.999979900000000685e-03
3.200000000000000000e+01,7.999973400000000637e-03
3.300000000000000000e+01,7.999964999999999507e-03
3.400000000000000000e+01,7.999954700000000765e-03
3.500000000000000000e+01,7.999942600000000542e-03
3.600000000000000000e+01,7.999926799999999491e-03
3.700000000000000000e+01,7.999908199999999220e-03
3.800000000000000000e+01,7.999884900000000382e-03
3.900000000000000000e+01,7.999857900000000716e-03
4.000000000000000000e+01,7.999825299999999140e-03
4.100000000000000000e+01,7.999785199999999777e-03
4.200000000000000000e+01,7.999739599999999839e-03
4.300000000000000000e+01,7.999684700000000634e-03
4.400000000000000000e+01,7.999620400000000825e-03
4.500000000000000000e+01,7.999545900000000140e-03
4.600000000000000000e+01,7.999458399999999358e-03
4.700000000000000000e+01,7.999358700000000488e-03
4.800000000000000000e+01,7.999242300000000694e-03
4.900000000000000000e+01,7.999110000000000248e-03
5.000000000000000000e+01,7.998957299999999784e-03
5.100000000000000000e+01,7.998784999999999576e-03
5.200000000000000000e+01,7.998588500000000656e-03
5.300000000000000000e+01,7.998365900000000209e-03
5.400000000000000000e+01,7.998116300000000095e-03
5.500000000000000000e+01,7.997835099999999614e-03
5.600000000000000000e+01,7.997519300000000345e-03
5.700000000000000000e+01,7.997168199999999880e-03
5.800000000000000000e+01,7.996776100000000179e-03
5.900000000000000000e+01,7.996341199999999760e-03
6.000000000000000000e+01,7.995858800000000058e-03
6.100000000000000000e+01,7.995326999999999990e-03
6.200000000000000000e+01,7.994741200000000589e-03
6.300000000000000000e+01,7.994097699999999293e-03
6.400000000000000000e+01,7.993391699999999669e-03
6.500000000000000000e+01,7.992620599999999964e-03
6.600000000000000000e+01,7.991780500000000148e-03
6.700000000000000000e+01,7.990864999999999774e-03
6.800000000000000000e+01,7.989872199999999494e-03
6.900000000000000000e+01,7.988797500000000343e-03
7.000000000000000000e+01,7.987636100000000683e-03
7.100000000000000000e+01,7.986384399999999287e-03
7.200000000000000000e+01,7.985037800000000657e-03
7.300000000000000000e+01,7.983592299999999961e-03
7.400000000000000000e+01,7.982044500000000375e-03
7.500000000000000000e+01,7.980389500000000663e-03
7.600000000000000000e+01,7.978623699999999597e-03
7.700000000000000000e+01,7.976743399999999817e-03
7.800000000000000000e+01,7.974746600000000643e-03
7.900000000000000000e+01,7.972627899999999365e-03
8.000000000000000000e+01,7.970385300000000506e-03
8.100000000000000000e+01,7.968015999999999641e-03
8.200000000000000000e+01,7.965516299999999411e-03
8.300000000000000000e+01,7.962883500000000198e-03
8.400000000000000000e+01,7.960116499999999456e-03
8.500000000000000000e+01,7.957213600000000511e-03
8.600000000000000000e+01,7.954170899999999864e-03
8.700000000000000000e+01,7.950989500000000057e-03
8.800000000000000000e+01,7.947665600000000663e-03
8.900000000000000000e+01,7.944199299999999547e-03
9.000000000000000000e+01,7.940589499999999371e-03
9.100000000000000000e+01,7.936835300000000260e-03
9.200000000000000000e+01,7.932937699999999953e-03
9.300000000000000000e+01,7.928894800000000839e-03
9.400000000000000000e+01,7.924706700000000784e-03
9.500000000000000000e+01,7.920375099999999932e-03
9.600000000000000000e+01,7.915899199999999747e-03
9.700000000000000000e+01,7.911279800000000501e-03
9.800000000000000000e+01,7.906517000000000059e-03
9.900000000000000000e+01,7.901612699999999503e-03
1.000000000000000000e+02,7.896567700000000842e-03
1.010000000000000000e+02,7.891446400000000014e-03
1.020000000000000000e+02,7.886202999999999616e-03
1.030000000000000000e+02,7.880830199999999328e-03
1.040000000000000000e+02,7.875324200000000455e-03
1.050000000000000000e+02,7.869685100000000863e-03
1.060000000000000000e+02,7.863911799999999744e-03
1.070000000000000000e+02,7.858007199999999387e-03
1.080000000000000000e+02,7.851971299999999793e-03
1.090000000000000000e+02,7.845804099999999226e-03
1.100000000000000000e+02,7.839509300000000250e-03
1.110000000000000000e+02,7.833085999999999521e-03
1.120000000000000000e+02,7.826537800000000003e-03
1.130000000000000000e+02,7.819865800000000769e-03
1.140000000000000000e+02,7.813070899999999958e-03
1.150000000000000000e+02,7.806155399999999654e-03
1.160000000000000000e+02,7.799121099999999605e-03
1.170000000000000000e+02,7.791969000000000152e-03
1.180000000000000000e+02,7.784701399999999910e-03
1.190000000000000000e+02,7.777320199999999961e-03
1.200000000000000000e+02,7.769826799999999915e-03
1.210000000000000000e+02,7.762222600000000250e-03
1.220000000000000000e+02,7.754509799999999980e-03
1.230000000000000000e+02,7.746689499999999916e-03
1.240000000000000000e+02,7.738763499999999802e-03
1.250000000000000000e+02,7.730733099999999650e-03
1.260000000000000000e+02,7.722600399999999740e-03
1.270000000000000000e+02,7.714365600000000142e-03
1.280000000000000000e+02,7.706031200000000407e-03
1.290000000000000000e+02,7.697598499999999677e-03
1.300000000000000000e+02,7.689068999999999765e-03
1.310000000000000000e+02,7.680443599999999676e-03
1.320000000000000000e+02,7.671723600000000289e-03
1.330000000000000000e+02,7.662910499999999944e-03
1.340000000000000000e+02,7.654005200000000252e-03
1.350000000000000000e+02,7.645009099999999953e-03
1.360000000000000000e+02,7.635922600000000053e-03
1.370000000000000000e+02,7.626748200000000102e-03
1.380000000000000000e+02,7.617485700000000033e-03
1.390000000000000000e+02,7.608136599999999923e-03
1.400000000000000000e+02,7.598702300000000250e-03
1.410000000000000000e+02,7.589183299999999882e-03
1.420000000000000000e+02,7.579580399999999961e-03
1.430000000000000000e+02,7.569894199999999823e-03
1.440000000000000000e+02,7.560126500000000083e-03
1.450000000000000000e+02,7.550277299999999872e-03
1.460000000000000000e+02,7.540347999999999669e-03
1.470000000000000000e+02,7.530339100000000077e-03
1.480000000000000000e+02,7.520169000000000159e-03
1.490000000000000000e+02,7.509990099999999842e-03
1.500000000000000000e+02,7.499773999999999850e-03
1.510000000000000000e+02,7.489507099999999883e-03
1.520000000000000000e+02,7.479180600000000408e-03
1.530000000000000000e+02,7.468788900000000383e-03
1.540000000000000000e+02,7.458328699999999985e-03
1.550000000000000000e+02,7.447796399999999720e-03
1.560000000000000000e+02,7.437191400000000251e-03
1.570000000000000000e+02,7.426512399999999833e-03
1.580000000000000000e+02,7.415757999999999725e-03
1.590000000000000000e+02,7.404928600000000062e-03
1.600000000000000000e+02,7.394023700000000240e-03
1.610000000000000000e+02,7.383043399999999860e-03
1.620000000000000000e+02,7.371987699999999789e-03
1.630000000000000000e+02,7.360857000000000164e-03
1.640000000000000000e+02,7.349651300000000116e-03
1.650000000000000000e+02,7.338371100000000251e-03
1.660000000000000000e+02,7.327016399999999700e-03
1.670000000000000000e+02,7.315588199999999673e-03
1.680000000000000000e+02,7.304086300000000101e-03
1.690000000000000000e+02,7.292510900000000185e-03
1.700000000000000000e+02,7.280862899999999797e-03
1.710000000000000000e+02,7.269142200000000206e-03
1.720000000000000000e+02,7.257349300000000281e-03
1.730000000000000000e+02,7.245484699999999757e-03
1.740000000000000000e+02,7.233548900000000108e-03
1.750000000000000000e+02,7.221541799999999997e-03
1.760000000000000000e+02,7.209463999999999630e-03
1.770000000000000000e+02,7.197314899999999668e-03
1.780000000000000000e+02,7.185095899999999723e-03
1.790000000000000000e+02,7.172806700000000125e-03
1.800000000000000000e+02,7.160383700000000004e-03
1.810000000000000000e+02,7.147957600000000127e-03
1.820000000000000000e+02,7.135498799999999940e-03
1.830000000000000000e+02,7.122993499999999943e-03
1.840000000000000000e+02,7.110433200000000273e-03
1.850000000000000000e+02,7.097811400000000014e-03
1.860000000000000000e+02,7.085124499999999673e-03
1.870000000000000000e+02,7.072370500000000303e-03
1.880000000000000000e+02,7.059546699999999682e-03
1.890000000000000000e+02,7.046652500000000208e-03
1.900000000000000000e+02,7.033687099999999873e-03
1.910000000000000000e+02,7.020649999999999807e-03
1.920000000000000000e+02,7.007540199999999671e-03
1.930000000000000000e+02,6.994357799999999931e-03
1.940000000000000000e+02,6.981103199999999856e-03
1.950000000000000000e+02,6.967776000000000178e-03
1.960000000000000000e+02,6.954376100000000428e-03
1.970000000000000000e+02,6.940903600000000208e-03
1.980000000000000000e+02,6.927358500000000384e-03
1.990000000000000000e+02,6.913741600000000362e-03
2.000000000000000000e+02,6.900052099999999869e-03
2.010000000000000000e+02,6.886290399999999909e-03
2.020000000000000000e+02,6.872456499999999614e-03
2.030000000000000000e+02,6.858550899999999589e-03
2.040000000000000000e+02,6.844573700000000302e-03
2.050000000000000000e+02,6.830524699999999949e-03
2.060000000000000000e+02,6.816403500000000129e-03
2.070000000000000000e+02,6.802155600000000038e-03
2.080000000000000000e+02,6.787900300000000026e-03
2.090000000000000000e+02,6.773608700000000211e-03
2.100000000000000000e+02,6.759265900000000285e-03
2.110000000000000000e+02,6.744863499999999984e-03
2.120000000000000000e+02,6.730395400000000264e-03
2.130000000000000000e+02,6.715857399999999693e-03
2.140000000000000000e+02,6.701247799999999859e-03
2.150000000000000000e+02,6.686564499999999613e-03
2.160000000000000000e+02,6.671805900000000143e-03
2.170000000000000000e+02,6.656971799999999648e-03
2.180000000000000000e+02,6.642060800000000251e-03
2.190000000000000000e+02,6.627073500000000422e-03
2.200000000000000000e+02,6.612008400000000084e-03
2.210000000000000000e+02,6.596866100000000309e-03
2.220000000000000000e+02,6.581646400000000161e-03
2.230000000000000000e+02,6.566349400000000107e-03
2.240000000000000000e+02,6.550974200000000275e-03
2.250000000000000000e+02,6.535521199999999933e-03
2.260000000000000000e+02,6.519991000000000154e-03
2.270000000000000000e+02,6.504382500000000129e-03
2.280000000000000000e+02,6.488696700000000199e-03
2.290000000000000000e+02,6.472932600000000022e-03
2.300000000000000000e+02,6.457090399999999668e-03
2.310000000000000000e+02,6.441119599999999695e-03
2.320000000000000000e+02,6.425133000000000406e-03
2.330000000000000000e+02,6.409101700000000186e-03
2.340000000000000000e+02,6.393011199999999727e-03
2.350000000000000000e+02,6.376852700000000367e-03
2.360000000000000000e+02,6.360620299999999658e-03
2.370000000000000000e+02,6.344310500000000311e-03
2.380000000000000000e+02,6.327920600000000104e-03
2.390000000000000000e+02,6.311448800000000157e-03
2.400000000000000000e+02,6.294893999999999663e-03
2.410000000000000000e+02,6.278255499999999684e-03
2.420000000000000000e+02,6.261532700000000014e-03
2.430000000000000000e+02,6.244725100000000050e-03
2.440000000000000000e+02,6.227831799999999918e-03
2.450000000000000000e+02,6.210853300000000222e-03
2.460000000000000000e+02,6.193789199999999960e-03
2.470000000000000000e+02,6.176639299999999930e-03
2.480000000000000000e+02,6.159403800000000199e-03
2.490000000000000000e+02,6.142082600000000302e-03
2.500000000000000000e+02,6.124674800000000363e-03
2.510000000000000000e+02,6.107181799999999994e-03
2.520000000000000000e+02,6.089602099999999983e-03
2.530000000000000000e+02,6.071886500000000034e-03
2.540000000000000000e+02,6.054145300000000028e-03
2.550000000000000000e+02,6.036349600000000086e-03
2.560000000000000000e+02,6.018484900000000033e-03
2.570000000000000000e+02,6.000543500000000280e-03
2.580000000000000000e+02,5.982518699999999842e-03
2.590000000000000000e+02,5.964407700000000367e-03
2.600000000000000000e+02,5.946208300000000238e-03
2.610000000000000000e+02,5.927918499999999639e-03
2.620000000000000000e+02,5.909537000000000297e-03
2.630000000000000000e+02,5.891063299999999871e-03
2.640000000000000000e+02,5.872497299999999629e-03
2.650000000000000000e+02,5.853838299999999766e-03
2.660000000000000000e+02,5.835086100000000213e-03
2.670000000000000000e+02,5.816241300000000308e-03
2.680000000000000000e+02,5.797302800000000110e-03
2.690000000000000000e+02,5.778271700000000427e-03
2.700000000000000000e+02,5.759147499999999788e-03
2.710000000000000000e+02,5.739930600000000063e-03
2.720000000000000000e+02,5.720589800000000155e-03
2.730000000000000000e+02,5.701209900000000358e-03
2.740000000000000000e+02,5.681763900000000138e-03
2.750000000000000000e+02,5.662239200000000403e-03
2.760000000000000000e+02,5.642628799999999632e-03
2.770000000000000000e+02,5.622927599999999991e-03
2.780000000000000000e+02,5.603133199999999793e-03
2.790000000000000000e+02,5.583244400000000364e-03
2.800000000000000000e+02,5.563259600000000291e-03
2.810000000000000000e+02,5.543178900000000041e-03
2.820000000000000000e+02,5.523001799999999878e-03
2.830000000000000000e+02,5.502728699999999938e-03
2.840000000000000000e+02,5.482359800000000290e-03
2.850000000000000000e+02,5.461894899999999997e-03
2.860000000000000000e+02,5.441335500000000006e-03
2.870000000000000000e+02,5.420681099999999711e-03
2.880000000000000000e+02,5.399933099999999590e-03
2.890000000000000000e+02,5.379091499999999644e-03
2.900000000000000000e+02,5.358123700000000031e-03
2.910000000000000000e+02,5.337115400000000051e-03
2.920000000000000000e+02,5.316041399999999785e-03
2.930000000000000000e+02,5.294888700000000004e-03
2.940000000000000000e+02,5.273651300000000396e-03
2.950000000000000000e+02,5.252325399999999665e-03
2.960000000000000000e+02,5.230908700000000064e-03
2.970000000000000000e+02,5.209400799999999720e-03
2.980000000000000000e+02,5.187800600000000428e-03
2.990000000000000000e+02,5.166108699999999790e-03
3.000000000000000000e+02,5.144325100000000407e-03
3.010000000000000000e+02,5.122451099999999688e-03
3.020000000000000000e+02,5.100487699999999708e-03
3.030000000000000000e+02,5.078435400000000204e-03
3.040000000000000000e+02,5.056295100000000181e-03
3.050000000000000000e+02,5.034068600000000254e-03
3.060000000000000000e+02,5.011756400000000160e-03
3.070000000000000000e+02,4.989325999999999657e-03
3.080000000000000000e+02,4.966862499999999576e-03
3.090000000000000000e+02,4.944340799999999599e-03
3.100000000000000000e+02,4.921750199999999978e-03
3.110000000000000000e+02,4.899084100000000198e-03
3.120000000000000000e+02,4.876340300000000377e-03
3.130000000000000000e+02,4.853516799999999833e-03
3.140000000000000000e+02,4.830614199999999636e-03
3.150000000000000000e+02,4.807631500000000314e-03
3.160000000000000000e+02,4.784570099999999743e-03
3.170000000000000000e+02,4.761431400000000133e-03
3.180000000000000000e+02,4.738215799999999887e-03
3.190000000000000000e+02,4.714925299999999687e-03
3.200000000000000000e+02,4.691561700000000147e-03
3.210000000000000000e+02,4.668125000000000399e-03
3.220000000000000000e+02,4.644618399999999800e-03
3.230000000000000000e+02,4.621008400000000370e-03
3.240000000000000000e+02,4.597378400000000191e-03
3.250000000000000000e+02,4.573704199999999685e-03
3.260000000000000000e+02,4.549975999999999847e-03
3.270000000000000000e+02,4.526188100000000034e-03
3.280000000000000000e+02,4.502338399999999963e-03
3.290000000000000000e+02,4.478425700000000093e-03
3.300000000000000000e+02,4.454450199999999624e-03
3.310000000000000000e+02,4.430411799999999824e-03
3.320000000000000000e+02,4.406312499999999639e-03
3.330000000000000000e+02,4.382152999999999743e-03
3.340000000000000000e+02,4.357934899999999813e-03
3.350000000000000000e+02,4.333659099999999723e-03
3.360000000000000000e+02,4.309327800000000222e-03
3.370000000000000000e+02,4.284942100000000385e-03
3.380000000000000000e+02,4.260470199999999777e-03
3.390000000000000000e+02,4.235991700000000387e-03
3.400000000000000000e+02,4.211484899999999587e-03
3.410000000000000000e+02,4.186938500000000028e-03
3.420000000000000000e+02,4.162348800000000015e-03
3.430000000000000000e+02,4.137713000000000328e-03
3.440000000000000000e+02,4.113029699999999622e-03
3.450000000000000000e+02,4.088299800000000372e-03
3.460000000000000000e+02,4.063522899999999841e-03
3.470000000000000000e+02,4.038700800000000375e-03
3.480000000000000000e+02,4.013834499999999715e-03
3.490000000000000000e+02,3.988924900000000336e-03
3.500000000000000000e+02,3.963973400000000112e-03
3.510000000000000000e+02,3.938981799999999658e-03
3.520000000000000000e+02,3.913917099999999864e-03
3.530000000000000000e+02,3.888856899999999870e-03
3.540000000000000000e+02,3.863779400000000048e-03
3.550000000000000000e+02,3.838674900000000126e-03
3.560000000000000000e+02,3.813538699999999802e-03
3.570000000000000000e+02,3.788368500000000028e-03
3.580000000000000000e+02,3.763162999999999925e-03
3.590000000000000000e+02,3.737922299999999962e-03
3.600000000000000000e+02,3.712647099999999943e-03
3.610000000000000000e+02,3.687337699999999972e-03
3.620000000000000000e+02,3.661995099999999954e-03
3.630000000000000000e+02,3.636620000000000130e-03
3.640000000000000000e+02,3.611214199999999812e-03
3.650000000000000000e+02,3.585778400000000105e-03
3.660000000000000000e+02,3.560271800000000108e-03
3.670000000000000000e+02,3.534780600000000158e-03
3.680000000000000000e+02,3.509281899999999819e-03
3.690000000000000000e+02,3.483766000000000120e-03
3.700000000000000000e+02,3.458227500000000086e-03
3.710000000000000000e+02,3.432663600000000065e-03
3.720000000000000000e+02,3.407073200000000114e-03
3.730000000000000000e+02,3.381455499999999961e-03
3.740000000000000000e+02,3.355810900000000176e-03
3.750000000000000000e+02,3.330140100000000131e-03
3.760000000000000000e+02,3.304443599999999995e-03
3.770000000000000000e+02,3.278722300000000076e-03
3.780000000000000000e+02,3.252976800000000144e-03
3.790000000000000000e+02,3.227208300000000175e-03
3.800000000000000000e+02,3.201365700000000092e-03
3.810000000000000000e+02,3.175545699999999909e-03
3.820000000000000000e+02,3.149725300000000023e-03
3.830000000000000000e+02,3.123893200000000051e-03
3.840000000000000000e+02,3.098044299999999987e-03
3.850000000000000000e+02,3.072175400000000042e-03
3.860000000000000000e+02,3.046284900000000104e-03
3.870000000000000000e+02,3.020372500000000071e-03
3.880000000000000000e+02,2.994438199999999942e-03
3.890000000000000000e+02,2.968482000000000152e-03
3.900000000000000000e+02,2.942505099999999808e-03
3.910000000000000000e+02,2.916507699999999845e-03
3.920000000000000000e+02,2.890490700000000138e-03
3.930000000000000000e+02,2.864455299999999795e-03
3.940000000000000000e+02,2.838337800000000077e-03
3.950000000000000000e+02,2.812248199999999899e-03
3.960000000000000000e+02,2.786162100000000048e-03
3.970000000000000000e+02,2.760068999999999977e-03
3.980000000000000000e+02,2.733962400000000074e-03
3.990000000000000000e+02,2.707839699999999884e-03
