# Time [s], Mass [Kg]
1.000000000000000000e+00,9.821874549759174178e-02
2.000000000000000000e+00,9.821874549758517758e-02
3.000000000000000000e+00,9.821874549757488027e-02
4.000000000000000000e+00,9.821874549755578443e-02
5.000000000000000000e+00,9.821874549751755112e-02
6.000000000000000000e+00,9.821874549744054328e-02
7.000000000000000000e+00,9.821874549728974724e-02
8.000000000000000000e+00,9.821874549700584933e-02
9.000000000000000000e+00,9.821874549649264874e-02
1.000000000000000000e+01,9.821874549559989065e-02
1.100000000000000000e+01,9.821874549410032629e-02
1.200000000000000000e+01,9.821874549166015322e-02
1.300000000000000000e+01,9.821874548780146208e-02
1.400000000000000000e+01,9.821874548185419163e-02
1.500000000000000000e+01,9.821874547289784207e-02
1.600000000000000000e+01,9.821874545969049020e-02
1.700000000000000000e+01,9.821874544058371848e-02
1.800000000000000000e+01,9.821874541342097420e-02
1.900000000000000000e+01,9.821874537541967765e-02
2.000000000000000000e+01,9.821874532303075112e-02
2.100000000000000000e+01,9.821874525177995419e-02
2.200000000000000000e+01,9.821874515608086664e-02
2.300000000000000000e+01,9.821874502903750470e-02
2.400000000000000000e+01,9.821874486219907274e-02
2.500000000000000000e+01,9.821874464531608895e-02
2.600000000000000000e+01,9.821874436603916791e-02
2.700000000000000000e+01,9.821874400957505968e-02
2.800000000000000000e+01,9.821874355830047254e-02
2.900000000000000000e+01,9.821874299143837361e-02
3.000000000000000000e+01,9.821874228467239454e-02
3.100000000000000000e+01,9.821874140951077081e-02
3.200000000000000000e+01,9.821874033281799421e-02
3.300000000000000000e+01,9.821873901643544957e-02
3.400000000000000000e+01,9.821873741647364764e-02
3.500000000000000000e+01,9.821873548260529052e-02
3.600000000000000000e+01,9.821873315751014633e-02
3.700000000000000000e+01,9.821873037602189827e-02
3.800000000000000000e+01,9.821872706437530243e-02
3.900000000000000000e+01,9.821872313941949761e-02
4.000000000000000000e+01,9.821871850785345026e-02
4.100000000000000000e+01,9.821871306510560062e-02
4.200000000000000000e+01,9.821870669436939816e-02
4.300000000000000000e+01,9.821869926601954626e-02
4.400000000000000000e+01,9.821869063586524673e-02
4.500000000000000000e+01,9.821868064417119126e-02
4.600000000000000000e+01,9.821866911480169049e-02
4.700000000000000000e+01,9.821865585407719978e-02
4.800000000000000000e+01,9.821864064939969663e-02
4.900000000000000000e+01,9.821862326764368989e-02
5.000000000000000000e+01,9.821860345362769251e-02
5.100000000000000000e+01,9.821858092873270163e-02
5.200000000000000000e+01,9.821855538976870248e-02
5.300000000000000000e+01,9.821852650810070084e-02
5.400000000000000000e+01,9.821849392649670274e-02
5.500000000000000000e+01,9.821845725860268994e-02
5.600000000000000000e+01,9.821841608760019382e-02
5.700000000000000000e+01,9.821836996276420151e-02
5.800000000000000000e+01,9.821831839903269468e-02
5.900000000000000000e+01,9.821826087386670290e-02
6.000000000000000000e+01,9.821819682655019701e-02
6.100000000000000000e+01,9.821812565897120040e-02
6.200000000000000000e+01,9.821804672829269334e-02
6.300000000000000000e+01,9.821795934470219092e-02
6.400000000000000000e+01,9.821786277532219833e-02
6.500000000000000000e+01,9.821775624005719962e-02
6.600000000000000000e+01,9.821763891045219574e-02
6.700000000000000000e+01,9.821750990426719730e-02
6.800000000000000000e+01,9.821736827871720144e-02
6.900000000000000000e+01,9.821721303669719849e-02
7.000000000000000000e+01,9.821704312479719035e-02
7.100000000000000000e+01,9.821685742663720242e-02
7.200000000000000000e+01,9.821665475997219674e-02
7.300000000000000000e+01,9.821643387825719496e-02
7.400000000000000000e+01,9.821619347063219319e-02
7.500000000000000000e+01,9.821593215184719339e-02
7.600000000000000000e+01,9.821564846375720192e-02
7.700000000000000000e+01,9.821534087598719764e-02
7.800000000000000000e+01,9.821500776779219788e-02
7.900000000000000000e+01,9.821464744711219663e-02
8.000000000000000000e+01,9.821425814454219638e-02
8.100000000000000000e+01,9.821383799851220175e-02
8.200000000000000000e+01,9.821338506428720083e-02
8.300000000000000000e+01,9.821289729792219425e-02
8.400000000000000000e+01,9.821237258252218938e-02
8.500000000000000000e+01,9.821180869120219037e-02
8.600000000000000000e+01,9.821120330338720117e-02
8.700000000000000000e+01,9.821055400335219898e-02
8.800000000000000000e+01,9.820985825939219926e-02
8.900000000000000000e+01,9.820911346292220123e-02
9.000000000000000000e+01,9.820831689155219701e-02
9.100000000000000000e+01,9.820746569666718995e-02
9.200000000000000000e+01,9.820655694137719882e-02
9.300000000000000000e+01,9.820558758302719293e-02
9.400000000000000000e+01,9.820455443117719063e-02
9.500000000000000000e+01,9.820345419237719309e-02
9.600000000000000000e+01,9.820228348462720080e-02
9.700000000000000000e+01,9.820103880367719862e-02
9.800000000000000000e+01,9.819971650987720235e-02
9.900000000000000000e+01,9.819831283082719464e-02
1.000000000000000000e+02,9.819682389482720097e-02
1.010000000000000000e+02,9.819524569582720186e-02
1.020000000000000000e+02,9.819357411137719094e-02
1.030000000000000000e+02,9.819180490607719303e-02
1.040000000000000000e+02,9.818993367772720082e-02
1.050000000000000000e+02,9.818795589187719053e-02
1.060000000000000000e+02,9.818586692872720290e-02
1.070000000000000000e+02,9.818366204707719425e-02
1.080000000000000000e+02,9.818133637237719258e-02
1.090000000000000000e+02,9.817888493077719936e-02
1.100000000000000000e+02,9.817630259752720134e-02
1.110000000000000000e+02,9.817358411407720031e-02
1.120000000000000000e+02,9.817072407552719648e-02
1.130000000000000000e+02,9.816771694817719163e-02
1.140000000000000000e+02,9.816455706672719272e-02
1.150000000000000000e+02,9.816123865162719453e-02
1.160000000000000000e+02,9.815775584397719300e-02
1.170000000000000000e+02,9.815410264122718942e-02
1.180000000000000000e+02,9.815027294597719609e-02
1.190000000000000000e+02,9.814626053687719454e-02
1.200000000000000000e+02,9.814205909152719232e-02
1.210000000000000000e+02,9.813766219497720156e-02
1.220000000000000000e+02,9.813306327147719443e-02
1.230000000000000000e+02,9.812825573072719854e-02
1.240000000000000000e+02,9.812323291652719215e-02
1.250000000000000000e+02,9.811798788852719999e-02
1.260000000000000000e+02,9.811251371202719951e-02
1.270000000000000000e+02,9.810680346297719068e-02
1.280000000000000000e+02,9.810084991942719101e-02
1.290000000000000000e+02,9.809464582932719834e-02
1.300000000000000000e+02,9.808818399127719467e-02
1.310000000000000000e+02,9.808145718887720244e-02
1.320000000000000000e+02,9.807445800372720235e-02
1.330000000000000000e+02,9.806717905062720120e-02
1.340000000000000000e+02,9.805961289717719798e-02
1.350000000000000000e+02,9.805175195607719607e-02
1.360000000000000000e+02,9.804358864562719156e-02
1.370000000000000000e+02,9.803511550507719441e-02
1.380000000000000000e+02,9.802632490092719197e-02
1.390000000000000000e+02,9.801720912752719117e-02
1.400000000000000000e+02,9.800776074277720018e-02
1.410000000000000000e+02,9.799797202662720308e-02
1.420000000000000000e+02,9.798783533452719297e-02
1.430000000000000000e+02,9.797734313702718967e-02
1.440000000000000000e+02,9.796648776002719883e-02
1.450000000000000000e+02,9.795526182602719290e-02
1.460000000000000000e+02,9.794365785802719437e-02
1.470000000000000000e+02,9.793166823052719405e-02
1.480000000000000000e+02,9.791928556452719756e-02
1.490000000000000000e+02,9.790650262752720323e-02
1.500000000000000000e+02,9.789331203552720240e-02
1.510000000000000000e+02,9.787970652252719894e-02
1.520000000000000000e+02,9.786567907252718967e-02
1.530000000000000000e+02,9.785122257652720257e-02
1.540000000000000000e+02,9.783633008802719577e-02
1.550000000000000000e+02,9.782099473702719761e-02
1.560000000000000000e+02,9.780520979552718985e-02
1.570000000000000000e+02,9.778896858452719443e-02
1.580000000000000000e+02,9.777226458352719640e-02
1.590000000000000000e+02,9.775509150152719706e-02
1.600000000000000000e+02,9.773744298702718991e-02
1.610000000000000000e+02,9.771931296152719382e-02
1.620000000000000000e+02,9.770069551702720290e-02
1.630000000000000000e+02,9.768158460602720250e-02
1.640000000000000000e+02,9.766197435352719225e-02
1.650000000000000000e+02,9.764185925252719112e-02
1.660000000000000000e+02,9.762123422052719490e-02
1.670000000000000000e+02,9.760009408952718957e-02
1.680000000000000000e+02,9.757843371002719590e-02
1.690000000000000000e+02,9.755624827152720169e-02
1.700000000000000000e+02,9.753353290902719297e-02
1.710000000000000000e+02,9.751028305402720253e-02
1.720000000000000000e+02,9.748649433202719039e-02
1.730000000000000000e+02,9.746216237402720306e-02
1.740000000000000000e+02,9.743728302802719121e-02
1.750000000000000000e+02,9.741185263502719072e-02
1.760000000000000000e+02,9.738586768152719675e-02
1.770000000000000000e+02,9.735932470552720319e-02
1.780000000000000000e+02,9.733222036852719194e-02
1.790000000000000000e+02,9.730455137802719590e-02
1.800000000000000000e+02,9.727631458102720119e-02
1.810000000000000000e+02,9.724750703952719788e-02
1.820000000000000000e+02,9.721812616252720196e-02
1.830000000000000000e+02,9.718816942652719337e-02
1.840000000000000000e+02,9.715763452202719197e-02
1.850000000000000000e+02,9.712651951152719010e-02
1.860000000000000000e+02,9.709482256152719704e-02
1.870000000000000000e+02,9.706254169602719639e-02
1.880000000000000000e+02,9.702967523602719357e-02
1.890000000000000000e+02,9.699622178352719504e-02
1.900000000000000000e+02,9.696217969452719521e-02
1.910000000000000000e+02,9.692754759652719154e-02
1.920000000000000000e+02,9.689232444402719191e-02
1.930000000000000000e+02,9.685650905252719822e-02
1.940000000000000000e+02,9.682010066252719205e-02
1.950000000000000000e+02,9.678309882702719469e-02
1.960000000000000000e+02,9.674550281952719322e-02
1.970000000000000000e+02,9.670731210602719063e-02
1.980000000000000000e+02,9.666864684452719514e-02
1.990000000000000000e+02,9.662951896302719723e-02
2.000000000000000000e+02,9.658981644302719327e-02
2.010000000000000000e+02,9.654953337202719366e-02
2.020000000000000000e+02,9.650866535802719859e-02
2.030000000000000000e+02,9.646720936752720132e-02
2.040000000000000000e+02,9.642516357852719266e-02
2.050000000000000000e+02,9.638252663102719886e-02
2.060000000000000000e+02,9.633929733302719345e-02
2.070000000000000000e+02,9.629547520402718941e-02
2.080000000000000000e+02,9.625105990152720004e-02
2.090000000000000000e+02,9.620605120202720129e-02
2.100000000000000000e+02,9.616044912352719742e-02
2.110000000000000000e+02,9.611425389702719924e-02
2.120000000000000000e+02,9.606746622952719306e-02
2.130000000000000000e+02,9.602008608602718986e-02
2.140000000000000000e+02,9.597211405702719966e-02
2.150000000000000000e+02,9.592355090902719705e-02
2.160000000000000000e+02,9.587439742352719951e-02
2.170000000000000000e+02,9.582465462902720055e-02
2.180000000000000000e+02,9.577432364502719286e-02
2.190000000000000000e+02,9.572340548802719951e-02
2.200000000000000000e+02,9.567190097152719619e-02
2.210000000000000000e+02,9.561981135002720067e-02
2.220000000000000000e+02,9.556713747052719699e-02
2.230000000000000000e+02,9.551388064502719377e-02
2.240000000000000000e+02,9.546004221802720235e-02
2.250000000000000000e+02,9.540562303202719530e-02
2.260000000000000000e+02,9.535062448702719129e-02
2.270000000000000000e+02,9.529504761052719208e-02
2.280000000000000000e+02,9.523889363752718884e-02
2.290000000000000000e+02,9.518216397802720108e-02
2.300000000000000000e+02,9.512485975902719437e-02
2.310000000000000000e+02,9.506698240802718969e-02
2.320000000000000000e+02,9.500853310502720139e-02
2.330000000000000000e+02,9.494951288902719888e-02
2.340000000000000000e+02,9.488992334052719080e-02
2.350000000000000000e+02,9.482976569452719606e-02
2.360000000000000000e+02,9.476904096052719828e-02
2.370000000000000000e+02,9.470775053852720227e-02
2.380000000000000000e+02,9.464589598202718945e-02
2.390000000000000000e+02,9.458347828552719772e-02
2.400000000000000000e+02,9.452049825402719652e-02
2.410000000000000000e+02,9.445695780002719144e-02
2.420000000000000000e+02,9.439285805252720096e-02
2.430000000000000000e+02,9.432819991652720282e-02
2.440000000000000000e+02,9.426298489952719684e-02
2.450000000000000000e+02,9.419721378452719507e-02
2.460000000000000000e+02,9.413088742052719282e-02
2.470000000000000000e+02,9.406400719302719649e-02
2.480000000000000000e+02,9.399657462252719586e-02
2.490000000000000000e+02,9.392859036852720112e-02
2.500000000000000000e+02,9.386005496602720100e-02
2.510000000000000000e+02,9.379096939652720177e-02
2.520000000000000000e+02,9.372133526002719706e-02
2.530000000000000000e+02,9.365115365852719198e-02
2.540000000000000000e+02,9.358042520452719559e-02
2.550000000000000000e+02,9.350915074552719475e-02
2.560000000000000000e+02,9.343733115302720049e-02
2.570000000000000000e+02,9.336496740052720178e-02
2.580000000000000000e+02,9.329205990002720217e-02
2.590000000000000000e+02,9.321860928202720109e-02
2.600000000000000000e+02,9.314461708802719564e-02
2.610000000000000000e+02,9.307008413402720337e-02
2.620000000000000000e+02,9.299501057702719287e-02
2.630000000000000000e+02,9.291940351852719104e-02
2.640000000000000000e+02,9.284329836452719087e-02
2.650000000000000000e+02,9.276671663802719958e-02
2.660000000000000000e+02,9.268964566702719843e-02
2.670000000000000000e+02,9.261207592802719879e-02
2.680000000000000000e+02,9.253399990002719733e-02
2.690000000000000000e+02,9.245541145052720011e-02
2.700000000000000000e+02,9.237630597802719279e-02
2.710000000000000000e+02,9.229668036552719779e-02
2.720000000000000000e+02,9.221653169452719012e-02
2.730000000000000000e+02,9.213585668802719286e-02
2.740000000000000000e+02,9.205465310502719545e-02
2.750000000000000000e+02,9.197291927852720150e-02
2.760000000000000000e+02,9.189065368252719024e-02
2.770000000000000000e+02,9.180785556002719894e-02
2.780000000000000000e+02,9.172452373902720280e-02
2.790000000000000000e+02,9.164065677652719066e-02
2.800000000000000000e+02,9.155625419302719503e-02
2.810000000000000000e+02,9.147131527152720099e-02
2.820000000000000000e+02,9.138583961202720318e-02
2.830000000000000000e+02,9.129982687152719822e-02
2.840000000000000000e+02,9.121327621202719727e-02
2.850000000000000000e+02,9.112618736302718903e-02
2.860000000000000000e+02,9.103856017252719146e-02
2.870000000000000000e+02,9.095039418752719207e-02
2.880000000000000000e+02,9.086168973202719823e-02
2.890000000000000000e+02,9.077244655802720052e-02
2.900000000000000000e+02,9.068266371552718974e-02
2.910000000000000000e+02,9.059234131552719449e-02
2.920000000000000000e+02,9.050147912302719533e-02
2.930000000000000000e+02,9.041007698952718830e-02
2.940000000000000000e+02,9.031813530052719419e-02
2.950000000000000000e+02,9.022565363252720017e-02
2.960000000000000000e+02,9.013263149252720430e-02
2.970000000000000000e+02,9.003906869752720254e-02
2.980000000000000000e+02,8.994496492402720422e-02
2.990000000000000000e+02,8.985032006102719460e-02
3.000000000000000000e+02,8.975513419102719437e-02
3.010000000000000000e+02,8.965940761652720081e-02
3.020000000000000000e+02,8.956314005502719056e-02
3.030000000000000000e+02,8.946633104802720338e-02
3.040000000000000000e+02,8.936898020202720117e-02
3.050000000000000000e+02,8.927108732402719293e-02
3.060000000000000000e+02,8.917268095752720058e-02
3.070000000000000000e+02,8.907379251502720030e-02
3.080000000000000000e+02,8.897441730752719824e-02
3.090000000000000000e+02,8.887454173152720127e-02
3.100000000000000000e+02,8.877415559152719571e-02
3.110000000000000000e+02,8.867325111152719874e-02
3.120000000000000000e+02,8.857182192152719680e-02
3.130000000000000000e+02,8.846986290152719645e-02
3.140000000000000000e+02,8.836736978652719177e-02
3.150000000000000000e+02,8.826433925152719906e-02
3.160000000000000000e+02,8.816076814652719362e-02
3.170000000000000000e+02,8.805665407652719934e-02
3.180000000000000000e+02,8.795199574652719232e-02
3.190000000000000000e+02,8.784679102652720450e-02
3.200000000000000000e+02,8.774103812152719839e-02
3.210000000000000000e+02,8.763473561152719526e-02
3.220000000000000000e+02,8.752788233152719588e-02
3.230000000000000000e+02,8.742047752652720716e-02
3.240000000000000000e+02,8.731252045152719521e-02
3.250000000000000000e+02,8.720401048652720588e-02
3.260000000000000000e+02,8.709494757152720645e-02
3.270000000000000000e+02,8.698533157652720005e-02
3.280000000000000000e+02,8.687516174152720705e-02
3.290000000000000000e+02,8.676443740652720060e-02
3.300000000000000000e+02,8.665315854152720598e-02
3.310000000000000000e+02,8.654132522652720205e-02
3.320000000000000000e+02,8.642893721652719630e-02
3.330000000000000000e+02,8.631599461152719699e-02
3.340000000000000000e+02,8.620249739152720247e-02
3.350000000000000000e+02,8.608844629152720418e-02
3.360000000000000000e+02,8.597384149152720312e-02
3.370000000000000000e+02,8.585868258152720700e-02
3.380000000000000000e+02,8.574296979652720752e-02
3.390000000000000000e+02,8.562670331152720526e-02
3.400000000000000000e+02,8.550988347652720145e-02
3.410000000000000000e+02,8.539255108652719917e-02
3.420000000000000000e+02,8.527473520652720240e-02
3.430000000000000000e+02,8.515641644652720277e-02
3.440000000000000000e+02,8.503758206652720086e-02
3.450000000000000000e+02,8.491822347652720759e-02
3.460000000000000000e+02,8.479833405652720257e-02
3.470000000000000000e+02,8.467790905152719483e-02
3.480000000000000000e+02,8.455694447152720117e-02
3.490000000000000000e+02,8.443543706152720207e-02
3.500000000000000000e+02,8.431338457652720608e-02
3.510000000000000000e+02,8.419078563152719574e-02
3.520000000000000000e+02,8.406763933152719415e-02
3.530000000000000000e+02,8.394394465652720017e-02
3.540000000000000000e+02,8.381970133652720534e-02
3.550000000000000000e+02,8.369490945152720240e-02
3.560000000000000000e+02,8.356956917652720584e-02
3.570000000000000000e+02,8.344368086652720340e-02
3.580000000000000000e+02,8.331724566652720654e-02
3.590000000000000000e+02,8.319026440152720026e-02
3.600000000000000000e+02,8.306273744152720129e-02
3.610000000000000000e+02,8.293466590652720516e-02
3.620000000000000000e+02,8.280605097152719807e-02
3.630000000000000000e+02,8.267689421152719931e-02
3.640000000000000000e+02,8.254719711652719338e-02
3.650000000000000000e+02,8.241696092152719921e-02
3.660000000000000000e+02,8.228618745152720126e-02
3.670000000000000000e+02,8.215487860652720409e-02
3.680000000000000000e+02,8.202303611652719817e-02
3.690000000000000000e+02,8.189066239652720292e-02
3.700000000000000000e+02,8.175775932152720693e-02
3.710000000000000000e+02,8.162437857152719800e-02
3.720000000000000000e+02,8.149054665152720422e-02
3.730000000000000000e+02,8.135623340152720040e-02
3.740000000000000000e+02,8.122142931152720458e-02
3.750000000000000000e+02,8.108612785652720423e-02
3.760000000000000000e+02,8.095032495152720831e-02
3.770000000000000000e+02,8.081401776152720429e-02
3.780000000000000000e+02,8.067720473152720229e-02
3.790000000000000000e+02,8.053988521652720445e-02
3.800000000000000000e+02,8.040205931152720475e-02
3.810000000000000000e+02,8.026372798652720020e-02
3.820000000000000000e+02,8.012489246652720887e-02
3.830000000000000000e+02,7.998555405652719996e-02
3.840000000000000000e+02,7.984571492652720037e-02
3.850000000000000000e+02,7.970537736652720529e-02
3.860000000000000000e+02,7.956454375152720304e-02
3.870000000000000000e+02,7.942321683652719955e-02
3.880000000000000000e+02,7.928139920152721398e-02
3.890000000000000000e+02,7.913909378652721205e-02
3.900000000000000000e+02,7.899630363152720935e-02
3.910000000000000000e+02,7.885303189652720368e-02
3.920000000000000000e+02,7.870928213652721162e-02
3.930000000000000000e+02,7.856505788652720645e-02
3.940000000000000000e+02,7.842036266152721535e-02
3.950000000000000000e+02,7.827520014152720973e-02
3.960000000000000000e+02,7.812957395152721196e-02
3.970000000000000000e+02,7.798354616152720908e-02
3.980000000000000000e+02,7.783714134652720829e-02
3.990000000000000000e+02,7.769031893652721121e-02
