# Time [s], Mass [Kg]
1.000000000000000000e+00,9.821874549759998518e-02
2.000000000000000000e+00,9.821874549759998518e-02
3.000000000000000000e+00,9.821874549759997131e-02
4.000000000000000000e+00,9.821874549759992967e-02
5.000000000000000000e+00,9.821874549759980477e-02
6.000000000000000000e+00,9.821874549759937456e-02
7.000000000000000000e+00,9.821874549759815332e-02
8.000000000000000000e+00,9.821874549759498918e-02
9.000000000000000000e+00,9.821874549758750905e-02
1.000000000000000000e+01,9.821874549757093897e-02
1.100000000000000000e+01,9.821874549753642492e-02
1.200000000000000000e+01,9.821874549746816008e-02
1.300000000000000000e+01,9.821874549733919380e-02
1.400000000000000000e+01,9.821874549710515878e-02
1.500000000000000000e+01,9.821874549669536159e-02
1.600000000000000000e+01,9.821874549600040361e-02
1.700000000000000000e+01,9.821874549485523631e-02
1.800000000000000000e+01,9.821874549301672086e-02
1.900000000000000000e+01,9.821874549013402678e-02
2.000000000000000000e+01,9.821874548571063457e-02
2.100000000000000000e+01,9.821874547905606878e-02
2.200000000000000000e+01,9.821874546922550187e-02
2.300000000000000000e+01,9.821874545494491127e-02
2.400000000000000000e+01,9.821874543451984685e-02
2.500000000000000000e+01,9.821874540572519963e-02
2.600000000000000000e+01,9.821874536567266889e-02
2.700000000000000000e+01,9.821874531065430403e-02
2.800000000000000000e+01,9.821874523595858220e-02
2.900000000000000000e+01,9.821874513565446996e-02
3.000000000000000000e+01,9.821874500234312189e-02
3.100000000000000000e+01,9.821874482687278918e-02
3.200000000000000000e+01,9.821874459800977730e-02
3.300000000000000000e+01,9.821874430206892215e-02
3.400000000000000000e+01,9.821874392249686780e-02
3.500000000000000000e+01,9.821874343939665519e-02
3.600000000000000000e+01,9.821874282900712461e-02
3.700000000000000000e+01,9.821874206312510014e-02
3.800000000000000000e+01,9.821874110844946992e-02
3.900000000000000000e+01,9.821873992587926150e-02
4.000000000000000000e+01,9.821873846974506217e-02
4.100000000000000000e+01,9.821873668693986703e-02
4.200000000000000000e+01,9.821873451600821037e-02
4.300000000000000000e+01,9.821873188616037087e-02
4.400000000000000000e+01,9.821872871615766609e-02
4.500000000000000000e+01,9.821872491317056031e-02
4.600000000000000000e+01,9.821872037155451873e-02
4.700000000000000000e+01,9.821871497146396346e-02
4.800000000000000000e+01,9.821870857745881866e-02
4.900000000000000000e+01,9.821870103702336208e-02
5.000000000000000000e+01,9.821869217886386449e-02
5.100000000000000000e+01,9.821868181127237085e-02
5.200000000000000000e+01,9.821866972040137200e-02
5.300000000000000000e+01,9.821865566821236238e-02
5.400000000000000000e+01,9.821863939058686488e-02
5.500000000000000000e+01,9.821862059534836042e-02
5.600000000000000000e+01,9.821859895985386724e-02
5.700000000000000000e+01,9.821857412885535987e-02
5.800000000000000000e+01,9.821854571227386921e-02
5.900000000000000000e+01,9.821851328241186507e-02
6.000000000000000000e+01,9.821847637158986899e-02
6.100000000000000000e+01,9.821843446969585889e-02
6.200000000000000000e+01,9.821838702102786423e-02
6.300000000000000000e+01,9.821833342170185888e-02
6.400000000000000000e+01,9.821827301697585999e-02
6.500000000000000000e+01,9.821820509758787121e-02
6.600000000000000000e+01,9.821812889710886119e-02
6.700000000000000000e+01,9.821804358922286982e-02
6.800000000000000000e+01,9.821794828348887063e-02
6.900000000000000000e+01,9.821784202260885888e-02
7.000000000000000000e+01,9.821772377962387224e-02
7.100000000000000000e+01,9.821759245320386966e-02
7.200000000000000000e+01,9.821744686485886500e-02
7.300000000000000000e+01,9.821728575609386946e-02
7.400000000000000000e+01,9.821710778318386292e-02
7.500000000000000000e+01,9.821691151444386647e-02
7.600000000000000000e+01,9.821669542743886872e-02
7.700000000000000000e+01,9.821645790333886905e-02
7.800000000000000000e+01,9.821619722419885901e-02
7.900000000000000000e+01,9.821591157017386942e-02
8.000000000000000000e+01,9.821559901298886064e-02
8.100000000000000000e+01,9.821525751389387215e-02
8.200000000000000000e+01,9.821488492156386918e-02
8.300000000000000000e+01,9.821447896444886194e-02
8.400000000000000000e+01,9.821403724917386613e-02
8.500000000000000000e+01,9.821355725886886379e-02
8.600000000000000000e+01,9.821303634486885925e-02
8.700000000000000000e+01,9.821247172557386051e-02
8.800000000000000000e+01,9.821186048524886691e-02
8.900000000000000000e+01,9.821119956506886572e-02
9.000000000000000000e+01,9.821048576267886465e-02
9.100000000000000000e+01,9.820971573170386715e-02
9.200000000000000000e+01,9.820888597245386320e-02
9.300000000000000000e+01,9.820799283194386886e-02
9.400000000000000000e+01,9.820703250386386696e-02
9.500000000000000000e+01,9.820600101761886580e-02
9.600000000000000000e+01,9.820489424076886409e-02
9.700000000000000000e+01,9.820370788131886630e-02
9.800000000000000000e+01,9.820243747446887050e-02
9.900000000000000000e+01,9.820107838651886967e-02
1.000000000000000000e+02,9.819962581846886085e-02
1.010000000000000000e+02,9.819807479211886680e-02
1.020000000000000000e+02,9.819642015526885981e-02
1.030000000000000000e+02,9.819465658661886975e-02
1.040000000000000000e+02,9.819277858111886970e-02
1.050000000000000000e+02,9.819078045701885860e-02
1.060000000000000000e+02,9.818865636261886465e-02
1.070000000000000000e+02,9.818640026151886913e-02
1.080000000000000000e+02,9.818400594066886700e-02
1.090000000000000000e+02,9.818146701806886034e-02
1.100000000000000000e+02,9.817877692516886745e-02
1.110000000000000000e+02,9.817592892026887064e-02
1.120000000000000000e+02,9.817291610121886558e-02
1.130000000000000000e+02,9.816973138346886396e-02
1.140000000000000000e+02,9.816636751606885869e-02
1.150000000000000000e+02,9.816281709701886460e-02
1.160000000000000000e+02,9.815907255041886326e-02
1.170000000000000000e+02,9.815512614461886776e-02
1.180000000000000000e+02,9.815097000971886865e-02
1.190000000000000000e+02,9.814659611376887194e-02
1.200000000000000000e+02,9.814199628386886809e-02
1.210000000000000000e+02,9.813716222621886309e-02
1.220000000000000000e+02,9.813208550286886545e-02
1.230000000000000000e+02,9.812675755356886631e-02
1.240000000000000000e+02,9.812116971656886788e-02
1.250000000000000000e+02,9.811534007031887106e-02
1.260000000000000000e+02,9.810926706086886551e-02
1.270000000000000000e+02,9.810291968596886181e-02
1.280000000000000000e+02,9.809628519036886485e-02
1.290000000000000000e+02,9.808935257711887123e-02
1.300000000000000000e+02,9.808211154261886611e-02
1.310000000000000000e+02,9.807455207106886841e-02
1.320000000000000000e+02,9.806666431876887025e-02
1.330000000000000000e+02,9.805843856501886280e-02
1.340000000000000000e+02,9.804986512801885934e-02
1.350000000000000000e+02,9.804093437411887102e-02
1.360000000000000000e+02,9.803163673451886773e-02
1.370000000000000000e+02,9.802196265561886890e-02
1.380000000000000000e+02,9.801190262676887088e-02
1.390000000000000000e+02,9.800144720676887133e-02
1.400000000000000000e+02,9.799058697476886737e-02
1.410000000000000000e+02,9.797931257476887035e-02
1.420000000000000000e+02,9.796761475426886412e-02
1.430000000000000000e+02,9.795548430476887225e-02
1.440000000000000000e+02,9.794291210926886482e-02
1.450000000000000000e+02,9.792988918426887013e-02
1.460000000000000000e+02,9.791640661876886698e-02
1.470000000000000000e+02,9.790245562176887184e-02
1.480000000000000000e+02,9.788802756526886195e-02
1.490000000000000000e+02,9.787311391926886706e-02
1.500000000000000000e+02,9.785770630076887078e-02
1.510000000000000000e+02,9.784179651776886422e-02
1.520000000000000000e+02,9.782537650526886008e-02
1.530000000000000000e+02,9.780843836976886585e-02
1.540000000000000000e+02,9.779097442826886755e-02
1.550000000000000000e+02,9.777297713276886237e-02
1.560000000000000000e+02,9.775443912826886628e-02
1.570000000000000000e+02,9.773535330476885996e-02
1.580000000000000000e+02,9.771571270276886712e-02
1.590000000000000000e+02,9.769551057176886766e-02
1.600000000000000000e+02,9.767474042076886021e-02
1.610000000000000000e+02,9.765339592276886527e-02
1.620000000000000000e+02,9.763147097076886605e-02
1.630000000000000000e+02,9.760895972476886506e-02
1.640000000000000000e+02,9.758585651626885960e-02
1.650000000000000000e+02,9.756215590176886554e-02
1.660000000000000000e+02,9.753785270926886020e-02
1.670000000000000000e+02,9.751294194626886069e-02
1.680000000000000000e+02,9.748741884576886396e-02
1.690000000000000000e+02,9.746127890576886110e-02
1.700000000000000000e+02,9.743451778476885927e-02
1.710000000000000000e+02,9.740713136476886191e-02
1.720000000000000000e+02,9.737911580576887050e-02
1.730000000000000000e+02,9.735046742076886028e-02
1.740000000000000000e+02,9.732118273876887160e-02
1.750000000000000000e+02,9.729125855676885870e-02
1.760000000000000000e+02,9.726069181726886004e-02
1.770000000000000000e+02,9.722947966676886988e-02
1.780000000000000000e+02,9.719761950426886177e-02
1.790000000000000000e+02,9.716510886276887027e-02
1.800000000000000000e+02,9.713194546526886242e-02
1.810000000000000000e+02,9.709812727176886371e-02
1.820000000000000000e+02,9.706365236826886012e-02
1.830000000000000000e+02,9.702851901426887138e-02
1.840000000000000000e+02,9.699272568126886263e-02
1.850000000000000000e+02,9.695627093426886778e-02
1.860000000000000000e+02,9.691915349826886461e-02
1.870000000000000000e+02,9.688137231126886517e-02
1.880000000000000000e+02,9.684292638726886560e-02
1.890000000000000000e+02,9.680381488226887099e-02
1.900000000000000000e+02,9.676403714576886639e-02
1.910000000000000000e+02,9.672359258926886694e-02
1.920000000000000000e+02,9.668248074776886192e-02
1.930000000000000000e+02,9.664070132876886876e-02
1.940000000000000000e+02,9.659825408576885875e-02
1.950000000000000000e+02,9.655513887776887016e-02
1.960000000000000000e+02,9.651135571726886242e-02
1.970000000000000000e+02,9.646690465526885916e-02
1.980000000000000000e+02,9.642178583126886915e-02
1.990000000000000000e+02,9.637599951226887007e-02
2.000000000000000000e+02,9.632954597276886799e-02
2.010000000000000000e+02,9.628242556326886692e-02
2.020000000000000000e+02,9.623463876476887058e-02
2.030000000000000000e+02,9.618618605226886276e-02
2.040000000000000000e+02,9.613706796176886560e-02
2.050000000000000000e+02,9.608728514326886350e-02
2.060000000000000000e+02,9.603683823226887017e-02
2.070000000000000000e+02,9.598572791126885884e-02
2.080000000000000000e+02,9.593395495926886063e-02
2.090000000000000000e+02,9.588152013176887145e-02
2.100000000000000000e+02,9.582842421926886234e-02
2.110000000000000000e+02,9.577466809526886948e-02
2.120000000000000000e+02,9.572025260676886305e-02
2.130000000000000000e+02,9.566517862526886795e-02
2.140000000000000000e+02,9.560944708626886723e-02
2.150000000000000000e+02,9.555305887576887036e-02
2.160000000000000000e+02,9.549601489826886613e-02
2.170000000000000000e+02,9.543831612976887147e-02
2.180000000000000000e+02,9.537996349026886533e-02
2.190000000000000000e+02,9.532095790976886918e-02
2.200000000000000000e+02,9.526130038076886797e-02
2.210000000000000000e+02,9.520099183676886123e-02
2.220000000000000000e+02,9.514003321326885976e-02
2.230000000000000000e+02,9.507842549626886741e-02
2.240000000000000000e+02,9.501616961026886077e-02
2.250000000000000000e+02,9.495326647626886607e-02
2.260000000000000000e+02,9.488971705776887144e-02
2.270000000000000000e+02,9.482552226026887132e-02
2.280000000000000000e+02,9.476068297926885931e-02
2.290000000000000000e+02,9.469520013976887030e-02
2.300000000000000000e+02,9.462907459176886360e-02
2.310000000000000000e+02,9.456230717476886427e-02
2.320000000000000000e+02,9.449489876976886749e-02
2.330000000000000000e+02,9.442685018026886201e-02
2.340000000000000000e+02,9.435816219526886595e-02
2.350000000000000000e+02,9.428883563976886428e-02
2.360000000000000000e+02,9.421887126326886075e-02
2.370000000000000000e+02,9.414826979676886587e-02
2.380000000000000000e+02,9.407703199926886750e-02
2.390000000000000000e+02,9.400515855476886118e-02
2.400000000000000000e+02,9.393242942626886527e-02
2.410000000000000000e+02,9.385899434376886175e-02
2.420000000000000000e+02,9.378516860176885905e-02
2.430000000000000000e+02,9.371086669276885994e-02
2.440000000000000000e+02,9.363603883776885906e-02
2.450000000000000000e+02,9.356065267526886275e-02
2.460000000000000000e+02,9.348468550376887176e-02
2.470000000000000000e+02,9.340812104726886611e-02
2.480000000000000000e+02,9.333094727776886090e-02
2.490000000000000000e+02,9.325315522026886295e-02
2.500000000000000000e+02,9.317473815526886027e-02
2.510000000000000000e+02,9.309569095726887011e-02
2.520000000000000000e+02,9.301600973326887289e-02
2.530000000000000000e+02,9.293569156676886878e-02
2.540000000000000000e+02,9.285473422376887276e-02
2.550000000000000000e+02,9.277313602926887115e-02
2.560000000000000000e+02,9.269089577526887225e-02
2.570000000000000000e+02,9.260801256126886816e-02
2.580000000000000000e+02,9.252448575226886185e-02
2.590000000000000000e+02,9.244031494426886708e-02
2.600000000000000000e+02,9.235549985476887436e-02
2.610000000000000000e+02,9.227004032776886522e-02
2.620000000000000000e+02,9.218393633576886514e-02
2.630000000000000000e+02,9.209718788326887173e-02
2.640000000000000000e+02,9.200979502826886480e-02
2.650000000000000000e+02,9.192175789926887441e-02
2.660000000000000000e+02,9.183307661026886282e-02
2.670000000000000000e+02,9.174375129076886570e-02
2.680000000000000000e+02,9.165378210926886093e-02
2.690000000000000000e+02,9.156316919276887012e-02
2.700000000000000000e+02,9.147191266326887282e-02
2.710000000000000000e+02,9.138001266626886998e-02
2.720000000000000000e+02,9.128746929526886100e-02
2.730000000000000000e+02,9.119428262676887442e-02
2.740000000000000000e+02,9.110045274876886479e-02
2.750000000000000000e+02,9.100597967776886954e-02
2.760000000000000000e+02,9.091086341026886897e-02
2.770000000000000000e+02,9.081510396326886170e-02
2.780000000000000000e+02,9.071870127926887073e-02
2.790000000000000000e+02,9.062165527876886451e-02
2.800000000000000000e+02,9.052396589826887385e-02
2.810000000000000000e+02,9.042563300226887091e-02
2.820000000000000000e+02,9.032665643126887300e-02
2.830000000000000000e+02,9.022703603876887357e-02
2.840000000000000000e+02,9.012677160676886567e-02
2.850000000000000000e+02,9.002586289676886566e-02
2.860000000000000000e+02,8.992430968676887182e-02
2.870000000000000000e+02,8.982195121176886343e-02
2.880000000000000000e+02,8.971892560176886189e-02
2.890000000000000000e+02,8.961547675176886885e-02
2.900000000000000000e+02,8.951151878176887011e-02
2.910000000000000000e+02,8.940700171676886632e-02
2.920000000000000000e+02,8.930189352176887141e-02
2.930000000000000000e+02,8.919617196676886406e-02
2.940000000000000000e+02,8.908982126676887048e-02
2.950000000000000000e+02,8.898282996176887227e-02
2.960000000000000000e+02,8.887518955676887433e-02
2.970000000000000000e+02,8.876689369176886391e-02
2.980000000000000000e+02,8.865793760176886307e-02
2.990000000000000000e+02,8.854831764176886166e-02
3.000000000000000000e+02,8.843803103676886601e-02
3.010000000000000000e+02,8.832707568676886889e-02
3.020000000000000000e+02,8.821544995676885992e-02
3.030000000000000000e+02,8.810315259676886057e-02
3.040000000000000000e+02,8.799018267176886288e-02
3.050000000000000000e+02,8.787653943676886070e-02
3.060000000000000000e+02,8.776222231676886198e-02
3.070000000000000000e+02,8.764723090676886097e-02
3.080000000000000000e+02,8.753156487676887199e-02
3.090000000000000000e+02,8.741522397676887435e-02
3.100000000000000000e+02,8.729820805176886911e-02
3.110000000000000000e+02,8.718051696676887286e-02
3.120000000000000000e+02,8.706215063176886426e-02
3.130000000000000000e+02,8.694310901676886860e-02
3.140000000000000000e+02,8.682339209176886952e-02
3.150000000000000000e+02,8.670299985676886700e-02
3.160000000000000000e+02,8.658193235676886479e-02
3.170000000000000000e+02,8.646018963176886618e-02
3.180000000000000000e+02,8.633777175176886309e-02
3.190000000000000000e+02,8.621467883676886546e-02
3.200000000000000000e+02,8.609091098676886766e-02
3.210000000000000000e+02,8.596646832676886618e-02
3.220000000000000000e+02,8.584135104676886285e-02
3.230000000000000000e+02,8.571543347176886762e-02
3.240000000000000000e+02,8.558884190676886716e-02
3.250000000000000000e+02,8.546177612176886207e-02
3.260000000000000000e+02,8.533415458676886500e-02
3.270000000000000000e+02,8.520593067176886193e-02
3.280000000000000000e+02,8.507707533676886480e-02
3.290000000000000000e+02,8.494756911676887290e-02
3.300000000000000000e+02,8.481739881676886306e-02
3.310000000000000000e+02,8.468655541676886611e-02
3.320000000000000000e+02,8.455503276176887240e-02
3.330000000000000000e+02,8.442282674176886104e-02
3.340000000000000000e+02,8.428993475676886671e-02
3.350000000000000000e+02,8.415635528176887425e-02
3.360000000000000000e+02,8.402208762176886780e-02
3.370000000000000000e+02,8.388713175176887304e-02
3.380000000000000000e+02,8.375148811176887087e-02
3.390000000000000000e+02,8.361515751676887320e-02
3.400000000000000000e+02,8.347814112676886500e-02
3.410000000000000000e+02,8.334044033176886412e-02
3.420000000000000000e+02,8.320205672176886336e-02
3.430000000000000000e+02,8.306299209176887244e-02
3.440000000000000000e+02,8.292324836676887023e-02
3.450000000000000000e+02,8.278282760176886024e-02
3.460000000000000000e+02,8.264173200176887224e-02
3.470000000000000000e+02,8.249996386676886062e-02
3.480000000000000000e+02,8.235752559676887130e-02
3.490000000000000000e+02,8.221441971676886340e-02
3.500000000000000000e+02,8.207064882176887122e-02
3.510000000000000000e+02,8.192621560676886794e-02
3.520000000000000000e+02,8.178112289676886526e-02
3.530000000000000000e+02,8.163527674176887516e-02
3.540000000000000000e+02,8.148879250176886690e-02
3.550000000000000000e+02,8.134183346176887541e-02
3.560000000000000000e+02,8.119432656176886476e-02
3.570000000000000000e+02,8.104623187176887567e-02
3.580000000000000000e+02,8.089752620676887718e-02
3.590000000000000000e+02,8.074819543676886591e-02
3.600000000000000000e+02,8.059823133176886867e-02
3.610000000000000000e+02,8.044762955176887331e-02
3.620000000000000000e+02,8.029638840676886491e-02
3.630000000000000000e+02,8.014450809176887347e-02
3.640000000000000000e+02,7.999199018176886278e-02
3.650000000000000000e+02,7.983883723676887811e-02
3.660000000000000000e+02,7.968505256676887416e-02
3.670000000000000000e+02,7.953064007176886829e-02
3.680000000000000000e+02,7.937560407176887101e-02
3.690000000000000000e+02,7.921994923676886624e-02
3.700000000000000000e+02,7.906368053676887664e-02
3.710000000000000000e+02,7.890680314176887200e-02
3.720000000000000000e+02,7.874932240676886519e-02
3.730000000000000000e+02,7.859124385676886926e-02
3.740000000000000000e+02,7.843257313676886555e-02
3.750000000000000000e+02,7.827331600676887269e-02
3.760000000000000000e+02,7.811347834176887717e-02
3.770000000000000000e+02,7.795306609176887169e-02
3.780000000000000000e+02,7.779208529176886988e-02
3.790000000000000000e+02,7.763054207176886545e-02
3.800000000000000000e+02,7.746835174676887370e-02
3.810000000000000000e+02,7.730562521176886914e-02
3.820000000000000000e+02,7.714251738676887460e-02
3.830000000000000000e+02,7.697896181676887328e-02
3.840000000000000000e+02,7.681492394676886493e-02
3.850000000000000000e+02,7.665038533676886423e-02
3.860000000000000000e+02,7.648533620676886691e-02
3.870000000000000000e+02,7.631977236176887280e-02
3.880000000000000000e+02,7.615369323176886251e-02
3.890000000000000000e+02,7.598710068676886586e-02
3.900000000000000000e+02,7.581999829676885905e-02
3.910000000000000000e+02,7.565239084176886286e-02
3.920000000000000000e+02,7.548428392676886922e-02
3.930000000000000000e+02,7.531568376676886500e-02
3.940000000000000000e+02,7.514659703176886085e-02
3.950000000000000000e+02,7.497703067676886324e-02
3.960000000000000000e+02,7.480699188176886949e-02
3.970000000000000000e+02,7.463648800676886408e-02
3.980000000000000000e+02,7.446552649176886585e-02
3.990000000000000000e+02,7.429411484676885780e-02
