# Time [s], Mass [Kg]
1.000000000000000000e+00,1.000000000000000000e+00
2.000000000000000000e+00,1.000000000000000000e+00
3.000000000000000000e+00,1.000000000000000000e+00
4.000000000000000000e+00,1.000000000000000000e+00
5.000000000000000000e+00,1.000000000000000000e+00
6.000000000000000000e+00,9.999997600000000153e-01
7.000000000000000000e+00,9.999978499999999659e-01
8.000000000000000000e+00,9.999856900000000381e-01
9.000000000000000000e+00,9.999258500000000049e-01
1.000000000000000000e+01,9.997221800000000158e-01
1.100000000000000000e+01,9.991991500000000359e-01
1.200000000000000000e+01,9.981473100000000098e-01
1.300000000000000000e+01,9.964931000000000205e-01
1.400000000000000000e+01,9.940730899999999925e-01
1.500000000000000000e+01,9.917924999999999658e-01
1.600000000000000000e+01,9.889040000000000052e-01
1.700000000000000000e+01,9.861337500000000311e-01
1.800000000000000000e+01,9.829010400000000036e-01
1.900000000000000000e+01,9.799750400000000194e-01
2.000000000000000000e+01,9.767284999999999995e-01
2.100000000000000000e+01,9.737255000000000216e-01
2.200000000000000000e+01,9.705834399999999640e-01
2.300000000000000000e+01,9.676713900000000201e-01
2.400000000000000000e+01,9.644944699999999926e-01
2.500000000000000000e+01,9.613971100000000547e-01
2.600000000000000000e+01,9.581787600000000182e-01
2.700000000000000000e+01,9.547448200000000496e-01
2.800000000000000000e+01,9.514089799999999597e-01
2.900000000000000000e+01,9.479544800000000437e-01
3.000000000000000000e+01,9.446880199999999617e-01
3.100000000000000000e+01,9.413757299999999661e-01
3.200000000000000000e+01,9.382566799999999541e-01
3.300000000000000000e+01,9.350932199999999472e-01
3.400000000000000000e+01,9.319787600000000172e-01
3.500000000000000000e+01,9.288086899999999924e-01
3.600000000000000000e+01,9.255768100000000276e-01
3.700000000000000000e+01,9.223403300000000415e-01
3.800000000000000000e+01,9.173503499999999811e-01
3.900000000000000000e+01,9.138258700000000401e-01
4.000000000000000000e+01,9.108102900000000224e-01
4.100000000000000000e+01,9.076517200000000507e-01
4.200000000000000000e+01,9.046699400000000058e-01
4.300000000000000000e+01,9.016364799999999624e-01
4.400000000000000000e+01,8.985718499999999498e-01
4.500000000000000000e+01,8.954912999999999901e-01
4.600000000000000000e+01,8.923344600000000515e-01
4.700000000000000000e+01,8.892182699999999773e-01
4.800000000000000000e+01,8.860771699999999695e-01
4.900000000000000000e+01,8.830227299999999779e-01
5.000000000000000000e+01,8.799873000000000278e-01
5.100000000000000000e+01,8.770295999999999648e-01
5.200000000000000000e+01,8.740881099999999737e-01
5.300000000000000000e+01,8.711710599999999971e-01
5.400000000000000000e+01,8.682469099999999829e-01
5.500000000000000000e+01,8.653075099999999464e-01
5.600000000000000000e+01,8.623615500000000322e-01
5.700000000000000000e+01,8.594071899999999875e-01
5.800000000000000000e+01,8.564723100000000144e-01
5.900000000000000000e+01,8.535557400000000072e-01
6.000000000000000000e+01,8.506782099999999902e-01
6.100000000000000000e+01,8.471673699999999751e-01
6.200000000000000000e+01,8.442639699999999747e-01
6.300000000000000000e+01,8.414035399999999498e-01
6.400000000000000000e+01,8.385878199999999838e-01
6.500000000000000000e+01,8.357886100000000429e-01
6.600000000000000000e+01,8.329732399999999481e-01
6.700000000000000000e+01,8.301647300000000174e-01
6.800000000000000000e+01,8.273505599999999571e-01
6.900000000000000000e+01,8.245555799999999547e-01
7.000000000000000000e+01,8.217735900000000537e-01
7.100000000000000000e+01,8.190148499999999609e-01
7.200000000000000000e+01,8.162708300000000028e-01
7.300000000000000000e+01,8.135386700000000193e-01
7.400000000000000000e+01,8.108090799999999598e-01
7.500000000000000000e+01,8.080758500000000399e-01
7.600000000000000000e+01,8.053348099999999565e-01
7.700000000000000000e+01,8.025851200000000407e-01
7.800000000000000000e+01,7.998295399999999500e-01
7.900000000000000000e+01,7.970719299999999841e-01
8.000000000000000000e+01,7.943177799999999733e-01
8.100000000000000000e+01,7.915695900000000451e-01
8.200000000000000000e+01,7.888300400000000101e-01
8.300000000000000000e+01,7.860970499999999639e-01
8.400000000000000000e+01,7.833684699999999834e-01
8.500000000000000000e+01,7.806395299999999704e-01
8.600000000000000000e+01,7.779060599999999548e-01
8.700000000000000000e+01,7.747042800000000229e-01
8.800000000000000000e+01,7.718028399999999900e-01
8.900000000000000000e+01,7.689609499999999764e-01
9.000000000000000000e+01,7.661400400000000221e-01
9.100000000000000000e+01,7.633455399999999891e-01
9.200000000000000000e+01,7.605581300000000544e-01
9.300000000000000000e+01,7.577822800000000303e-01
9.400000000000000000e+01,7.550075699999999612e-01
9.500000000000000000e+01,7.522313000000000471e-01
9.600000000000000000e+01,7.494475200000000337e-01
9.700000000000000000e+01,7.466517700000000479e-01
9.800000000000000000e+01,7.438416500000000209e-01
9.900000000000000000e+01,7.410149000000000319e-01
1.000000000000000000e+02,7.381724699999999695e-01
1.010000000000000000e+02,7.353147300000000275e-01
1.020000000000000000e+02,7.324430899999999633e-01
1.030000000000000000e+02,7.295585300000000384e-01
1.040000000000000000e+02,7.266616200000000081e-01
1.050000000000000000e+02,7.237516600000000189e-01
1.060000000000000000e+02,7.208270399999999745e-01
1.070000000000000000e+02,7.178857899999999681e-01
1.080000000000000000e+02,7.149254699999999518e-01
1.090000000000000000e+02,7.119443399999999533e-01
1.100000000000000000e+02,7.089405100000000237e-01
1.110000000000000000e+02,7.059135399999999505e-01
1.120000000000000000e+02,7.028630399999999945e-01
1.130000000000000000e+02,6.994071600000000277e-01
1.140000000000000000e+02,6.961680099999999483e-01
1.150000000000000000e+02,6.929637199999999497e-01
1.160000000000000000e+02,6.897659900000000510e-01
1.170000000000000000e+02,6.865631899999999899e-01
1.180000000000000000e+02,6.833413200000000298e-01
1.190000000000000000e+02,6.800964499999999635e-01
1.200000000000000000e+02,6.768223599999999562e-01
1.210000000000000000e+02,6.735174699999999515e-01
1.220000000000000000e+02,6.701792500000000041e-01
1.230000000000000000e+02,6.668075300000000372e-01
1.240000000000000000e+02,6.634016000000000357e-01
1.250000000000000000e+02,6.599614599999999998e-01
1.260000000000000000e+02,6.564866299999999599e-01
1.270000000000000000e+02,6.529772299999999641e-01
1.280000000000000000e+02,6.494332000000000438e-01
1.290000000000000000e+02,6.458544699999999583e-01
1.300000000000000000e+02,6.422420100000000298e-01
1.310000000000000000e+02,6.385968899999999726e-01
1.320000000000000000e+02,6.349209500000000395e-01
1.330000000000000000e+02,6.312168200000000118e-01
1.340000000000000000e+02,6.271492800000000312e-01
1.350000000000000000e+02,6.232624100000000444e-01
1.360000000000000000e+02,6.194077700000000242e-01
1.370000000000000000e+02,6.155645299999999986e-01
1.380000000000000000e+02,6.117280099999999887e-01
1.390000000000000000e+02,6.078887600000000280e-01
1.400000000000000000e+02,6.040503400000000189e-01
1.410000000000000000e+02,6.002103100000000246e-01
1.420000000000000000e+02,5.963724900000000329e-01
1.430000000000000000e+02,5.925373400000000235e-01
1.440000000000000000e+02,5.887078000000000033e-01
1.450000000000000000e+02,5.848853600000000208e-01
1.460000000000000000e+02,5.810716700000000401e-01
1.470000000000000000e+02,5.772682999999999565e-01
1.480000000000000000e+02,5.734762500000000207e-01
1.490000000000000000e+02,5.696969600000000300e-01
1.500000000000000000e+02,5.659313200000000155e-01
1.510000000000000000e+02,5.621801600000000398e-01
1.520000000000000000e+02,5.584443799999999625e-01
1.530000000000000000e+02,5.544689900000000504e-01
1.540000000000000000e+02,5.506440999999999697e-01
1.550000000000000000e+02,5.468820899999999874e-01
1.560000000000000000e+02,5.431612700000000293e-01
1.570000000000000000e+02,5.394761000000000140e-01
1.580000000000000000e+02,5.358189899999999950e-01
1.590000000000000000e+02,5.321894900000000428e-01
1.600000000000000000e+02,5.285851400000000089e-01
1.610000000000000000e+02,5.250057000000000196e-01
1.620000000000000000e+02,5.214506399999999653e-01
1.630000000000000000e+02,5.179202600000000212e-01
1.640000000000000000e+02,5.144147300000000422e-01
1.650000000000000000e+02,5.109344700000000294e-01
1.660000000000000000e+02,5.074802600000000163e-01
1.670000000000000000e+02,5.040528800000000365e-01
1.680000000000000000e+02,5.006535100000000238e-01
1.690000000000000000e+02,4.972835500000000186e-01
1.700000000000000000e+02,4.939444100000000004e-01
1.710000000000000000e+02,4.906380200000000080e-01
1.720000000000000000e+02,4.873666199999999726e-01
1.730000000000000000e+02,4.841325599999999896e-01
1.740000000000000000e+02,4.807693699999999737e-01
1.750000000000000000e+02,4.775283900000000248e-01
1.760000000000000000e+02,4.743717900000000154e-01
1.770000000000000000e+02,4.712862999999999913e-01
1.780000000000000000e+02,4.682699399999999956e-01
1.790000000000000000e+02,4.653237800000000202e-01
1.800000000000000000e+02,4.624523799999999962e-01
1.810000000000000000e+02,4.596619900000000203e-01
1.820000000000000000e+02,4.569608299999999845e-01
1.830000000000000000e+02,4.543589900000000181e-01
1.840000000000000000e+02,4.518684099999999981e-01
1.850000000000000000e+02,4.495029700000000017e-01
1.860000000000000000e+02,4.472787400000000080e-01
1.870000000000000000e+02,4.452132899999999838e-01
1.880000000000000000e+02,4.433258800000000055e-01
1.890000000000000000e+02,4.416354299999999955e-01
1.900000000000000000e+02,4.401590799999999803e-01
1.910000000000000000e+02,4.389086099999999768e-01
1.920000000000000000e+02,4.378869499999999970e-01
1.930000000000000000e+02,4.370849399999999774e-01
1.940000000000000000e+02,4.364805500000000227e-01
1.950000000000000000e+02,4.360415300000000105e-01
1.960000000000000000e+02,4.357315900000000020e-01
1.970000000000000000e+02,4.355165999999999760e-01
1.980000000000000000e+02,4.353685099999999863e-01
1.990000000000000000e+02,4.352662900000000001e-01
2.000000000000000000e+02,4.351952399999999832e-01
2.010000000000000000e+02,4.351452900000000179e-01
2.020000000000000000e+02,4.351097299999999723e-01
2.030000000000000000e+02,4.350840400000000052e-01
2.040000000000000000e+02,4.350652999999999881e-01
2.050000000000000000e+02,4.350513799999999875e-01
2.060000000000000000e+02,4.350409499999999818e-01
2.070000000000000000e+02,4.350330499999999767e-01
2.080000000000000000e+02,4.350269700000000128e-01
2.090000000000000000e+02,4.350222899999999782e-01
2.100000000000000000e+02,4.350186300000000172e-01
2.110000000000000000e+02,4.350157399999999841e-01
2.120000000000000000e+02,4.350134399999999735e-01
2.130000000000000000e+02,4.350115999999999983e-01
2.140000000000000000e+02,4.350101100000000054e-01
2.150000000000000000e+02,4.350088799999999867e-01
2.160000000000000000e+02,4.350079000000000029e-01
2.170000000000000000e+02,4.350070999999999799e-01
2.180000000000000000e+02,4.350064399999999942e-01
2.190000000000000000e+02,4.350058700000000167e-01
2.200000000000000000e+02,4.350053999999999865e-01
2.210000000000000000e+02,4.350050100000000253e-01
2.220000000000000000e+02,4.350046799999999769e-01
2.230000000000000000e+02,4.350044100000000080e-01
2.240000000000000000e+02,4.350041700000000233e-01
2.250000000000000000e+02,4.350039700000000176e-01
2.260000000000000000e+02,4.350037900000000013e-01
2.270000000000000000e+02,4.350036400000000247e-01
2.280000000000000000e+02,4.350035199999999769e-01
2.290000000000000000e+02,4.350033999999999845e-01
2.300000000000000000e+02,4.350033099999999764e-01
2.310000000000000000e+02,4.350032200000000238e-01
2.320000000000000000e+02,4.350031599999999998e-01
2.330000000000000000e+02,4.350030999999999759e-01
2.340000000000000000e+02,4.350030400000000075e-01
2.350000000000000000e+02,4.350029799999999836e-01
2.360000000000000000e+02,4.350029499999999993e-01
2.370000000000000000e+02,4.350028899999999754e-01
2.380000000000000000e+02,4.350028599999999912e-01
2.390000000000000000e+02,4.350028300000000070e-01
2.400000000000000000e+02,4.350028000000000228e-01
2.410000000000000000e+02,4.350027699999999831e-01
2.420000000000000000e+02,4.350027699999999831e-01
2.430000000000000000e+02,4.350027399999999989e-01
2.440000000000000000e+02,4.350027100000000146e-01
2.450000000000000000e+02,4.350027100000000146e-01
2.460000000000000000e+02,4.350026799999999749e-01
2.470000000000000000e+02,4.350026799999999749e-01
2.480000000000000000e+02,4.350026799999999749e-01
2.490000000000000000e+02,4.350026499999999907e-01
2.500000000000000000e+02,4.350026499999999907e-01
2.510000000000000000e+02,4.350026499999999907e-01
2.520000000000000000e+02,4.350026200000000065e-01
2.530000000000000000e+02,4.350026200000000065e-01
2.540000000000000000e+02,4.350026200000000065e-01
2.550000000000000000e+02,4.350026200000000065e-01
2.560000000000000000e+02,4.350026200000000065e-01
2.570000000000000000e+02,4.350026000000000170e-01
2.580000000000000000e+02,4.350026000000000170e-01
2.590000000000000000e+02,4.350026000000000170e-01
2.600000000000000000e+02,4.350026000000000170e-01
2.610000000000000000e+02,4.350026000000000170e-01
2.620000000000000000e+02,4.350026000000000170e-01
2.630000000000000000e+02,4.350026000000000170e-01
2.640000000000000000e+02,4.350025699999999773e-01
2.650000000000000000e+02,4.350025699999999773e-01
2.660000000000000000e+02,4.350025699999999773e-01
2.670000000000000000e+02,4.350025699999999773e-01
2.680000000000000000e+02,4.350025699999999773e-01
2.690000000000000000e+02,4.350025699999999773e-01
2.700000000000000000e+02,4.350025699999999773e-01
2.710000000000000000e+02,4.350025699999999773e-01
2.720000000000000000e+02,4.350025699999999773e-01
2.730000000000000000e+02,4.350025699999999773e-01
2.740000000000000000e+02,4.350025699999999773e-01
2.750000000000000000e+02,4.350025699999999773e-01
2.760000000000000000e+02,4.350025699999999773e-01
2.770000000000000000e+02,4.350025699999999773e-01
2.780000000000000000e+02,4.350025699999999773e-01
2.790000000000000000e+02,4.350025699999999773e-01
2.800000000000000000e+02,4.350025699999999773e-01
2.810000000000000000e+02,4.350025399999999931e-01
2.820000000000000000e+02,4.350025399999999931e-01
2.830000000000000000e+02,4.350025399999999931e-01
2.840000000000000000e+02,4.350025399999999931e-01
2.850000000000000000e+02,4.350025399999999931e-01
2.860000000000000000e+02,4.350025399999999931e-01
2.870000000000000000e+02,4.350025399999999931e-01
2.880000000000000000e+02,4.350025399999999931e-01
2.890000000000000000e+02,4.350025399999999931e-01
2.900000000000000000e+02,4.350025399999999931e-01
2.910000000000000000e+02,4.350025399999999931e-01
2.920000000000000000e+02,4.350025399999999931e-01
2.930000000000000000e+02,4.350025399999999931e-01
2.940000000000000000e+02,4.350025399999999931e-01
2.950000000000000000e+02,4.350025399999999931e-01
2.960000000000000000e+02,4.350025399999999931e-01
2.970000000000000000e+02,4.350025399999999931e-01
2.980000000000000000e+02,4.350025399999999931e-01
2.990000000000000000e+02,4.350025399999999931e-01
3.000000000000000000e+02,4.350025399999999931e-01
3.010000000000000000e+02,4.350025399999999931e-01
3.020000000000000000e+02,4.350025399999999931e-01
3.030000000000000000e+02,4.350025399999999931e-01
3.040000000000000000e+02,4.350025399999999931e-01
3.050000000000000000e+02,4.350025399999999931e-01
3.060000000000000000e+02,4.350025399999999931e-01
3.070000000000000000e+02,4.350025399999999931e-01
3.080000000000000000e+02,4.350025399999999931e-01
3.090000000000000000e+02,4.350025399999999931e-01
3.100000000000000000e+02,4.350025399999999931e-01
3.110000000000000000e+02,4.350025399999999931e-01
3.120000000000000000e+02,4.350025399999999931e-01
3.130000000000000000e+02,4.350025399999999931e-01
3.140000000000000000e+02,4.350025399999999931e-01
3.150000000000000000e+02,4.350025399999999931e-01
3.160000000000000000e+02,4.350025399999999931e-01
3.170000000000000000e+02,4.350025399999999931e-01
3.180000000000000000e+02,4.350025399999999931e-01
3.190000000000000000e+02,4.350025399999999931e-01
3.200000000000000000e+02,4.350025399999999931e-01
3.210000000000000000e+02,4.350025399999999931e-01
3.220000000000000000e+02,4.350025399999999931e-01
3.230000000000000000e+02,4.350025399999999931e-01
3.240000000000000000e+02,4.350025399999999931e-01
3.250000000000000000e+02,4.350025399999999931e-01
3.260000000000000000e+02,4.350025399999999931e-01
3.270000000000000000e+02,4.350025399999999931e-01
3.280000000000000000e+02,4.350025399999999931e-01
3.290000000000000000e+02,4.350025399999999931e-01
3.300000000000000000e+02,4.350025399999999931e-01
3.310000000000000000e+02,4.350025399999999931e-01
3.320000000000000000e+02,4.350025399999999931e-01
3.330000000000000000e+02,4.350025399999999931e-01
3.340000000000000000e+02,4.350025399999999931e-01
3.350000000000000000e+02,4.350025399999999931e-01
3.360000000000000000e+02,4.350025399999999931e-01
3.370000000000000000e+02,4.350025399999999931e-01
3.380000000000000000e+02,4.350025399999999931e-01
3.390000000000000000e+02,4.350025399999999931e-01
3.400000000000000000e+02,4.350025399999999931e-01
3.410000000000000000e+02,4.350025399999999931e-01
3.420000000000000000e+02,4.350025399999999931e-01
3.430000000000000000e+02,4.350025399999999931e-01
3.440000000000000000e+02,4.350025399999999931e-01
3.450000000000000000e+02,4.350025399999999931e-01
3.460000000000000000e+02,4.350025399999999931e-01
3.470000000000000000e+02,4.350025399999999931e-01
3.480000000000000000e+02,4.350025399999999931e-01
3.490000000000000000e+02,4.350025399999999931e-01
3.500000000000000000e+02,4.350025399999999931e-01
3.510000000000000000e+02,4.350025399999999931e-01
3.520000000000000000e+02,4.350025399999999931e-01
3.530000000000000000e+02,4.350025399999999931e-01
3.540000000000000000e+02,4.350025399999999931e-01
3.550000000000000000e+02,4.350025399999999931e-01
3.560000000000000000e+02,4.350025399999999931e-01
3.570000000000000000e+02,4.350025399999999931e-01
3.580000000000000000e+02,4.350025399999999931e-01
3.590000000000000000e+02,4.350025399999999931e-01
3.600000000000000000e+02,4.350025399999999931e-01
3.610000000000000000e+02,4.350025399999999931e-01
3.620000000000000000e+02,4.350025399999999931e-01
3.630000000000000000e+02,4.350025399999999931e-01
3.640000000000000000e+02,4.350025399999999931e-01
3.650000000000000000e+02,4.350025399999999931e-01
3.660000000000000000e+02,4.350025399999999931e-01
3.670000000000000000e+02,4.350025399999999931e-01
3.680000000000000000e+02,4.350025399999999931e-01
3.690000000000000000e+02,4.350025399999999931e-01
3.700000000000000000e+02,4.350025399999999931e-01
3.710000000000000000e+02,4.350025399999999931e-01
3.720000000000000000e+02,4.350025399999999931e-01
3.730000000000000000e+02,4.350025399999999931e-01
3.740000000000000000e+02,4.350025399999999931e-01
3.750000000000000000e+02,4.350025399999999931e-01
3.760000000000000000e+02,4.350025399999999931e-01
3.770000000000000000e+02,4.350025399999999931e-01
3.780000000000000000e+02,4.350025399999999931e-01
3.790000000000000000e+02,4.350025399999999931e-01
3.800000000000000000e+02,4.350025399999999931e-01
3.810000000000000000e+02,4.350025399999999931e-01
3.820000000000000000e+02,4.350025399999999931e-01
3.830000000000000000e+02,4.350025399999999931e-01
3.840000000000000000e+02,4.350025399999999931e-01
3.850000000000000000e+02,4.350025399999999931e-01
3.860000000000000000e+02,4.350025399999999931e-01
3.870000000000000000e+02,4.350025399999999931e-01
3.880000000000000000e+02,4.350025399999999931e-01
3.890000000000000000e+02,4.350025399999999931e-01
3.900000000000000000e+02,4.350025399999999931e-01
3.910000000000000000e+02,4.350025399999999931e-01
3.920000000000000000e+02,4.350025399999999931e-01
3.930000000000000000e+02,4.350025399999999931e-01
3.940000000000000000e+02,4.350025399999999931e-01
3.950000000000000000e+02,4.350025399999999931e-01
3.960000000000000000e+02,4.350025399999999931e-01
3.970000000000000000e+02,4.350025399999999931e-01
3.980000000000000000e+02,4.350025399999999931e-01
3.990000000000000000e+02,4.350025399999999931e-01
