# Time [s], Temperature [C]
1.000000000000000000e+00,2.499996900000000011e+01
2.000000000000000000e+00,1.121045500000000033e+02
3.000000000000000000e+00,1.644464099999999860e+02
4.000000000000000000e+00,2.035279700000000105e+02
5.000000000000000000e+00,2.356000200000000007e+02
6.000000000000000000e+00,2.630532799999999725e+02
7.000000000000000000e+00,2.872752100000000155e+02
8.000000000000000000e+00,3.091587200000000166e+02
9.000000000000000000e+00,3.286529800000000137e+02
1.000000000000000000e+01,3.453990499999999884e+02
1.100000000000000000e+01,3.590960699999999974e+02
1.200000000000000000e+01,3.693932500000000232e+02
1.300000000000000000e+01,3.767187500000000000e+02
1.400000000000000000e+01,3.824090899999999920e+02
1.500000000000000000e+01,3.875064100000000167e+02
1.600000000000000000e+01,3.924596900000000232e+02
1.700000000000000000e+01,3.975658000000000243e+02
1.800000000000000000e+01,4.029822399999999902e+02
1.900000000000000000e+01,4.088247999999999820e+02
2.000000000000000000e+01,4.151621999999999844e+02
2.100000000000000000e+01,4.219842199999999934e+02
2.200000000000000000e+01,4.291835300000000188e+02
2.300000000000000000e+01,4.364891700000000014e+02
2.400000000000000000e+01,4.435373500000000035e+02
2.500000000000000000e+01,4.499078999999999837e+02
2.600000000000000000e+01,4.553886100000000283e+02
2.700000000000000000e+01,4.600270699999999806e+02
2.800000000000000000e+01,4.641812400000000025e+02
2.900000000000000000e+01,4.682752699999999777e+02
3.000000000000000000e+01,4.725778199999999742e+02
3.100000000000000000e+01,4.772064500000000180e+02
3.200000000000000000e+01,4.821412700000000200e+02
3.300000000000000000e+01,4.872225300000000061e+02
3.400000000000000000e+01,4.922710599999999772e+02
3.500000000000000000e+01,4.970673499999999763e+02
3.600000000000000000e+01,5.014679899999999861e+02
3.700000000000000000e+01,5.076859400000000164e+02
3.800000000000000000e+01,4.896205699999999865e+02
3.900000000000000000e+01,4.944677699999999732e+02
4.000000000000000000e+01,4.980536200000000235e+02
4.100000000000000000e+01,5.028195799999999736e+02
4.200000000000000000e+01,5.071874399999999810e+02
4.300000000000000000e+01,5.121528299999999945e+02
4.400000000000000000e+01,5.164796099999999797e+02
4.500000000000000000e+01,5.209312099999999646e+02
4.600000000000000000e+01,5.246621099999999842e+02
4.700000000000000000e+01,5.282618999999999687e+02
4.800000000000000000e+01,5.313903199999999742e+02
4.900000000000000000e+01,5.344642900000000054e+02
5.000000000000000000e+01,5.374141200000000254e+02
5.100000000000000000e+01,5.404343900000000076e+02
5.200000000000000000e+01,5.434773599999999760e+02
5.300000000000000000e+01,5.465801999999999907e+02
5.400000000000000000e+01,5.496601000000000568e+02
5.500000000000000000e+01,5.526964100000000144e+02
5.600000000000000000e+01,5.556188399999999774e+02
5.700000000000000000e+01,5.584210199999999986e+02
5.800000000000000000e+01,5.610783699999999499e+02
5.900000000000000000e+01,5.636420900000000529e+02
6.000000000000000000e+01,5.661024200000000519e+02
6.100000000000000000e+01,5.685335099999999784e+02
6.200000000000000000e+01,5.709337199999999939e+02
6.300000000000000000e+01,5.707004399999999578e+02
6.400000000000000000e+01,5.730470599999999877e+02
6.500000000000000000e+01,5.737580000000000382e+02
6.600000000000000000e+01,5.764586199999999963e+02
6.700000000000000000e+01,5.788888500000000477e+02
6.800000000000000000e+01,5.814462300000000141e+02
6.900000000000000000e+01,5.838630399999999554e+02
7.000000000000000000e+01,5.861485599999999749e+02
7.100000000000000000e+01,5.883392300000000432e+02
7.200000000000000000e+01,5.904305399999999509e+02
7.300000000000000000e+01,5.924799199999999928e+02
7.400000000000000000e+01,5.944914599999999609e+02
7.500000000000000000e+01,5.964928599999999506e+02
7.600000000000000000e+01,5.984722299999999677e+02
7.700000000000000000e+01,6.004401199999999790e+02
7.800000000000000000e+01,6.023707900000000564e+02
7.900000000000000000e+01,6.042661699999999882e+02
8.000000000000000000e+01,6.061216399999999567e+02
8.100000000000000000e+01,6.079238299999999526e+02
8.200000000000000000e+01,6.096805399999999509e+02
8.300000000000000000e+01,6.114049700000000485e+02
8.400000000000000000e+01,6.130902700000000323e+02
8.500000000000000000e+01,6.147472500000000082e+02
8.600000000000000000e+01,6.163873300000000199e+02
8.700000000000000000e+01,6.180086099999999760e+02
8.800000000000000000e+01,6.196137700000000450e+02
8.900000000000000000e+01,6.212055699999999661e+02
9.000000000000000000e+01,6.227739299999999503e+02
9.100000000000000000e+01,6.239203499999999849e+02
9.200000000000000000e+01,6.247473099999999704e+02
9.300000000000000000e+01,6.258297700000000532e+02
9.400000000000000000e+01,6.268212300000000141e+02
9.500000000000000000e+01,6.281675999999999931e+02
9.600000000000000000e+01,6.295372300000000223e+02
9.700000000000000000e+01,6.309420199999999568e+02
9.800000000000000000e+01,6.323868400000000065e+02
9.900000000000000000e+01,6.338169599999999946e+02
1.000000000000000000e+02,6.352619600000000446e+02
1.010000000000000000e+02,6.366921999999999571e+02
1.020000000000000000e+02,6.381172500000000127e+02
1.030000000000000000e+02,6.395178200000000288e+02
1.040000000000000000e+02,6.409072300000000268e+02
1.050000000000000000e+02,6.422650099999999611e+02
1.060000000000000000e+02,6.436064499999999953e+02
1.070000000000000000e+02,6.449207199999999602e+02
1.080000000000000000e+02,6.462194799999999759e+02
1.090000000000000000e+02,6.474950000000000045e+02
1.100000000000000000e+02,6.487598900000000413e+02
1.110000000000000000e+02,6.500025600000000168e+02
1.120000000000000000e+02,6.512335199999999986e+02
1.130000000000000000e+02,6.524538599999999633e+02
1.140000000000000000e+02,6.536558199999999488e+02
1.150000000000000000e+02,6.548425899999999729e+02
1.160000000000000000e+02,6.560188600000000179e+02
1.170000000000000000e+02,6.571801100000000133e+02
1.180000000000000000e+02,6.582623300000000199e+02
1.190000000000000000e+02,6.591818799999999783e+02
1.200000000000000000e+02,6.600346100000000433e+02
1.210000000000000000e+02,6.609027700000000323e+02
1.220000000000000000e+02,6.617861299999999574e+02
1.230000000000000000e+02,6.627509199999999510e+02
1.240000000000000000e+02,6.637540299999999434e+02
1.250000000000000000e+02,6.647851000000000568e+02
1.260000000000000000e+02,6.658395400000000564e+02
1.270000000000000000e+02,6.668948400000000447e+02
1.280000000000000000e+02,6.679611200000000508e+02
1.290000000000000000e+02,6.690158099999999877e+02
1.300000000000000000e+02,6.700703099999999495e+02
1.310000000000000000e+02,6.711145000000000209e+02
1.320000000000000000e+02,6.721492899999999509e+02
1.330000000000000000e+02,6.731722999999999502e+02
1.340000000000000000e+02,6.741894499999999653e+02
1.350000000000000000e+02,6.751885999999999513e+02
1.360000000000000000e+02,6.761827399999999670e+02
1.370000000000000000e+02,6.771624100000000226e+02
1.380000000000000000e+02,6.781331199999999626e+02
1.390000000000000000e+02,6.790892300000000432e+02
1.400000000000000000e+02,6.800291700000000219e+02
1.410000000000000000e+02,6.809035000000000082e+02
1.420000000000000000e+02,6.817177699999999732e+02
1.430000000000000000e+02,6.825076299999999492e+02
1.440000000000000000e+02,6.832823499999999513e+02
1.450000000000000000e+02,6.840655500000000302e+02
1.460000000000000000e+02,6.848724999999999454e+02
1.470000000000000000e+02,6.856911599999999680e+02
1.480000000000000000e+02,6.865203900000000203e+02
1.490000000000000000e+02,6.873615099999999529e+02
1.500000000000000000e+02,6.882005000000000337e+02
1.510000000000000000e+02,6.890407699999999522e+02
1.520000000000000000e+02,6.898808599999999842e+02
1.530000000000000000e+02,6.907147800000000188e+02
1.540000000000000000e+02,6.915430900000000065e+02
1.550000000000000000e+02,6.923704199999999673e+02
1.560000000000000000e+02,6.931857899999999972e+02
1.570000000000000000e+02,6.939953600000000051e+02
1.580000000000000000e+02,6.948005399999999554e+02
1.590000000000000000e+02,6.955951499999999896e+02
1.600000000000000000e+02,6.963846999999999525e+02
1.610000000000000000e+02,6.971888400000000274e+02
1.620000000000000000e+02,6.979675899999999729e+02
1.630000000000000000e+02,6.987038599999999633e+02
1.640000000000000000e+02,6.994178500000000440e+02
1.650000000000000000e+02,7.001065700000000334e+02
1.660000000000000000e+02,7.007909499999999525e+02
1.670000000000000000e+02,7.014727799999999434e+02
1.680000000000000000e+02,7.021611900000000333e+02
1.690000000000000000e+02,7.028510700000000497e+02
1.700000000000000000e+02,7.035501100000000179e+02
1.710000000000000000e+02,7.042481699999999591e+02
1.720000000000000000e+02,7.049506199999999581e+02
1.730000000000000000e+02,7.056558800000000247e+02
1.740000000000000000e+02,7.063607200000000148e+02
1.750000000000000000e+02,7.070658600000000433e+02
1.760000000000000000e+02,7.077741700000000264e+02
1.770000000000000000e+02,7.084799199999999928e+02
1.780000000000000000e+02,7.091867700000000241e+02
1.790000000000000000e+02,7.098952600000000075e+02
1.800000000000000000e+02,7.106020499999999629e+02
1.810000000000000000e+02,7.113130499999999756e+02
1.820000000000000000e+02,7.120241700000000264e+02
1.830000000000000000e+02,7.127377300000000560e+02
1.840000000000000000e+02,7.134517799999999852e+02
1.850000000000000000e+02,7.141582600000000411e+02
1.860000000000000000e+02,7.148765899999999647e+02
1.870000000000000000e+02,7.155827600000000075e+02
1.880000000000000000e+02,7.162974900000000389e+02
1.890000000000000000e+02,7.170143399999999474e+02
1.900000000000000000e+02,7.177439600000000155e+02
1.910000000000000000e+02,7.184902299999999968e+02
1.920000000000000000e+02,7.192554300000000467e+02
1.930000000000000000e+02,7.200446799999999712e+02
1.940000000000000000e+02,7.208615700000000288e+02
1.950000000000000000e+02,7.217074000000000069e+02
1.960000000000000000e+02,7.225895400000000564e+02
1.970000000000000000e+02,7.235105600000000550e+02
1.980000000000000000e+02,7.244788200000000415e+02
1.990000000000000000e+02,7.254979899999999589e+02
2.000000000000000000e+02,7.265795900000000529e+02
2.010000000000000000e+02,7.277287000000000035e+02
2.020000000000000000e+02,7.289532500000000255e+02
2.030000000000000000e+02,7.302611699999999928e+02
2.040000000000000000e+02,7.316485599999999749e+02
2.050000000000000000e+02,7.331129799999999932e+02
2.060000000000000000e+02,7.346488600000000133e+02
2.070000000000000000e+02,7.362398100000000341e+02
2.080000000000000000e+02,7.378751200000000381e+02
2.090000000000000000e+02,7.395475500000000011e+02
2.100000000000000000e+02,7.412398100000000341e+02
2.110000000000000000e+02,7.429452499999999873e+02
2.120000000000000000e+02,7.446611900000000333e+02
2.130000000000000000e+02,7.463708500000000186e+02
2.140000000000000000e+02,7.480764799999999468e+02
2.150000000000000000e+02,7.497749000000000024e+02
2.160000000000000000e+02,7.514534300000000258e+02
2.170000000000000000e+02,7.531168800000000374e+02
2.180000000000000000e+02,7.547610499999999547e+02
2.190000000000000000e+02,7.563831800000000385e+02
2.200000000000000000e+02,7.579804100000000062e+02
2.210000000000000000e+02,7.595587199999999939e+02
2.220000000000000000e+02,7.611060800000000199e+02
2.230000000000000000e+02,7.626297600000000330e+02
2.240000000000000000e+02,7.641299999999999955e+02
2.250000000000000000e+02,7.656007100000000491e+02
2.260000000000000000e+02,7.670444899999999961e+02
2.270000000000000000e+02,7.684659400000000460e+02
2.280000000000000000e+02,7.698572400000000471e+02
2.290000000000000000e+02,7.712213100000000168e+02
2.300000000000000000e+02,7.725665900000000192e+02
2.310000000000000000e+02,7.738783600000000433e+02
2.320000000000000000e+02,7.751673600000000306e+02
2.330000000000000000e+02,7.764347500000000082e+02
2.340000000000000000e+02,7.776723600000000260e+02
2.350000000000000000e+02,7.788858000000000175e+02
2.360000000000000000e+02,7.800794100000000526e+02
2.370000000000000000e+02,7.812457299999999805e+02
2.380000000000000000e+02,7.823881800000000339e+02
2.390000000000000000e+02,7.835110499999999547e+02
2.400000000000000000e+02,7.846073599999999715e+02
2.410000000000000000e+02,7.856818799999999783e+02
2.420000000000000000e+02,7.867385299999999688e+02
2.430000000000000000e+02,7.877690400000000182e+02
2.440000000000000000e+02,7.887787499999999454e+02
2.450000000000000000e+02,7.897739299999999503e+02
2.460000000000000000e+02,7.907411499999999478e+02
2.470000000000000000e+02,7.916921999999999571e+02
2.480000000000000000e+02,7.926249400000000378e+02
2.490000000000000000e+02,7.935363800000000083e+02
2.500000000000000000e+02,7.944271899999999960e+02
2.510000000000000000e+02,7.953047500000000127e+02
2.520000000000000000e+02,7.961593599999999924e+02
2.530000000000000000e+02,7.969970100000000457e+02
2.540000000000000000e+02,7.978204299999999876e+02
2.550000000000000000e+02,7.986226199999999835e+02
2.560000000000000000e+02,7.994086899999999787e+02
2.570000000000000000e+02,8.001813399999999774e+02
2.580000000000000000e+02,8.009337199999999939e+02
2.590000000000000000e+02,8.016719399999999496e+02
2.600000000000000000e+02,8.023977099999999609e+02
2.610000000000000000e+02,8.031038800000000037e+02
2.620000000000000000e+02,8.037964500000000498e+02
2.630000000000000000e+02,8.044779099999999517e+02
2.640000000000000000e+02,8.051395300000000361e+02
2.650000000000000000e+02,8.057897900000000391e+02
2.660000000000000000e+02,8.064280400000000100e+02
2.670000000000000000e+02,8.070487699999999904e+02
2.680000000000000000e+02,8.076583900000000540e+02
2.690000000000000000e+02,8.082562900000000354e+02
2.700000000000000000e+02,8.088392900000000054e+02
2.710000000000000000e+02,8.094103999999999814e+02
2.720000000000000000e+02,8.099705199999999650e+02
2.730000000000000000e+02,8.105161100000000260e+02
2.740000000000000000e+02,8.110515100000000075e+02
2.750000000000000000e+02,8.115773299999999608e+02
2.760000000000000000e+02,8.120896599999999808e+02
2.770000000000000000e+02,8.125903899999999567e+02
2.780000000000000000e+02,8.130837999999999965e+02
2.790000000000000000e+02,8.135624400000000378e+02
2.800000000000000000e+02,8.140333900000000540e+02
2.810000000000000000e+02,8.144940800000000536e+02
2.820000000000000000e+02,8.149438499999999976e+02
2.830000000000000000e+02,8.153830600000000004e+02
2.840000000000000000e+02,8.158158600000000433e+02
2.850000000000000000e+02,8.162356600000000526e+02
2.860000000000000000e+02,8.166489900000000262e+02
2.870000000000000000e+02,8.170528000000000475e+02
2.880000000000000000e+02,8.174471399999999903e+02
2.890000000000000000e+02,8.178323400000000447e+02
2.900000000000000000e+02,8.182122799999999643e+02
2.910000000000000000e+02,8.185804399999999532e+02
2.920000000000000000e+02,8.189422600000000330e+02
2.930000000000000000e+02,8.192968100000000504e+02
2.940000000000000000e+02,8.196417199999999639e+02
2.950000000000000000e+02,8.199797999999999547e+02
2.960000000000000000e+02,8.203122600000000375e+02
2.970000000000000000e+02,8.206351899999999659e+02
2.980000000000000000e+02,8.209519000000000233e+02
2.990000000000000000e+02,8.212626999999999953e+02
3.000000000000000000e+02,8.215653700000000299e+02
3.010000000000000000e+02,8.218606600000000526e+02
3.020000000000000000e+02,8.221519200000000183e+02
3.030000000000000000e+02,8.224343300000000454e+02
3.040000000000000000e+02,8.227119099999999889e+02
3.050000000000000000e+02,8.229833399999999983e+02
3.060000000000000000e+02,8.232488399999999729e+02
3.070000000000000000e+02,8.235076900000000251e+02
3.080000000000000000e+02,8.237623300000000199e+02
3.090000000000000000e+02,8.240100099999999657e+02
3.100000000000000000e+02,8.242528099999999540e+02
3.110000000000000000e+02,8.244903600000000097e+02
3.120000000000000000e+02,8.247227199999999812e+02
3.130000000000000000e+02,8.249484899999999925e+02
3.140000000000000000e+02,8.251722399999999880e+02
3.150000000000000000e+02,8.253884900000000471e+02
3.160000000000000000e+02,8.256005900000000111e+02
3.170000000000000000e+02,8.258087799999999561e+02
3.180000000000000000e+02,8.260109300000000303e+02
3.190000000000000000e+02,8.262097199999999475e+02
3.200000000000000000e+02,8.264041099999999460e+02
3.210000000000000000e+02,8.265941199999999753e+02
3.220000000000000000e+02,8.267788699999999835e+02
3.230000000000000000e+02,8.269619099999999889e+02
3.240000000000000000e+02,8.271381800000000339e+02
3.250000000000000000e+02,8.273125000000000000e+02
3.260000000000000000e+02,8.274819899999999961e+02
3.270000000000000000e+02,8.276485599999999749e+02
3.280000000000000000e+02,8.278096900000000460e+02
3.290000000000000000e+02,8.279692999999999756e+02
3.300000000000000000e+02,8.281240800000000490e+02
3.310000000000000000e+02,8.282754499999999780e+02
3.320000000000000000e+02,8.284246200000000044e+02
3.330000000000000000e+02,8.285688499999999976e+02
3.340000000000000000e+02,8.287103899999999612e+02
3.350000000000000000e+02,8.288500999999999976e+02
3.360000000000000000e+02,8.289847999999999502e+02
3.370000000000000000e+02,8.291173099999999749e+02
3.380000000000000000e+02,8.292477999999999838e+02
3.390000000000000000e+02,8.293737800000000107e+02
3.400000000000000000e+02,8.294975600000000213e+02
3.410000000000000000e+02,8.296196300000000292e+02
3.420000000000000000e+02,8.297372400000000425e+02
3.430000000000000000e+02,8.298530299999999897e+02
3.440000000000000000e+02,8.299669800000000350e+02
3.450000000000000000e+02,8.300770300000000361e+02
3.460000000000000000e+02,8.301851199999999835e+02
3.470000000000000000e+02,8.302916900000000169e+02
3.480000000000000000e+02,8.303944699999999557e+02
3.490000000000000000e+02,8.304954800000000432e+02
3.500000000000000000e+02,8.305944799999999759e+02
3.510000000000000000e+02,8.306915900000000192e+02
3.520000000000000000e+02,8.307854599999999436e+02
3.530000000000000000e+02,8.308784200000000055e+02
3.540000000000000000e+02,8.309680799999999863e+02
3.550000000000000000e+02,8.310571899999999914e+02
3.560000000000000000e+02,8.311431300000000419e+02
3.570000000000000000e+02,8.312276600000000144e+02
3.580000000000000000e+02,8.313095700000000079e+02
3.590000000000000000e+02,8.313907500000000255e+02
3.600000000000000000e+02,8.314697300000000268e+02
3.610000000000000000e+02,8.315465100000000120e+02
3.620000000000000000e+02,8.316220100000000457e+02
3.630000000000000000e+02,8.316953700000000254e+02
3.640000000000000000e+02,8.317672099999999773e+02
3.650000000000000000e+02,8.318384999999999536e+02
3.660000000000000000e+02,8.319067400000000134e+02
3.670000000000000000e+02,8.319741800000000467e+02
3.680000000000000000e+02,8.320399200000000519e+02
3.690000000000000000e+02,8.321041300000000547e+02
3.700000000000000000e+02,8.321666900000000169e+02
3.710000000000000000e+02,8.322291300000000547e+02
3.720000000000000000e+02,8.322885099999999738e+02
3.730000000000000000e+02,8.323475300000000061e+02
3.740000000000000000e+02,8.324047199999999975e+02
3.750000000000000000e+02,8.324608799999999746e+02
3.760000000000000000e+02,8.325153800000000501e+02
3.770000000000000000e+02,8.325700100000000248e+02
3.780000000000000000e+02,8.326217699999999695e+02
3.790000000000000000e+02,8.326732799999999770e+02
3.800000000000000000e+02,8.327231399999999439e+02
3.810000000000000000e+02,8.327722199999999475e+02
3.820000000000000000e+02,8.328197599999999738e+02
3.830000000000000000e+02,8.328668800000000374e+02
3.840000000000000000e+02,8.329122899999999845e+02
3.850000000000000000e+02,8.329577600000000075e+02
3.860000000000000000e+02,8.330011600000000271e+02
3.870000000000000000e+02,8.330440700000000334e+02
3.880000000000000000e+02,8.330855099999999993e+02
3.890000000000000000e+02,8.331266500000000406e+02
3.900000000000000000e+02,8.331662000000000035e+02
3.910000000000000000e+02,8.332052599999999529e+02
3.920000000000000000e+02,8.332433499999999640e+02
3.930000000000000000e+02,8.332805200000000241e+02
3.940000000000000000e+02,8.333168899999999439e+02
3.950000000000000000e+02,8.333533300000000281e+02
3.960000000000000000e+02,8.333876999999999953e+02
3.970000000000000000e+02,8.334218799999999874e+02
3.980000000000000000e+02,8.334551999999999907e+02
3.990000000000000000e+02,8.334876100000000179e+02
