# Time [s], Temperature [C]
1.000000000000000000e+00,2.499997099999999861e+01
2.000000000000000000e+00,7.600317400000000134e+01
3.000000000000000000e+00,1.046617999999999995e+02
4.000000000000000000e+00,1.276766700000000014e+02
5.000000000000000000e+00,1.467598000000000127e+02
6.000000000000000000e+00,1.633831500000000005e+02
7.000000000000000000e+00,1.781651200000000017e+02
8.000000000000000000e+00,1.915363800000000083e+02
9.000000000000000000e+00,2.037755300000000034e+02
1.000000000000000000e+01,2.150759700000000123e+02
1.100000000000000000e+01,2.255885199999999884e+02
1.200000000000000000e+01,2.354296099999999967e+02
1.300000000000000000e+01,2.446957700000000102e+02
1.400000000000000000e+01,2.534740099999999927e+02
1.500000000000000000e+01,2.618363600000000133e+02
1.600000000000000000e+01,2.698324299999999880e+02
1.700000000000000000e+01,2.774805600000000254e+02
1.800000000000000000e+01,2.847665099999999825e+02
1.900000000000000000e+01,2.916687299999999823e+02
2.000000000000000000e+01,2.981868000000000052e+02
2.100000000000000000e+01,3.043224500000000035e+02
2.200000000000000000e+01,3.100860000000000127e+02
2.300000000000000000e+01,3.154848299999999881e+02
2.400000000000000000e+01,3.205190699999999993e+02
2.500000000000000000e+01,3.251884800000000268e+02
2.600000000000000000e+01,3.294845000000000255e+02
2.700000000000000000e+01,3.334254500000000121e+02
2.800000000000000000e+01,3.370193499999999744e+02
2.900000000000000000e+01,3.402641600000000039e+02
3.000000000000000000e+01,3.432338599999999929e+02
3.100000000000000000e+01,3.459475400000000036e+02
3.200000000000000000e+01,3.483967000000000098e+02
3.300000000000000000e+01,3.507087700000000154e+02
3.400000000000000000e+01,3.528790599999999813e+02
3.500000000000000000e+01,3.548620300000000043e+02
3.600000000000000000e+01,3.568328900000000203e+02
3.700000000000000000e+01,3.587327300000000037e+02
3.800000000000000000e+01,3.604934700000000021e+02
3.900000000000000000e+01,3.623212899999999763e+02
4.000000000000000000e+01,3.641152299999999968e+02
4.100000000000000000e+01,3.657735000000000127e+02
4.200000000000000000e+01,3.675612199999999916e+02
4.300000000000000000e+01,3.693193699999999922e+02
4.400000000000000000e+01,3.709358500000000163e+02
4.500000000000000000e+01,3.727141399999999862e+02
4.600000000000000000e+01,3.744562700000000177e+02
4.700000000000000000e+01,3.760413199999999847e+02
4.800000000000000000e+01,3.778030699999999911e+02
4.900000000000000000e+01,3.795132800000000088e+02
5.000000000000000000e+01,3.810546899999999937e+02
5.100000000000000000e+01,3.827718199999999911e+02
5.200000000000000000e+01,3.844311799999999835e+02
5.300000000000000000e+01,3.859062799999999811e+02
5.400000000000000000e+01,3.875520900000000211e+02
5.500000000000000000e+01,3.891361400000000117e+02
5.600000000000000000e+01,3.905366200000000276e+02
5.700000000000000000e+01,3.921030600000000277e+02
5.800000000000000000e+01,3.936092800000000125e+02
5.900000000000000000e+01,3.949446399999999926e+02
6.000000000000000000e+01,3.964346600000000080e+02
6.100000000000000000e+01,3.978757600000000139e+02
6.200000000000000000e+01,3.991710800000000177e+02
6.300000000000000000e+01,4.005963399999999979e+02
6.400000000000000000e+01,4.020014600000000087e+02
6.500000000000000000e+01,4.032627299999999764e+02
6.600000000000000000e+01,4.046612900000000081e+02
6.700000000000000000e+01,4.060304600000000050e+02
6.800000000000000000e+01,4.072835400000000163e+02
6.900000000000000000e+01,4.086511199999999917e+02
7.000000000000000000e+01,4.100015000000000214e+02
7.100000000000000000e+01,4.112427700000000073e+02
7.200000000000000000e+01,4.125838899999999967e+02
7.300000000000000000e+01,4.139021900000000187e+02
7.400000000000000000e+01,4.151363499999999931e+02
7.500000000000000000e+01,4.164434800000000223e+02
7.600000000000000000e+01,4.177323299999999904e+02
7.700000000000000000e+01,4.189556900000000041e+02
7.800000000000000000e+01,4.202276299999999765e+02
7.900000000000000000e+01,4.208328599999999824e+02
8.000000000000000000e+01,4.139547999999999774e+02
8.100000000000000000e+01,4.154832499999999982e+02
8.200000000000000000e+01,4.159564799999999991e+02
8.300000000000000000e+01,4.172830799999999840e+02
8.400000000000000000e+01,4.184530599999999936e+02
8.500000000000000000e+01,4.198391100000000051e+02
8.600000000000000000e+01,4.210884399999999914e+02
8.700000000000000000e+01,4.224422900000000141e+02
8.800000000000000000e+01,4.237663900000000012e+02
8.900000000000000000e+01,4.250528899999999908e+02
9.000000000000000000e+01,4.263610199999999963e+02
9.100000000000000000e+01,4.276625700000000165e+02
9.200000000000000000e+01,4.289239200000000096e+02
9.300000000000000000e+01,4.301972999999999843e+02
9.400000000000000000e+01,4.314617900000000077e+02
9.500000000000000000e+01,4.326865199999999732e+02
9.600000000000000000e+01,4.339202300000000037e+02
9.700000000000000000e+01,4.351460299999999961e+02
9.800000000000000000e+01,4.363387799999999856e+02
9.900000000000000000e+01,4.375366799999999898e+02
1.000000000000000000e+02,4.387190899999999942e+02
1.010000000000000000e+02,4.398854400000000169e+02
1.020000000000000000e+02,4.410444899999999961e+02
1.030000000000000000e+02,4.421986699999999928e+02
1.040000000000000000e+02,4.433390800000000240e+02
1.050000000000000000e+02,4.444807700000000068e+02
1.060000000000000000e+02,4.456029100000000085e+02
1.070000000000000000e+02,4.467213100000000168e+02
1.080000000000000000e+02,4.478333999999999833e+02
1.090000000000000000e+02,4.489392100000000028e+02
1.100000000000000000e+02,4.500358299999999758e+02
1.110000000000000000e+02,4.511255800000000136e+02
1.120000000000000000e+02,4.522101099999999860e+02
1.130000000000000000e+02,4.532868700000000217e+02
1.140000000000000000e+02,4.543613599999999906e+02
1.150000000000000000e+02,4.554218099999999936e+02
1.160000000000000000e+02,4.564780900000000088e+02
1.170000000000000000e+02,4.575321700000000078e+02
1.180000000000000000e+02,4.585717500000000086e+02
1.190000000000000000e+02,4.596077599999999848e+02
1.200000000000000000e+02,4.606415400000000204e+02
1.210000000000000000e+02,4.605896900000000187e+02
1.220000000000000000e+02,4.613142100000000028e+02
1.230000000000000000e+02,4.620244099999999889e+02
1.240000000000000000e+02,4.629320399999999722e+02
1.250000000000000000e+02,4.638665500000000179e+02
1.260000000000000000e+02,4.648554399999999873e+02
1.270000000000000000e+02,4.658528099999999768e+02
1.280000000000000000e+02,4.668728600000000029e+02
1.290000000000000000e+02,4.678862899999999740e+02
1.300000000000000000e+02,4.689059799999999996e+02
1.310000000000000000e+02,4.699155600000000277e+02
1.320000000000000000e+02,4.709249599999999987e+02
1.330000000000000000e+02,4.719278899999999908e+02
1.340000000000000000e+02,4.729233399999999961e+02
1.350000000000000000e+02,4.739021000000000186e+02
1.360000000000000000e+02,4.748790000000000191e+02
1.370000000000000000e+02,4.758410600000000272e+02
1.380000000000000000e+02,4.768001399999999990e+02
1.390000000000000000e+02,4.777421899999999937e+02
1.400000000000000000e+02,4.786888400000000274e+02
1.410000000000000000e+02,4.796204200000000242e+02
1.420000000000000000e+02,4.805401899999999955e+02
1.430000000000000000e+02,4.814587700000000154e+02
1.440000000000000000e+02,4.823731099999999969e+02
1.450000000000000000e+02,4.832714500000000157e+02
1.460000000000000000e+02,4.841692499999999768e+02
1.470000000000000000e+02,4.850638400000000274e+02
1.480000000000000000e+02,4.859488499999999931e+02
1.490000000000000000e+02,4.868235799999999927e+02
1.500000000000000000e+02,4.877023599999999988e+02
1.510000000000000000e+02,4.885681200000000217e+02
1.520000000000000000e+02,4.894345999999999890e+02
1.530000000000000000e+02,4.902888500000000249e+02
1.540000000000000000e+02,4.911384600000000091e+02
1.550000000000000000e+02,4.919840699999999742e+02
1.560000000000000000e+02,4.928284300000000258e+02
1.570000000000000000e+02,4.936632999999999925e+02
1.580000000000000000e+02,4.944973800000000210e+02
1.590000000000000000e+02,4.950340299999999729e+02
1.600000000000000000e+02,4.955815400000000182e+02
1.610000000000000000e+02,4.963315699999999993e+02
1.620000000000000000e+02,4.970135500000000093e+02
1.630000000000000000e+02,4.977610799999999927e+02
1.640000000000000000e+02,4.985163000000000011e+02
1.650000000000000000e+02,4.992870500000000220e+02
1.660000000000000000e+02,5.000608799999999974e+02
1.670000000000000000e+02,5.008446999999999889e+02
1.680000000000000000e+02,5.016302499999999895e+02
1.690000000000000000e+02,5.024125700000000165e+02
1.700000000000000000e+02,5.031996199999999817e+02
1.710000000000000000e+02,5.039818099999999959e+02
1.720000000000000000e+02,5.047573899999999867e+02
1.730000000000000000e+02,5.055346999999999866e+02
1.740000000000000000e+02,5.063053300000000263e+02
1.750000000000000000e+02,5.070727800000000229e+02
1.760000000000000000e+02,5.078313299999999799e+02
1.770000000000000000e+02,5.085882599999999911e+02
1.780000000000000000e+02,5.093401499999999942e+02
1.790000000000000000e+02,5.100907599999999888e+02
1.800000000000000000e+02,5.108265400000000227e+02
1.810000000000000000e+02,5.115621600000000058e+02
1.820000000000000000e+02,5.122944300000000339e+02
1.830000000000000000e+02,5.130214799999999968e+02
1.840000000000000000e+02,5.137429200000000264e+02
1.850000000000000000e+02,5.144623400000000402e+02
1.860000000000000000e+02,5.151783400000000483e+02
1.870000000000000000e+02,5.158792099999999436e+02
1.880000000000000000e+02,5.165817299999999932e+02
1.890000000000000000e+02,5.172780199999999695e+02
1.900000000000000000e+02,5.179755199999999604e+02
1.910000000000000000e+02,5.186275600000000168e+02
1.920000000000000000e+02,5.192036699999999882e+02
1.930000000000000000e+02,5.197902199999999766e+02
1.940000000000000000e+02,5.203975199999999859e+02
1.950000000000000000e+02,5.210061600000000226e+02
1.960000000000000000e+02,5.216210300000000188e+02
1.970000000000000000e+02,5.222453600000000051e+02
1.980000000000000000e+02,5.228732300000000350e+02
1.990000000000000000e+02,5.235049400000000333e+02
2.000000000000000000e+02,5.241319600000000491e+02
2.010000000000000000e+02,5.247601300000000037e+02
2.020000000000000000e+02,5.253914800000000014e+02
2.030000000000000000e+02,5.260182499999999663e+02
2.040000000000000000e+02,5.266472800000000234e+02
2.050000000000000000e+02,5.272730699999999615e+02
2.060000000000000000e+02,5.278969700000000103e+02
2.070000000000000000e+02,5.285112900000000309e+02
2.080000000000000000e+02,5.291259199999999510e+02
2.090000000000000000e+02,5.297402299999999968e+02
2.100000000000000000e+02,5.303503399999999601e+02
2.110000000000000000e+02,5.309577000000000453e+02
2.120000000000000000e+02,5.315570699999999533e+02
2.130000000000000000e+02,5.321566199999999753e+02
2.140000000000000000e+02,5.327474399999999832e+02
2.150000000000000000e+02,5.333448499999999513e+02
2.160000000000000000e+02,5.339280400000000100e+02
2.170000000000000000e+02,5.345127599999999575e+02
2.180000000000000000e+02,5.350754399999999578e+02
2.190000000000000000e+02,5.355860599999999749e+02
2.200000000000000000e+02,5.361022299999999632e+02
2.210000000000000000e+02,5.366225600000000213e+02
2.220000000000000000e+02,5.371475799999999481e+02
2.230000000000000000e+02,5.376738900000000285e+02
2.240000000000000000e+02,5.381992199999999684e+02
2.250000000000000000e+02,5.387326000000000477e+02
2.260000000000000000e+02,5.392600099999999657e+02
2.270000000000000000e+02,5.397899200000000519e+02
2.280000000000000000e+02,5.403188499999999976e+02
2.290000000000000000e+02,5.408491800000000467e+02
2.300000000000000000e+02,5.413743299999999863e+02
2.310000000000000000e+02,5.419009999999999536e+02
2.320000000000000000e+02,5.424268200000000206e+02
2.330000000000000000e+02,5.429464100000000144e+02
2.340000000000000000e+02,5.434709500000000162e+02
2.350000000000000000e+02,5.439890699999999697e+02
2.360000000000000000e+02,5.445106200000000172e+02
2.370000000000000000e+02,5.450212999999999965e+02
2.380000000000000000e+02,5.455377200000000357e+02
2.390000000000000000e+02,5.460479100000000017e+02
2.400000000000000000e+02,5.465573699999999917e+02
2.410000000000000000e+02,5.470631100000000515e+02
2.420000000000000000e+02,5.475689700000000357e+02
2.430000000000000000e+02,5.480701299999999492e+02
2.440000000000000000e+02,5.485704299999999876e+02
2.450000000000000000e+02,5.490685399999999845e+02
2.460000000000000000e+02,5.495668899999999439e+02
2.470000000000000000e+02,5.500586499999999432e+02
2.480000000000000000e+02,5.505379599999999982e+02
2.490000000000000000e+02,5.510018900000000031e+02
2.500000000000000000e+02,5.514613600000000133e+02
2.510000000000000000e+02,5.519232799999999770e+02
2.520000000000000000e+02,5.523816500000000360e+02
2.530000000000000000e+02,5.528407600000000457e+02
2.540000000000000000e+02,5.533052400000000262e+02
2.550000000000000000e+02,5.537630000000000337e+02
2.560000000000000000e+02,5.542264400000000251e+02
2.570000000000000000e+02,5.546909799999999677e+02
2.580000000000000000e+02,5.551527099999999564e+02
2.590000000000000000e+02,5.556158400000000483e+02
2.600000000000000000e+02,5.560786699999999882e+02
2.610000000000000000e+02,5.565439499999999953e+02
2.620000000000000000e+02,5.570101899999999659e+02
2.630000000000000000e+02,5.574738200000000461e+02
2.640000000000000000e+02,5.579404299999999921e+02
2.650000000000000000e+02,5.584031400000000076e+02
2.660000000000000000e+02,5.588684700000000021e+02
2.670000000000000000e+02,5.593347199999999475e+02
2.680000000000000000e+02,5.597987100000000282e+02
2.690000000000000000e+02,5.602674600000000282e+02
2.700000000000000000e+02,5.607359000000000151e+02
2.710000000000000000e+02,5.611992800000000443e+02
2.720000000000000000e+02,5.616694899999999961e+02
2.730000000000000000e+02,5.621391599999999471e+02
2.740000000000000000e+02,5.626073599999999715e+02
2.750000000000000000e+02,5.630792199999999639e+02
2.760000000000000000e+02,5.635491899999999532e+02
2.770000000000000000e+02,5.640212400000000343e+02
2.780000000000000000e+02,5.644990800000000490e+02
2.790000000000000000e+02,5.649733899999999949e+02
2.800000000000000000e+02,5.654491600000000062e+02
2.810000000000000000e+02,5.659150399999999763e+02
2.820000000000000000e+02,5.663883700000000090e+02
2.830000000000000000e+02,5.668607200000000148e+02
2.840000000000000000e+02,5.673322100000000319e+02
2.850000000000000000e+02,5.678084099999999808e+02
2.860000000000000000e+02,5.682860699999999952e+02
2.870000000000000000e+02,5.687699000000000069e+02
2.880000000000000000e+02,5.692612299999999550e+02
2.890000000000000000e+02,5.697543899999999439e+02
2.900000000000000000e+02,5.702578700000000254e+02
2.910000000000000000e+02,5.707625699999999824e+02
2.920000000000000000e+02,5.712753300000000536e+02
2.930000000000000000e+02,5.717971199999999499e+02
2.940000000000000000e+02,5.723273900000000367e+02
2.950000000000000000e+02,5.728599900000000389e+02
2.960000000000000000e+02,5.734051500000000487e+02
2.970000000000000000e+02,5.739596599999999853e+02
2.980000000000000000e+02,5.745190999999999804e+02
2.990000000000000000e+02,5.750922900000000482e+02
3.000000000000000000e+02,5.756748700000000554e+02
3.010000000000000000e+02,5.762703900000000203e+02
3.020000000000000000e+02,5.768742700000000241e+02
3.030000000000000000e+02,5.774945099999999911e+02
3.040000000000000000e+02,5.781270799999999781e+02
3.050000000000000000e+02,5.787767300000000432e+02
3.060000000000000000e+02,5.794359100000000353e+02
3.070000000000000000e+02,5.801152299999999968e+02
3.080000000000000000e+02,5.808096299999999701e+02
3.090000000000000000e+02,5.815227700000000368e+02
3.100000000000000000e+02,5.822540900000000192e+02
3.110000000000000000e+02,5.830041499999999814e+02
3.120000000000000000e+02,5.837778299999999945e+02
3.130000000000000000e+02,5.845699499999999489e+02
3.140000000000000000e+02,5.853851300000000037e+02
3.150000000000000000e+02,5.862252799999999979e+02
3.160000000000000000e+02,5.870838599999999587e+02
3.170000000000000000e+02,5.879731399999999439e+02
3.180000000000000000e+02,5.888815899999999601e+02
3.190000000000000000e+02,5.898165299999999434e+02
3.200000000000000000e+02,5.907711199999999963e+02
3.210000000000000000e+02,5.917518300000000409e+02
3.220000000000000000e+02,5.927515899999999647e+02
3.230000000000000000e+02,5.937714799999999968e+02
3.240000000000000000e+02,5.948117700000000241e+02
3.250000000000000000e+02,5.958641999999999825e+02
3.260000000000000000e+02,5.969349399999999832e+02
3.270000000000000000e+02,5.980179399999999532e+02
3.280000000000000000e+02,5.991043700000000172e+02
3.290000000000000000e+02,6.002031200000000126e+02
3.300000000000000000e+02,6.013052400000000262e+02
3.310000000000000000e+02,6.024110699999999952e+02
3.320000000000000000e+02,6.035130599999999959e+02
3.330000000000000000e+02,6.046167599999999993e+02
3.340000000000000000e+02,6.057174700000000485e+02
3.350000000000000000e+02,6.068173199999999952e+02
3.360000000000000000e+02,6.079044800000000350e+02
3.370000000000000000e+02,6.089896199999999453e+02
3.380000000000000000e+02,6.100681200000000217e+02
3.390000000000000000e+02,6.111383100000000468e+02
3.400000000000000000e+02,6.121971399999999903e+02
3.410000000000000000e+02,6.132497600000000375e+02
3.420000000000000000e+02,6.142898599999999760e+02
3.430000000000000000e+02,6.153190899999999601e+02
3.440000000000000000e+02,6.163405199999999695e+02
3.450000000000000000e+02,6.173507100000000491e+02
3.460000000000000000e+02,6.183471700000000055e+02
3.470000000000000000e+02,6.193375899999999774e+02
3.480000000000000000e+02,6.203132900000000518e+02
3.490000000000000000e+02,6.212788100000000213e+02
3.500000000000000000e+02,6.222322400000000471e+02
3.510000000000000000e+02,6.231756599999999935e+02
3.520000000000000000e+02,6.241049799999999550e+02
3.530000000000000000e+02,6.250255700000000161e+02
3.540000000000000000e+02,6.259341399999999567e+02
3.550000000000000000e+02,6.268298999999999523e+02
3.560000000000000000e+02,6.277178999999999860e+02
3.570000000000000000e+02,6.285899699999999939e+02
3.580000000000000000e+02,6.294534899999999880e+02
3.590000000000000000e+02,6.303070099999999911e+02
3.600000000000000000e+02,6.311472800000000234e+02
3.610000000000000000e+02,6.319779700000000275e+02
3.620000000000000000e+02,6.327988299999999526e+02
3.630000000000000000e+02,6.336062600000000202e+02
3.640000000000000000e+02,6.344045999999999594e+02
3.650000000000000000e+02,6.351928699999999708e+02
3.660000000000000000e+02,6.359699699999999893e+02
3.670000000000000000e+02,6.367369400000000041e+02
3.680000000000000000e+02,6.374954199999999673e+02
3.690000000000000000e+02,6.382410899999999856e+02
3.700000000000000000e+02,6.389782099999999900e+02
3.710000000000000000e+02,6.397065400000000182e+02
3.720000000000000000e+02,6.404238299999999526e+02
3.730000000000000000e+02,6.411312299999999595e+02
3.740000000000000000e+02,6.418318500000000313e+02
3.750000000000000000e+02,6.425190400000000182e+02
3.760000000000000000e+02,6.431984899999999925e+02
3.770000000000000000e+02,6.438697499999999536e+02
3.780000000000000000e+02,6.445315600000000131e+02
3.790000000000000000e+02,6.451820699999999533e+02
3.800000000000000000e+02,6.458272699999999986e+02
3.810000000000000000e+02,6.464624000000000024e+02
3.820000000000000000e+02,6.470873400000000402e+02
3.830000000000000000e+02,6.477071499999999560e+02
3.840000000000000000e+02,6.483148800000000165e+02
3.850000000000000000e+02,6.489177200000000312e+02
3.860000000000000000e+02,6.495099500000000035e+02
3.870000000000000000e+02,6.500955800000000409e+02
3.880000000000000000e+02,6.506705299999999852e+02
3.890000000000000000e+02,6.512422500000000127e+02
3.900000000000000000e+02,6.518015100000000075e+02
3.910000000000000000e+02,6.523555900000000065e+02
3.920000000000000000e+02,6.529011199999999917e+02
3.930000000000000000e+02,6.534398800000000165e+02
3.940000000000000000e+02,6.539704600000000028e+02
3.950000000000000000e+02,6.544942600000000539e+02
3.960000000000000000e+02,6.550117199999999684e+02
3.970000000000000000e+02,6.555199000000000069e+02
3.980000000000000000e+02,6.560236800000000130e+02
3.990000000000000000e+02,6.565178200000000288e+02
