# Time [s], Temperature [C]
1.000000000000000000e+00,2.499996900000000011e+01
2.000000000000000000e+00,3.377985400000000027e+01
3.000000000000000000e+00,3.868264400000000336e+01
4.000000000000000000e+00,4.266291400000000067e+01
5.000000000000000000e+00,4.598589299999999724e+01
6.000000000000000000e+00,4.890581900000000104e+01
7.000000000000000000e+00,5.152426499999999976e+01
8.000000000000000000e+00,5.391439100000000195e+01
9.000000000000000000e+00,5.612123900000000276e+01
1.000000000000000000e+01,5.817778400000000261e+01
1.100000000000000000e+01,6.010804399999999958e+01
1.200000000000000000e+01,6.193003099999999961e+01
1.300000000000000000e+01,6.365798999999999808e+01
1.400000000000000000e+01,6.530372599999999750e+01
1.500000000000000000e+01,6.687615999999999872e+01
1.600000000000000000e+01,6.838298000000000343e+01
1.700000000000000000e+01,6.983065000000000566e+01
1.800000000000000000e+01,7.122460200000000441e+01
1.900000000000000000e+01,7.256945000000000334e+01
2.000000000000000000e+01,7.386939200000000483e+01
2.100000000000000000e+01,7.512769299999999362e+01
2.200000000000000000e+01,7.634759499999999832e+01
2.300000000000000000e+01,7.753193699999999922e+01
2.400000000000000000e+01,7.868281600000000253e+01
2.500000000000000000e+01,7.980246699999999294e+01
2.600000000000000000e+01,8.089301299999999628e+01
2.700000000000000000e+01,8.195609299999999564e+01
2.800000000000000000e+01,8.299326299999999890e+01
2.900000000000000000e+01,8.400595099999999604e+01
3.000000000000000000e+01,8.499560499999999763e+01
3.100000000000000000e+01,8.596302000000000021e+01
3.200000000000000000e+01,8.690993500000000438e+01
3.300000000000000000e+01,8.783663900000000524e+01
3.400000000000000000e+01,8.874468199999999740e+01
3.500000000000000000e+01,8.963484200000000612e+01
3.600000000000000000e+01,9.050737800000000277e+01
3.700000000000000000e+01,9.136365499999999429e+01
3.800000000000000000e+01,9.220428499999999872e+01
3.900000000000000000e+01,9.302967800000000409e+01
4.000000000000000000e+01,9.384050799999999981e+01
4.100000000000000000e+01,9.463736000000000104e+01
4.200000000000000000e+01,9.542083700000000590e+01
4.300000000000000000e+01,9.619141399999999464e+01
4.400000000000000000e+01,9.694967699999999411e+01
4.500000000000000000e+01,9.769606000000000279e+01
4.600000000000000000e+01,9.843077900000000113e+01
4.700000000000000000e+01,9.915441099999999608e+01
4.800000000000000000e+01,9.986727899999999636e+01
4.900000000000000000e+01,1.005698900000000009e+02
5.000000000000000000e+01,1.012624399999999980e+02
5.100000000000000000e+01,1.019452299999999951e+02
5.200000000000000000e+01,1.026187400000000025e+02
5.300000000000000000e+01,1.032833499999999987e+02
5.400000000000000000e+01,1.039389900000000040e+02
5.500000000000000000e+01,1.045860700000000065e+02
5.600000000000000000e+01,1.052252399999999994e+02
5.700000000000000000e+01,1.058561899999999980e+02
5.800000000000000000e+01,1.064795500000000033e+02
5.900000000000000000e+01,1.070954700000000059e+02
6.000000000000000000e+01,1.077039299999999997e+02
6.100000000000000000e+01,1.083056100000000015e+02
6.200000000000000000e+01,1.089002799999999951e+02
6.300000000000000000e+01,1.094885500000000036e+02
6.400000000000000000e+01,1.100701099999999997e+02
6.500000000000000000e+01,1.106457699999999988e+02
6.600000000000000000e+01,1.112150500000000051e+02
6.700000000000000000e+01,1.117786499999999990e+02
6.800000000000000000e+01,1.123363599999999991e+02
6.900000000000000000e+01,1.128887100000000032e+02
7.000000000000000000e+01,1.134355099999999936e+02
7.100000000000000000e+01,1.139771400000000057e+02
7.200000000000000000e+01,1.145137600000000049e+02
7.300000000000000000e+01,1.150452400000000068e+02
7.400000000000000000e+01,1.155719500000000011e+02
7.500000000000000000e+01,1.160939500000000066e+02
7.600000000000000000e+01,1.166114299999999986e+02
7.700000000000000000e+01,1.171244599999999991e+02
7.800000000000000000e+01,1.176330899999999957e+02
7.900000000000000000e+01,1.181375599999999935e+02
8.000000000000000000e+01,1.186379799999999989e+02
8.100000000000000000e+01,1.191343099999999993e+02
8.200000000000000000e+01,1.196268100000000061e+02
8.300000000000000000e+01,1.201156600000000054e+02
8.400000000000000000e+01,1.206006500000000017e+02
8.500000000000000000e+01,1.210819900000000047e+02
8.600000000000000000e+01,1.215600100000000054e+02
8.700000000000000000e+01,1.220346200000000039e+02
8.800000000000000000e+01,1.225058599999999984e+02
8.900000000000000000e+01,1.229736500000000063e+02
9.000000000000000000e+01,1.234384699999999953e+02
9.100000000000000000e+01,1.239001899999999949e+02
9.200000000000000000e+01,1.243589599999999962e+02
9.300000000000000000e+01,1.248147400000000005e+02
9.400000000000000000e+01,1.252675200000000046e+02
9.500000000000000000e+01,1.257175500000000028e+02
9.600000000000000000e+01,1.261649599999999936e+02
9.700000000000000000e+01,1.266096399999999988e+02
9.800000000000000000e+01,1.270517899999999969e+02
9.900000000000000000e+01,1.274913700000000034e+02
1.000000000000000000e+02,1.279282900000000041e+02
1.010000000000000000e+02,1.283629500000000121e+02
1.020000000000000000e+02,1.287951799999999878e+02
1.030000000000000000e+02,1.292250500000000102e+02
1.040000000000000000e+02,1.296526499999999942e+02
1.050000000000000000e+02,1.300780799999999999e+02
1.060000000000000000e+02,1.305013099999999895e+02
1.070000000000000000e+02,1.309224900000000105e+02
1.080000000000000000e+02,1.313413799999999867e+02
1.090000000000000000e+02,1.317582999999999913e+02
1.100000000000000000e+02,1.321732900000000086e+02
1.110000000000000000e+02,1.325863200000000006e+02
1.120000000000000000e+02,1.329974100000000021e+02
1.130000000000000000e+02,1.334066899999999976e+02
1.140000000000000000e+02,1.338140999999999963e+02
1.150000000000000000e+02,1.342196999999999889e+02
1.160000000000000000e+02,1.346236000000000104e+02
1.170000000000000000e+02,1.350257300000000100e+02
1.180000000000000000e+02,1.354261199999999974e+02
1.190000000000000000e+02,1.358248600000000010e+02
1.200000000000000000e+02,1.362219100000000083e+02
1.210000000000000000e+02,1.366173100000000034e+02
1.220000000000000000e+02,1.370112200000000087e+02
1.230000000000000000e+02,1.374035299999999893e+02
1.240000000000000000e+02,1.377943400000000054e+02
1.250000000000000000e+02,1.381836999999999875e+02
1.260000000000000000e+02,1.385715600000000052e+02
1.270000000000000000e+02,1.389578099999999949e+02
1.280000000000000000e+02,1.393427900000000079e+02
1.290000000000000000e+02,1.397263499999999965e+02
1.300000000000000000e+02,1.401085199999999986e+02
1.310000000000000000e+02,1.404893800000000113e+02
1.320000000000000000e+02,1.408688699999999869e+02
1.330000000000000000e+02,1.412470399999999984e+02
1.340000000000000000e+02,1.416239799999999889e+02
1.350000000000000000e+02,1.419997400000000027e+02
1.360000000000000000e+02,1.423741599999999892e+02
1.370000000000000000e+02,1.427473599999999863e+02
1.380000000000000000e+02,1.431192900000000066e+02
1.390000000000000000e+02,1.434900100000000123e+02
1.400000000000000000e+02,1.438596000000000004e+02
1.410000000000000000e+02,1.442279699999999991e+02
1.420000000000000000e+02,1.445952800000000025e+02
1.430000000000000000e+02,1.449613999999999976e+02
1.440000000000000000e+02,1.453263900000000035e+02
1.450000000000000000e+02,1.456902300000000139e+02
1.460000000000000000e+02,1.460530400000000100e+02
1.470000000000000000e+02,1.464147199999999884e+02
1.480000000000000000e+02,1.467753099999999904e+02
1.490000000000000000e+02,1.471349199999999939e+02
1.500000000000000000e+02,1.474934399999999926e+02
1.510000000000000000e+02,1.478509099999999989e+02
1.520000000000000000e+02,1.482074000000000069e+02
1.530000000000000000e+02,1.485629399999999976e+02
1.540000000000000000e+02,1.489173700000000053e+02
1.550000000000000000e+02,1.492709000000000117e+02
1.560000000000000000e+02,1.496235499999999945e+02
1.570000000000000000e+02,1.499751100000000008e+02
1.580000000000000000e+02,1.503257800000000088e+02
1.590000000000000000e+02,1.506754300000000057e+02
1.600000000000000000e+02,1.510241399999999885e+02
1.610000000000000000e+02,1.513719600000000014e+02
1.620000000000000000e+02,1.517189199999999971e+02
1.630000000000000000e+02,1.520648799999999881e+02
1.640000000000000000e+02,1.524100200000000029e+02
1.650000000000000000e+02,1.527541999999999973e+02
1.660000000000000000e+02,1.530974600000000123e+02
1.670000000000000000e+02,1.534398799999999881e+02
1.680000000000000000e+02,1.537815099999999973e+02
1.690000000000000000e+02,1.541221799999999860e+02
1.700000000000000000e+02,1.544621300000000019e+02
1.710000000000000000e+02,1.548010600000000068e+02
1.720000000000000000e+02,1.551391399999999976e+02
1.730000000000000000e+02,1.554764600000000030e+02
1.740000000000000000e+02,1.558129099999999880e+02
1.750000000000000000e+02,1.561485099999999875e+02
1.760000000000000000e+02,1.564833399999999983e+02
1.770000000000000000e+02,1.568175699999999892e+02
1.780000000000000000e+02,1.571507900000000006e+02
1.790000000000000000e+02,1.574832299999999918e+02
1.800000000000000000e+02,1.578148199999999974e+02
1.810000000000000000e+02,1.581455699999999922e+02
1.820000000000000000e+02,1.584755900000000111e+02
1.830000000000000000e+02,1.588048599999999908e+02
1.840000000000000000e+02,1.591333500000000072e+02
1.850000000000000000e+02,1.594610600000000034e+02
1.860000000000000000e+02,1.597879299999999887e+02
1.870000000000000000e+02,1.601140599999999949e+02
1.880000000000000000e+02,1.604395000000000095e+02
1.890000000000000000e+02,1.607642199999999946e+02
1.900000000000000000e+02,1.610880600000000129e+02
1.910000000000000000e+02,1.614113299999999924e+02
1.920000000000000000e+02,1.617337300000000084e+02
1.930000000000000000e+02,1.620553299999999979e+02
1.940000000000000000e+02,1.623763299999999958e+02
1.950000000000000000e+02,1.626964700000000050e+02
1.960000000000000000e+02,1.630158800000000099e+02
1.970000000000000000e+02,1.633345899999999915e+02
1.980000000000000000e+02,1.636526599999999974e+02
1.990000000000000000e+02,1.639699999999999989e+02
2.000000000000000000e+02,1.642865799999999865e+02
2.010000000000000000e+02,1.646023700000000076e+02
2.020000000000000000e+02,1.649174800000000118e+02
2.030000000000000000e+02,1.652319500000000119e+02
2.040000000000000000e+02,1.655458399999999983e+02
2.050000000000000000e+02,1.658588300000000118e+02
2.060000000000000000e+02,1.661711599999999862e+02
2.070000000000000000e+02,1.664827400000000068e+02
2.080000000000000000e+02,1.667936100000000010e+02
2.090000000000000000e+02,1.671040800000000104e+02
2.100000000000000000e+02,1.674136499999999899e+02
2.110000000000000000e+02,1.677224899999999934e+02
2.120000000000000000e+02,1.680306500000000085e+02
2.130000000000000000e+02,1.683381799999999942e+02
2.140000000000000000e+02,1.686450199999999882e+02
2.150000000000000000e+02,1.689512300000000096e+02
2.160000000000000000e+02,1.692567300000000046e+02
2.170000000000000000e+02,1.695614899999999921e+02
2.180000000000000000e+02,1.698657100000000071e+02
2.190000000000000000e+02,1.701690999999999860e+02
2.200000000000000000e+02,1.704719200000000114e+02
2.210000000000000000e+02,1.707740900000000011e+02
2.220000000000000000e+02,1.710756399999999928e+02
2.230000000000000000e+02,1.713763999999999896e+02
2.240000000000000000e+02,1.716766800000000046e+02
2.250000000000000000e+02,1.719761499999999899e+02
2.260000000000000000e+02,1.722750100000000089e+02
2.270000000000000000e+02,1.725731700000000046e+02
2.280000000000000000e+02,1.728706799999999930e+02
2.290000000000000000e+02,1.731676199999999994e+02
2.300000000000000000e+02,1.734639699999999891e+02
2.310000000000000000e+02,1.737595100000000059e+02
2.320000000000000000e+02,1.740544299999999964e+02
2.330000000000000000e+02,1.743487399999999923e+02
2.340000000000000000e+02,1.746425500000000000e+02
2.350000000000000000e+02,1.749355199999999968e+02
2.360000000000000000e+02,1.752279100000000085e+02
2.370000000000000000e+02,1.755196200000000033e+02
2.380000000000000000e+02,1.758109000000000037e+02
2.390000000000000000e+02,1.761013900000000092e+02
2.400000000000000000e+02,1.763912200000000041e+02
2.410000000000000000e+02,1.766803899999999885e+02
2.420000000000000000e+02,1.769691599999999880e+02
2.430000000000000000e+02,1.772571299999999894e+02
2.440000000000000000e+02,1.775444200000000023e+02
2.450000000000000000e+02,1.778311199999999985e+02
2.460000000000000000e+02,1.781173400000000129e+02
2.470000000000000000e+02,1.784027900000000102e+02
2.480000000000000000e+02,1.786877000000000066e+02
2.490000000000000000e+02,1.789719699999999989e+02
2.500000000000000000e+02,1.792556199999999933e+02
2.510000000000000000e+02,1.795386699999999962e+02
2.520000000000000000e+02,1.798210599999999886e+02
2.530000000000000000e+02,1.801028599999999926e+02
2.540000000000000000e+02,1.803841099999999926e+02
2.550000000000000000e+02,1.806646299999999883e+02
2.560000000000000000e+02,1.809446100000000115e+02
2.570000000000000000e+02,1.812239500000000021e+02
2.580000000000000000e+02,1.815027599999999950e+02
2.590000000000000000e+02,1.817809100000000058e+02
2.600000000000000000e+02,1.820584399999999903e+02
2.610000000000000000e+02,1.823353400000000022e+02
2.620000000000000000e+02,1.826117199999999912e+02
2.630000000000000000e+02,1.828875400000000013e+02
2.640000000000000000e+02,1.831626300000000072e+02
2.650000000000000000e+02,1.834372299999999996e+02
2.660000000000000000e+02,1.837112600000000100e+02
2.670000000000000000e+02,1.839845599999999877e+02
2.680000000000000000e+02,1.842572600000000023e+02
2.690000000000000000e+02,1.845295900000000131e+02
2.700000000000000000e+02,1.848010999999999910e+02
2.710000000000000000e+02,1.850720200000000091e+02
2.720000000000000000e+02,1.853425000000000011e+02
2.730000000000000000e+02,1.856123499999999922e+02
2.740000000000000000e+02,1.858814800000000105e+02
2.750000000000000000e+02,1.861500900000000058e+02
2.760000000000000000e+02,1.864182600000000036e+02
2.770000000000000000e+02,1.866856699999999876e+02
2.780000000000000000e+02,1.869525500000000022e+02
2.790000000000000000e+02,1.872189799999999877e+02
2.800000000000000000e+02,1.874846599999999910e+02
2.810000000000000000e+02,1.877497899999999902e+02
2.820000000000000000e+02,1.880143400000000042e+02
2.830000000000000000e+02,1.882783499999999890e+02
2.840000000000000000e+02,1.885417899999999918e+02
2.850000000000000000e+02,1.888046300000000031e+02
2.860000000000000000e+02,1.890668799999999976e+02
2.870000000000000000e+02,1.893285799999999881e+02
2.880000000000000000e+02,1.895897099999999966e+02
2.890000000000000000e+02,1.898502499999999884e+02
2.900000000000000000e+02,1.901102400000000046e+02
2.910000000000000000e+02,1.903696700000000135e+02
2.920000000000000000e+02,1.906285200000000088e+02
2.930000000000000000e+02,1.908867999999999938e+02
2.940000000000000000e+02,1.911445200000000000e+02
2.950000000000000000e+02,1.914016699999999958e+02
2.960000000000000000e+02,1.916583300000000065e+02
2.970000000000000000e+02,1.919142600000000130e+02
2.980000000000000000e+02,1.921697499999999934e+02
2.990000000000000000e+02,1.924247100000000046e+02
3.000000000000000000e+02,1.926789899999999989e+02
3.010000000000000000e+02,1.929328199999999924e+02
3.020000000000000000e+02,1.931860800000000040e+02
3.030000000000000000e+02,1.934386599999999987e+02
3.040000000000000000e+02,1.936907799999999895e+02
3.050000000000000000e+02,1.939424099999999953e+02
3.060000000000000000e+02,1.941933300000000031e+02
3.070000000000000000e+02,1.944438000000000102e+02
3.080000000000000000e+02,1.946937900000000070e+02
3.090000000000000000e+02,1.949430499999999995e+02
3.100000000000000000e+02,1.951919399999999882e+02
3.110000000000000000e+02,1.954401900000000012e+02
3.120000000000000000e+02,1.956878199999999879e+02
3.130000000000000000e+02,1.959350599999999929e+02
3.140000000000000000e+02,1.961816699999999969e+02
3.150000000000000000e+02,1.964276700000000062e+02
3.160000000000000000e+02,1.966732800000000054e+02
3.170000000000000000e+02,1.969182399999999973e+02
3.180000000000000000e+02,1.971626699999999914e+02
3.190000000000000000e+02,1.974065699999999879e+02
3.200000000000000000e+02,1.976499499999999898e+02
3.210000000000000000e+02,1.978927600000000098e+02
3.220000000000000000e+02,1.981350400000000036e+02
3.230000000000000000e+02,1.983768599999999935e+02
3.240000000000000000e+02,1.986180899999999951e+02
3.250000000000000000e+02,1.988587300000000084e+02
3.260000000000000000e+02,1.990989399999999989e+02
3.270000000000000000e+02,1.993385299999999916e+02
3.280000000000000000e+02,1.995775800000000118e+02
3.290000000000000000e+02,1.998161800000000028e+02
3.300000000000000000e+02,2.000541800000000023e+02
3.310000000000000000e+02,2.002916899999999885e+02
3.320000000000000000e+02,2.005286099999999863e+02
3.330000000000000000e+02,2.007650600000000054e+02
3.340000000000000000e+02,2.010009799999999984e+02
3.350000000000000000e+02,2.012364200000000096e+02
3.360000000000000000e+02,2.014713000000000136e+02
3.370000000000000000e+02,2.017055400000000134e+02
3.380000000000000000e+02,2.019395000000000095e+02
3.390000000000000000e+02,2.021727099999999950e+02
3.400000000000000000e+02,2.024054299999999955e+02
3.410000000000000000e+02,2.026378200000000049e+02
3.420000000000000000e+02,2.028695099999999911e+02
3.430000000000000000e+02,2.031008099999999956e+02
3.440000000000000000e+02,2.033315000000000055e+02
3.450000000000000000e+02,2.035616300000000081e+02
3.460000000000000000e+02,2.037913800000000037e+02
3.470000000000000000e+02,2.040205100000000016e+02
3.480000000000000000e+02,2.042492399999999861e+02
3.490000000000000000e+02,2.044772900000000107e+02
3.500000000000000000e+02,2.047049599999999998e+02
3.510000000000000000e+02,2.049320800000000133e+02
3.520000000000000000e+02,2.051586499999999944e+02
3.530000000000000000e+02,2.053848700000000065e+02
3.540000000000000000e+02,2.056104100000000017e+02
3.550000000000000000e+02,2.058354799999999898e+02
3.560000000000000000e+02,2.060601000000000056e+02
3.570000000000000000e+02,2.062841899999999953e+02
3.580000000000000000e+02,2.065077499999999873e+02
3.590000000000000000e+02,2.067308199999999943e+02
3.600000000000000000e+02,2.069533999999999878e+02
3.610000000000000000e+02,2.071754799999999932e+02
3.620000000000000000e+02,2.073970899999999915e+02
3.630000000000000000e+02,2.076181599999999889e+02
3.640000000000000000e+02,2.078387500000000045e+02
3.650000000000000000e+02,2.080588799999999878e+02
3.660000000000000000e+02,2.082784399999999891e+02
3.670000000000000000e+02,2.084975300000000118e+02
3.680000000000000000e+02,2.087161600000000021e+02
3.690000000000000000e+02,2.089342699999999979e+02
3.700000000000000000e+02,2.091518700000000024e+02
3.710000000000000000e+02,2.093690599999999904e+02
3.720000000000000000e+02,2.095857100000000059e+02
3.730000000000000000e+02,2.098018299999999954e+02
3.740000000000000000e+02,2.100174599999999998e+02
3.750000000000000000e+02,2.102326999999999941e+02
3.760000000000000000e+02,2.104473000000000127e+02
3.770000000000000000e+02,2.106615400000000022e+02
3.780000000000000000e+02,2.108752399999999909e+02
3.790000000000000000e+02,2.110884700000000009e+02
3.800000000000000000e+02,2.113012699999999882e+02
3.810000000000000000e+02,2.115134600000000091e+02
3.820000000000000000e+02,2.117253000000000043e+02
3.830000000000000000e+02,2.119365799999999922e+02
3.840000000000000000e+02,2.121474900000000048e+02
3.850000000000000000e+02,2.123577600000000132e+02
3.860000000000000000e+02,2.125677300000000116e+02
3.870000000000000000e+02,2.127770500000000027e+02
3.880000000000000000e+02,2.129860400000000027e+02
3.890000000000000000e+02,2.131944599999999923e+02
3.900000000000000000e+02,2.134024000000000001e+02
3.910000000000000000e+02,2.136098800000000040e+02
3.920000000000000000e+02,2.138168799999999976e+02
3.930000000000000000e+02,2.140235000000000127e+02
3.940000000000000000e+02,2.142295100000000048e+02
3.950000000000000000e+02,2.144352399999999932e+02
3.960000000000000000e+02,2.146403200000000027e+02
3.970000000000000000e+02,2.148450599999999895e+02
3.980000000000000000e+02,2.150492600000000039e+02
3.990000000000000000e+02,2.152530500000000018e+02
