# Time [s], Mass [Kg]
1.000000000000000000e+00,1.000000000000000000e+00
2.000000000000000000e+00,1.000000000000000000e+00
3.000000000000000000e+00,1.000000000000000000e+00
4.000000000000000000e+00,1.000000000000000000e+00
5.000000000000000000e+00,1.000000000000000000e+00
6.000000000000000000e+00,9.999997600000000153e-01
7.000000000000000000e+00,9.999980299999999822e-01
8.000000000000000000e+00,9.999873599999999918e-01
9.000000000000000000e+00,9.999360999999999944e-01
1.000000000000000000e+01,9.997597299999999576e-01
1.100000000000000000e+01,9.993005400000000149e-01
1.200000000000000000e+01,9.983631400000000378e-01
1.300000000000000000e+01,9.967296100000000436e-01
1.400000000000000000e+01,9.948102199999999673e-01
1.500000000000000000e+01,9.924210900000000057e-01
1.600000000000000000e+01,9.898057000000000105e-01
1.700000000000000000e+01,9.869419900000000467e-01
1.800000000000000000e+01,9.840259000000000089e-01
1.900000000000000000e+01,9.809446899999999525e-01
2.000000000000000000e+01,9.778558600000000212e-01
2.100000000000000000e+01,9.748118500000000353e-01
2.200000000000000000e+01,9.717462100000000547e-01
2.300000000000000000e+01,9.687438600000000122e-01
2.400000000000000000e+01,9.658579800000000048e-01
2.500000000000000000e+01,9.629523199999999727e-01
2.600000000000000000e+01,9.600344899999999626e-01
2.700000000000000000e+01,9.571127900000000466e-01
2.800000000000000000e+01,9.541251699999999669e-01
2.900000000000000000e+01,9.510931400000000036e-01
3.000000000000000000e+01,9.480542499999999873e-01
3.100000000000000000e+01,9.450203200000000248e-01
3.200000000000000000e+01,9.420090300000000250e-01
3.300000000000000000e+01,9.390439400000000214e-01
3.400000000000000000e+01,9.361252799999999485e-01
3.500000000000000000e+01,9.332463699999999918e-01
3.600000000000000000e+01,9.303899399999999709e-01
3.700000000000000000e+01,9.275354700000000285e-01
3.800000000000000000e+01,9.246671199999999535e-01
3.900000000000000000e+01,9.202429100000000251e-01
4.000000000000000000e+01,9.167606200000000261e-01
4.100000000000000000e+01,9.138660400000000461e-01
4.200000000000000000e+01,9.107844800000000074e-01
4.300000000000000000e+01,9.079437299999999489e-01
4.400000000000000000e+01,9.050914599999999588e-01
4.500000000000000000e+01,9.023208000000000339e-01
4.600000000000000000e+01,8.995686200000000410e-01
4.700000000000000000e+01,8.968043900000000068e-01
4.800000000000000000e+01,8.940398699999999588e-01
4.900000000000000000e+01,8.912376199999999526e-01
5.000000000000000000e+01,8.884352399999999594e-01
5.100000000000000000e+01,8.856163599999999914e-01
5.200000000000000000e+01,8.828163700000000169e-01
5.300000000000000000e+01,8.800293200000000038e-01
5.400000000000000000e+01,8.772758200000000395e-01
5.500000000000000000e+01,8.745498699999999515e-01
5.600000000000000000e+01,8.718541300000000049e-01
5.700000000000000000e+01,8.691796699999999598e-01
5.800000000000000000e+01,8.665187399999999540e-01
5.900000000000000000e+01,8.638641200000000131e-01
6.000000000000000000e+01,8.612101699999999971e-01
6.100000000000000000e+01,8.585560899999999940e-01
6.200000000000000000e+01,8.559024899999999603e-01
6.300000000000000000e+01,8.532544399999999474e-01
6.400000000000000000e+01,8.506153800000000320e-01
6.500000000000000000e+01,8.472921799999999504e-01
6.600000000000000000e+01,8.445277199999999818e-01
6.700000000000000000e+01,8.418679799999999602e-01
6.800000000000000000e+01,8.392833499999999836e-01
6.900000000000000000e+01,8.367412699999999814e-01
7.000000000000000000e+01,8.342037199999999819e-01
7.100000000000000000e+01,8.316686199999999696e-01
7.200000000000000000e+01,8.291206399999999643e-01
7.300000000000000000e+01,8.265662799999999866e-01
7.400000000000000000e+01,8.240035799999999577e-01
7.500000000000000000e+01,8.214406400000000552e-01
7.600000000000000000e+01,8.188797199999999776e-01
7.700000000000000000e+01,8.163260799999999540e-01
7.800000000000000000e+01,8.137804899999999675e-01
7.900000000000000000e+01,8.112439500000000470e-01
8.000000000000000000e+01,8.087145700000000215e-01
8.100000000000000000e+01,8.061897199999999986e-01
8.200000000000000000e+01,8.036661099999999891e-01
8.300000000000000000e+01,8.011409000000000447e-01
8.400000000000000000e+01,7.986117000000000354e-01
8.500000000000000000e+01,7.960773700000000064e-01
8.600000000000000000e+01,7.935373799999999589e-01
8.700000000000000000e+01,7.909925599999999557e-01
8.800000000000000000e+01,7.884438000000000279e-01
8.900000000000000000e+01,7.858923700000000068e-01
9.000000000000000000e+01,7.833390199999999970e-01
9.100000000000000000e+01,7.807842499999999575e-01
9.200000000000000000e+01,7.782275100000000112e-01
9.300000000000000000e+01,7.751724700000000023e-01
9.400000000000000000e+01,7.724281499999999800e-01
9.500000000000000000e+01,7.697685399999999456e-01
9.600000000000000000e+01,7.671266199999999813e-01
9.700000000000000000e+01,7.645046699999999973e-01
9.800000000000000000e+01,7.618792100000000289e-01
9.900000000000000000e+01,7.592557100000000281e-01
1.000000000000000000e+02,7.566275000000000084e-01
1.010000000000000000e+02,7.539964900000000192e-01
1.020000000000000000e+02,7.513606000000000451e-01
1.030000000000000000e+02,7.487192200000000186e-01
1.040000000000000000e+02,7.460702099999999559e-01
1.050000000000000000e+02,7.434114800000000134e-01
1.060000000000000000e+02,7.407408399999999560e-01
1.070000000000000000e+02,7.380557699999999999e-01
1.080000000000000000e+02,7.353543599999999847e-01
1.090000000000000000e+02,7.326350799999999941e-01
1.100000000000000000e+02,7.298971400000000553e-01
1.110000000000000000e+02,7.271398900000000110e-01
1.120000000000000000e+02,7.243631499999999557e-01
1.130000000000000000e+02,7.215669799999999690e-01
1.140000000000000000e+02,7.187512499999999527e-01
1.150000000000000000e+02,7.159157999999999911e-01
1.160000000000000000e+02,7.130598999999999688e-01
1.170000000000000000e+02,7.101829600000000298e-01
1.180000000000000000e+02,7.072837400000000496e-01
1.190000000000000000e+02,7.043609600000000359e-01
1.200000000000000000e+02,7.010287600000000285e-01
1.210000000000000000e+02,6.978734699999999957e-01
1.220000000000000000e+02,6.947625899999999577e-01
1.230000000000000000e+02,6.916590900000000319e-01
1.240000000000000000e+02,6.885529200000000127e-01
1.250000000000000000e+02,6.854335700000000475e-01
1.260000000000000000e+02,6.822969899999999921e-01
1.270000000000000000e+02,6.791384799999999888e-01
1.280000000000000000e+02,6.759548800000000357e-01
1.290000000000000000e+02,6.727431999999999856e-01
1.300000000000000000e+02,6.695014799999999822e-01
1.310000000000000000e+02,6.662281799999999476e-01
1.320000000000000000e+02,6.629224400000000017e-01
1.330000000000000000e+02,6.595844600000000391e-01
1.340000000000000000e+02,6.562147099999999789e-01
1.350000000000000000e+02,6.528144500000000461e-01
1.360000000000000000e+02,6.493851499999999666e-01
1.370000000000000000e+02,6.459287999999999696e-01
1.380000000000000000e+02,6.424472900000000042e-01
1.390000000000000000e+02,6.389428400000000119e-01
1.400000000000000000e+02,6.354175800000000374e-01
1.410000000000000000e+02,6.318737300000000223e-01
1.420000000000000000e+02,6.280034199999999789e-01
1.430000000000000000e+02,6.242687099999999489e-01
1.440000000000000000e+02,6.205779900000000238e-01
1.450000000000000000e+02,6.169112300000000326e-01
1.460000000000000000e+02,6.132599100000000192e-01
1.470000000000000000e+02,6.096185400000000421e-01
1.480000000000000000e+02,6.059858200000000084e-01
1.490000000000000000e+02,6.023600700000000252e-01
1.500000000000000000e+02,5.987414100000000294e-01
1.510000000000000000e+02,5.951297899999999919e-01
1.520000000000000000e+02,5.915257900000000513e-01
1.530000000000000000e+02,5.879300800000000216e-01
1.540000000000000000e+02,5.843434899999999654e-01
1.550000000000000000e+02,5.807671500000000098e-01
1.560000000000000000e+02,5.772019000000000455e-01
1.570000000000000000e+02,5.736487500000000406e-01
1.580000000000000000e+02,5.701084100000000099e-01
1.590000000000000000e+02,5.665815499999999894e-01
1.600000000000000000e+02,5.630686900000000383e-01
1.610000000000000000e+02,5.595703100000000152e-01
1.620000000000000000e+02,5.558522900000000266e-01
1.630000000000000000e+02,5.522485400000000100e-01
1.640000000000000000e+02,5.487034899999999604e-01
1.650000000000000000e+02,5.452001699999999840e-01
1.660000000000000000e+02,5.417307000000000095e-01
1.670000000000000000e+02,5.382896700000000534e-01
1.680000000000000000e+02,5.348742600000000458e-01
1.690000000000000000e+02,5.314822200000000052e-01
1.700000000000000000e+02,5.281122900000000397e-01
1.710000000000000000e+02,5.247634599999999594e-01
1.720000000000000000e+02,5.214355000000000517e-01
1.730000000000000000e+02,5.181282200000000282e-01
1.740000000000000000e+02,5.148419699999999821e-01
1.750000000000000000e+02,5.115771300000000466e-01
1.760000000000000000e+02,5.083342199999999478e-01
1.770000000000000000e+02,5.051141399999999893e-01
1.780000000000000000e+02,5.019177200000000116e-01
1.790000000000000000e+02,4.987458900000000250e-01
1.800000000000000000e+02,4.955998099999999740e-01
1.810000000000000000e+02,4.924807800000000069e-01
1.820000000000000000e+02,4.893903099999999950e-01
1.830000000000000000e+02,4.863302099999999850e-01
1.840000000000000000e+02,4.831361800000000262e-01
1.850000000000000000e+02,4.800429900000000027e-01
1.860000000000000000e+02,4.770228599999999930e-01
1.870000000000000000e+02,4.740650699999999773e-01
1.880000000000000000e+02,4.711665800000000015e-01
1.890000000000000000e+02,4.683265999999999818e-01
1.900000000000000000e+02,4.655476499999999795e-01
1.910000000000000000e+02,4.628337299999999987e-01
1.920000000000000000e+02,4.601907100000000028e-01
1.930000000000000000e+02,4.576259899999999825e-01
1.940000000000000000e+02,4.551485499999999851e-01
1.950000000000000000e+02,4.527691600000000038e-01
1.960000000000000000e+02,4.505004899999999757e-01
1.970000000000000000e+02,4.483573699999999773e-01
1.980000000000000000e+02,4.463567399999999741e-01
1.990000000000000000e+02,4.445175800000000232e-01
2.000000000000000000e+02,4.428600400000000104e-01
2.010000000000000000e+02,4.414041300000000057e-01
2.020000000000000000e+02,4.401668599999999931e-01
2.030000000000000000e+02,4.391585299999999914e-01
2.040000000000000000e+02,4.383776799999999918e-01
2.050000000000000000e+02,4.378074100000000080e-01
2.060000000000000000e+02,4.374155100000000074e-01
2.070000000000000000e+02,4.371605800000000208e-01
2.080000000000000000e+02,4.370012899999999867e-01
2.090000000000000000e+02,4.369038599999999772e-01
2.100000000000000000e+02,4.368445899999999771e-01
2.110000000000000000e+02,4.368082300000000195e-01
2.120000000000000000e+02,4.367856099999999908e-01
2.130000000000000000e+02,4.367712699999999892e-01
2.140000000000000000e+02,4.367620300000000233e-01
2.150000000000000000e+02,4.367559599999999986e-01
2.160000000000000000e+02,4.367519000000000262e-01
2.170000000000000000e+02,4.367491299999999854e-01
2.180000000000000000e+02,4.367472199999999916e-01
2.190000000000000000e+02,4.367458799999999752e-01
2.200000000000000000e+02,4.367449299999999757e-01
2.210000000000000000e+02,4.367442400000000058e-01
2.220000000000000000e+02,4.367437399999999914e-01
2.230000000000000000e+02,4.367433800000000144e-01
2.240000000000000000e+02,4.367431099999999899e-01
2.250000000000000000e+02,4.367428999999999895e-01
2.260000000000000000e+02,4.367427199999999732e-01
2.270000000000000000e+02,4.367425999999999808e-01
2.280000000000000000e+02,4.367425099999999727e-01
2.290000000000000000e+02,4.367424500000000043e-01
2.300000000000000000e+02,4.367423999999999751e-01
2.310000000000000000e+02,4.367423699999999909e-01
2.320000000000000000e+02,4.367423400000000067e-01
2.330000000000000000e+02,4.367423100000000225e-01
2.340000000000000000e+02,4.367422799999999827e-01
2.350000000000000000e+02,4.367422499999999985e-01
2.360000000000000000e+02,4.367422499999999985e-01
2.370000000000000000e+02,4.367422499999999985e-01
2.380000000000000000e+02,4.367422200000000143e-01
2.390000000000000000e+02,4.367422200000000143e-01
2.400000000000000000e+02,4.367422200000000143e-01
2.410000000000000000e+02,4.367422200000000143e-01
2.420000000000000000e+02,4.367421899999999746e-01
2.430000000000000000e+02,4.367421899999999746e-01
2.440000000000000000e+02,4.367421899999999746e-01
2.450000000000000000e+02,4.367421899999999746e-01
2.460000000000000000e+02,4.367421899999999746e-01
2.470000000000000000e+02,4.367421899999999746e-01
2.480000000000000000e+02,4.367421899999999746e-01
2.490000000000000000e+02,4.367421899999999746e-01
2.500000000000000000e+02,4.367421899999999746e-01
2.510000000000000000e+02,4.367421899999999746e-01
2.520000000000000000e+02,4.367421899999999746e-01
2.530000000000000000e+02,4.367421899999999746e-01
2.540000000000000000e+02,4.367421899999999746e-01
2.550000000000000000e+02,4.367421899999999746e-01
2.560000000000000000e+02,4.367421899999999746e-01
2.570000000000000000e+02,4.367421899999999746e-01
2.580000000000000000e+02,4.367421899999999746e-01
2.590000000000000000e+02,4.367421899999999746e-01
2.600000000000000000e+02,4.367421899999999746e-01
2.610000000000000000e+02,4.367421899999999746e-01
2.620000000000000000e+02,4.367421899999999746e-01
2.630000000000000000e+02,4.367421899999999746e-01
2.640000000000000000e+02,4.367421899999999746e-01
2.650000000000000000e+02,4.367421899999999746e-01
2.660000000000000000e+02,4.367421899999999746e-01
2.670000000000000000e+02,4.367421899999999746e-01
2.680000000000000000e+02,4.367421899999999746e-01
2.690000000000000000e+02,4.367421899999999746e-01
2.700000000000000000e+02,4.367421899999999746e-01
2.710000000000000000e+02,4.367421899999999746e-01
2.720000000000000000e+02,4.367421899999999746e-01
2.730000000000000000e+02,4.367421899999999746e-01
2.740000000000000000e+02,4.367421899999999746e-01
2.750000000000000000e+02,4.367421899999999746e-01
2.760000000000000000e+02,4.367421899999999746e-01
2.770000000000000000e+02,4.367421899999999746e-01
2.780000000000000000e+02,4.367421899999999746e-01
2.790000000000000000e+02,4.367421899999999746e-01
2.800000000000000000e+02,4.367421899999999746e-01
2.810000000000000000e+02,4.367421899999999746e-01
2.820000000000000000e+02,4.367421899999999746e-01
2.830000000000000000e+02,4.367421899999999746e-01
2.840000000000000000e+02,4.367421899999999746e-01
2.850000000000000000e+02,4.367421899999999746e-01
2.860000000000000000e+02,4.367421899999999746e-01
2.870000000000000000e+02,4.367421899999999746e-01
2.880000000000000000e+02,4.367421899999999746e-01
2.890000000000000000e+02,4.367421899999999746e-01
2.900000000000000000e+02,4.367421899999999746e-01
2.910000000000000000e+02,4.367421899999999746e-01
2.920000000000000000e+02,4.367421899999999746e-01
2.930000000000000000e+02,4.367421899999999746e-01
2.940000000000000000e+02,4.367421899999999746e-01
2.950000000000000000e+02,4.367421899999999746e-01
2.960000000000000000e+02,4.367421899999999746e-01
2.970000000000000000e+02,4.367421899999999746e-01
2.980000000000000000e+02,4.367421899999999746e-01
2.990000000000000000e+02,4.367421899999999746e-01
3.000000000000000000e+02,4.367421899999999746e-01
3.010000000000000000e+02,4.367421899999999746e-01
3.020000000000000000e+02,4.367421899999999746e-01
3.030000000000000000e+02,4.367421899999999746e-01
3.040000000000000000e+02,4.367421899999999746e-01
3.050000000000000000e+02,4.367421899999999746e-01
3.060000000000000000e+02,4.367421899999999746e-01
3.070000000000000000e+02,4.367421899999999746e-01
3.080000000000000000e+02,4.367421899999999746e-01
3.090000000000000000e+02,4.367421899999999746e-01
3.100000000000000000e+02,4.367421899999999746e-01
3.110000000000000000e+02,4.367421899999999746e-01
3.120000000000000000e+02,4.367421899999999746e-01
3.130000000000000000e+02,4.367421899999999746e-01
3.140000000000000000e+02,4.367421899999999746e-01
3.150000000000000000e+02,4.367421899999999746e-01
3.160000000000000000e+02,4.367421899999999746e-01
3.170000000000000000e+02,4.367421899999999746e-01
3.180000000000000000e+02,4.367421899999999746e-01
3.190000000000000000e+02,4.367421899999999746e-01
3.200000000000000000e+02,4.367421899999999746e-01
3.210000000000000000e+02,4.367421899999999746e-01
3.220000000000000000e+02,4.367421899999999746e-01
3.230000000000000000e+02,4.367421899999999746e-01
3.240000000000000000e+02,4.367421899999999746e-01
3.250000000000000000e+02,4.367421899999999746e-01
3.260000000000000000e+02,4.367421899999999746e-01
3.270000000000000000e+02,4.367421899999999746e-01
3.280000000000000000e+02,4.367421899999999746e-01
3.290000000000000000e+02,4.367421899999999746e-01
3.300000000000000000e+02,4.367421899999999746e-01
3.310000000000000000e+02,4.367421899999999746e-01
3.320000000000000000e+02,4.367421899999999746e-01
3.330000000000000000e+02,4.367421899999999746e-01
3.340000000000000000e+02,4.367421899999999746e-01
3.350000000000000000e+02,4.367421899999999746e-01
3.360000000000000000e+02,4.367421899999999746e-01
3.370000000000000000e+02,4.367421899999999746e-01
3.380000000000000000e+02,4.367421899999999746e-01
3.390000000000000000e+02,4.367421899999999746e-01
3.400000000000000000e+02,4.367421899999999746e-01
3.410000000000000000e+02,4.367421899999999746e-01
3.420000000000000000e+02,4.367421899999999746e-01
3.430000000000000000e+02,4.367421899999999746e-01
3.440000000000000000e+02,4.367421899999999746e-01
3.450000000000000000e+02,4.367421899999999746e-01
3.460000000000000000e+02,4.367421899999999746e-01
3.470000000000000000e+02,4.367421899999999746e-01
3.480000000000000000e+02,4.367421899999999746e-01
3.490000000000000000e+02,4.367421899999999746e-01
3.500000000000000000e+02,4.367421899999999746e-01
3.510000000000000000e+02,4.367421899999999746e-01
3.520000000000000000e+02,4.367421899999999746e-01
3.530000000000000000e+02,4.367421899999999746e-01
3.540000000000000000e+02,4.367421899999999746e-01
3.550000000000000000e+02,4.367421899999999746e-01
3.560000000000000000e+02,4.367421899999999746e-01
3.570000000000000000e+02,4.367421899999999746e-01
3.580000000000000000e+02,4.367421899999999746e-01
3.590000000000000000e+02,4.367421899999999746e-01
3.600000000000000000e+02,4.367421899999999746e-01
3.610000000000000000e+02,4.367421899999999746e-01
3.620000000000000000e+02,4.367421899999999746e-01
3.630000000000000000e+02,4.367421899999999746e-01
3.640000000000000000e+02,4.367421899999999746e-01
3.650000000000000000e+02,4.367421899999999746e-01
3.660000000000000000e+02,4.367421899999999746e-01
3.670000000000000000e+02,4.367421899999999746e-01
3.680000000000000000e+02,4.367421899999999746e-01
3.690000000000000000e+02,4.367421899999999746e-01
3.700000000000000000e+02,4.367421899999999746e-01
3.710000000000000000e+02,4.367421899999999746e-01
3.720000000000000000e+02,4.367421899999999746e-01
3.730000000000000000e+02,4.367421899999999746e-01
3.740000000000000000e+02,4.367421899999999746e-01
3.750000000000000000e+02,4.367421899999999746e-01
3.760000000000000000e+02,4.367421899999999746e-01
3.770000000000000000e+02,4.367421899999999746e-01
3.780000000000000000e+02,4.367421899999999746e-01
3.790000000000000000e+02,4.367421899999999746e-01
3.800000000000000000e+02,4.367421899999999746e-01
3.810000000000000000e+02,4.367421899999999746e-01
3.820000000000000000e+02,4.367421899999999746e-01
3.830000000000000000e+02,4.367421899999999746e-01
3.840000000000000000e+02,4.367421899999999746e-01
3.850000000000000000e+02,4.367421899999999746e-01
3.860000000000000000e+02,4.367421899999999746e-01
3.870000000000000000e+02,4.367421899999999746e-01
3.880000000000000000e+02,4.367421899999999746e-01
3.890000000000000000e+02,4.367421899999999746e-01
3.900000000000000000e+02,4.367421899999999746e-01
3.910000000000000000e+02,4.367421899999999746e-01
3.920000000000000000e+02,4.367421899999999746e-01
3.930000000000000000e+02,4.367421899999999746e-01
3.940000000000000000e+02,4.367421899999999746e-01
3.950000000000000000e+02,4.367421899999999746e-01
3.960000000000000000e+02,4.367421899999999746e-01
3.970000000000000000e+02,4.367421899999999746e-01
3.980000000000000000e+02,4.367421899999999746e-01
3.990000000000000000e+02,4.367421899999999746e-01
