# Time [s], Convective Heat Transfer Coefficient [W/m2K]
1.000000000000000000e+00,0.000000000000000000e+00
2.000000000000000000e+00,0.000000000000000000e+00
3.000000000000000000e+00,0.000000000000000000e+00
4.000000000000000000e+00,1.915079995362458862e-02
5.000000000000000000e+00,3.040000000141642594e-02
6.000000000000000000e+00,5.110202618333640340e-02
7.000000000000000000e+00,8.147364784639722635e-02
8.000000000000000000e+00,1.226205770978392312e-01
9.000000000000000000e+00,1.749196408411577419e-01
1.000000000000000000e+01,2.384776468846242503e-01
1.100000000000000000e+01,3.129310501084945351e-01
1.200000000000000000e+01,3.974358475281556391e-01
1.300000000000000000e+01,4.909441335247684002e-01
1.400000000000000000e+01,5.922465138436822096e-01
1.500000000000000000e+01,7.001349810556312114e-01
1.600000000000000000e+01,8.134523920331119262e-01
1.700000000000000000e+01,9.311320606778992204e-01
1.800000000000000000e+01,1.052228283035940626e+00
1.900000000000000000e+01,1.175906452891705367e+00
2.000000000000000000e+01,1.301440753017205409e+00
2.100000000000000000e+01,1.428221193050524418e+00
2.200000000000000000e+01,1.555715778601657329e+00
2.300000000000000000e+01,1.683485483992700038e+00
2.400000000000000000e+01,1.811155127245482221e+00
2.500000000000000000e+01,1.938410116460846710e+00
2.600000000000000000e+01,2.064987266126238286e+00
2.700000000000000000e+01,2.190669814266134274e+00
2.800000000000000000e+01,2.315281564611026521e+00
2.900000000000000000e+01,2.438681108244523887e+00
3.000000000000000000e+01,2.560743771959517634e+00
3.100000000000000000e+01,2.681379199371130451e+00
3.200000000000000000e+01,2.800510371619126637e+00
3.300000000000000000e+01,2.918077112715065091e+00
3.400000000000000000e+01,3.034034842688235756e+00
3.500000000000000000e+01,3.148349710704057003e+00
3.600000000000000000e+01,3.260991280552108407e+00
3.700000000000000000e+01,3.371945584170650712e+00
3.800000000000000000e+01,3.481193474585267733e+00
3.900000000000000000e+01,3.588730463478859711e+00
4.000000000000000000e+01,3.694551669289611429e+00
4.100000000000000000e+01,3.798657061454873141e+00
4.200000000000000000e+01,3.901049927502384662e+00
4.300000000000000000e+01,4.001731381181007130e+00
4.400000000000000000e+01,4.100710772813832783e+00
4.500000000000000000e+01,4.197999377849248148e+00
4.600000000000000000e+01,4.293609796688174995e+00
4.700000000000000000e+01,4.387555275247211561e+00
4.800000000000000000e+01,4.479850722976711275e+00
4.900000000000000000e+01,4.570519223247912599e+00
5.000000000000000000e+01,4.659580527909111147e+00
5.100000000000000000e+01,4.747059123799033387e+00
5.200000000000000000e+01,4.832974777720941084e+00
5.300000000000000000e+01,4.917353861920353175e+00
5.400000000000000000e+01,5.000225024201416346e+00
5.500000000000000000e+01,5.081618740995267558e+00
5.600000000000000000e+01,5.161557656385416415e+00
5.700000000000000000e+01,5.240074370156720285e+00
5.800000000000000000e+01,5.317196387259790491e+00
5.900000000000000000e+01,5.392957440484281939e+00
6.000000000000000000e+01,5.467388380003625592e+00
6.100000000000000000e+01,5.540517182558665432e+00
6.200000000000000000e+01,5.612376212403292541e+00
6.300000000000000000e+01,5.682993912803754100e+00
6.400000000000000000e+01,5.752399879189503906e+00
6.500000000000000000e+01,5.820624455967063682e+00
6.600000000000000000e+01,5.887695831074544195e+00
6.700000000000000000e+01,5.953642542507235014e+00
6.800000000000000000e+01,6.018492206676754108e+00
6.900000000000000000e+01,6.082272595438565688e+00
7.000000000000000000e+01,6.145010632104504822e+00
7.100000000000000000e+01,6.206731693764542257e+00
7.200000000000000000e+01,6.267461410714131986e+00
7.300000000000000000e+01,6.327224982996694891e+00
7.400000000000000000e+01,6.386046432368186032e+00
7.500000000000000000e+01,6.443948641545434342e+00
7.600000000000000000e+01,6.500954082429998948e+00
7.700000000000000000e+01,6.557085306940532377e+00
7.800000000000000000e+01,6.612363462646539070e+00
7.900000000000000000e+01,6.666809694483078808e+00
8.000000000000000000e+01,6.720447474888963768e+00
8.100000000000000000e+01,6.773293491275069300e+00
8.200000000000000000e+01,6.825365954227019749e+00
8.300000000000000000e+01,6.876684233723596051e+00
8.400000000000000000e+01,6.927266823083540359e+00
8.500000000000000000e+01,6.977132365349237197e+00
8.600000000000000000e+01,7.026299882116269657e+00
8.700000000000000000e+01,7.074788516945560879e+00
8.800000000000000000e+01,7.122619146630448483e+00
8.900000000000000000e+01,7.169808124094251944e+00
9.000000000000000000e+01,7.216374544728639151e+00
9.100000000000000000e+01,7.262333862242276616e+00
9.200000000000000000e+01,7.307701189096077243e+00
9.300000000000000000e+01,7.352490238081585971e+00
9.400000000000000000e+01,7.396712767524472376e+00
9.500000000000000000e+01,7.440381658919710262e+00
9.600000000000000000e+01,7.483506673581325153e+00
9.700000000000000000e+01,7.526099384915696966e+00
9.800000000000000000e+01,7.568169604400600825e+00
9.900000000000000000e+01,7.609727501457600241e+00
1.000000000000000000e+02,7.650782185781630496e+00
1.010000000000000000e+02,7.691342754358485578e+00
1.020000000000000000e+02,7.731418489290569518e+00
1.030000000000000000e+02,7.771018268379647154e+00
1.040000000000000000e+02,7.810150203353718901e+00
1.050000000000000000e+02,7.848823389429054664e+00
1.060000000000000000e+02,7.887044660017880737e+00
1.070000000000000000e+02,7.924822051530758138e+00
1.080000000000000000e+02,7.962163086067479689e+00
1.090000000000000000e+02,7.999074796817341237e+00
1.100000000000000000e+02,8.035564295593196960e+00
1.110000000000000000e+02,8.071638231614311820e+00
1.120000000000000000e+02,8.107302991370465506e+00
1.130000000000000000e+02,8.142564358133070002e+00
1.140000000000000000e+02,8.177429639490734203e+00
1.150000000000000000e+02,8.211904306235474849e+00
1.160000000000000000e+02,8.245993619453251711e+00
1.170000000000000000e+02,8.279704176768044377e+00
1.180000000000000000e+02,8.313041318848654271e+00
1.190000000000000000e+02,8.346009180642161240e+00
1.200000000000000000e+02,8.378613407228201027e+00
1.210000000000000000e+02,8.410858779824950560e+00
1.220000000000000000e+02,8.442750235023018135e+00
1.230000000000000000e+02,8.474291881867065612e+00
1.240000000000000000e+02,8.505487194985050792e+00
1.250000000000000000e+02,8.536363616657952846e+00
1.260000000000000000e+02,8.566892911020943302e+00
1.270000000000000000e+02,8.597086733238082701e+00
1.280000000000000000e+02,8.626949149505483305e+00
1.290000000000000000e+02,8.656487366752504187e+00
1.300000000000000000e+02,8.685708059138391945e+00
1.310000000000000000e+02,8.714616000847193789e+00
1.320000000000000000e+02,8.743217805451461544e+00
1.330000000000000000e+02,8.771517151371272192e+00
1.340000000000000000e+02,8.799515935489091945e+00
1.350000000000000000e+02,8.827216733425277795e+00
1.360000000000000000e+02,8.854619195215995830e+00
1.370000000000000000e+02,8.881725180125307872e+00
1.380000000000000000e+02,8.908535149133216535e+00
1.390000000000000000e+02,8.935048792868906631e+00
1.400000000000000000e+02,8.961268114647090499e+00
1.410000000000000000e+02,8.987192435184720551e+00
1.420000000000000000e+02,9.012823656791580262e+00
1.430000000000000000e+02,9.038162750717926741e+00
1.440000000000000000e+02,9.063209212925823266e+00
1.450000000000000000e+02,9.087964930743961389e+00
1.460000000000000000e+02,9.112429183618381501e+00
1.470000000000000000e+02,9.136602638622035144e+00
1.480000000000000000e+02,9.160486057732803999e+00
1.490000000000000000e+02,9.184080294999844796e+00
1.500000000000000000e+02,9.207383532241729895e+00
1.510000000000000000e+02,9.230395879329336140e+00
1.520000000000000000e+02,9.253117274492645095e+00
1.530000000000000000e+02,9.275546807542687233e+00
1.540000000000000000e+02,9.297683416414004753e+00
1.550000000000000000e+02,9.319526428711476740e+00
1.560000000000000000e+02,9.341073673323364801e+00
1.570000000000000000e+02,9.362323516651173350e+00
1.580000000000000000e+02,9.383273253392516722e+00
1.590000000000000000e+02,9.403922702548408452e+00
1.600000000000000000e+02,9.424268351706418301e+00
1.610000000000000000e+02,9.444307364166897756e+00
1.620000000000000000e+02,9.464037562304067563e+00
1.630000000000000000e+02,9.483455459476191507e+00
1.640000000000000000e+02,9.502573785408115370e+00
1.650000000000000000e+02,9.521374033042459217e+00
1.660000000000000000e+02,9.539861607076661087e+00
1.670000000000000000e+02,9.558039603018922747e+00
1.680000000000000000e+02,9.575907959138854508e+00
1.690000000000000000e+02,9.593461989104820731e+00
1.700000000000000000e+02,9.610695125729948884e+00
1.710000000000000000e+02,9.627598824355407814e+00
1.720000000000000000e+02,9.644165361104706236e+00
1.730000000000000000e+02,9.660387562282457097e+00
1.740000000000000000e+02,9.676260290064012892e+00
1.750000000000000000e+02,9.691777912089005298e+00
1.760000000000000000e+02,9.706937162527360385e+00
1.770000000000000000e+02,9.721734996040776622e+00
1.780000000000000000e+02,9.736170187022667122e+00
1.790000000000000000e+02,9.750241207343631089e+00
1.800000000000000000e+02,9.763947457028377741e+00
1.810000000000000000e+02,9.777289984662608902e+00
1.820000000000000000e+02,9.790268899842695660e+00
1.830000000000000000e+02,9.802886309005110377e+00
1.840000000000000000e+02,9.815144345872676368e+00
1.850000000000000000e+02,9.827046990340933874e+00
1.860000000000000000e+02,9.838597266366843286e+00
1.870000000000000000e+02,9.849800512861593305e+00
1.880000000000000000e+02,9.860662313172596782e+00
1.890000000000000000e+02,9.871188375511035673e+00
1.900000000000000000e+02,9.881386453162697592e+00
1.910000000000000000e+02,9.891264173758548495e+00
1.920000000000000000e+02,9.900830239229266638e+00
1.930000000000000000e+02,9.910093109043417670e+00
1.940000000000000000e+02,9.919063029973850476e+00
1.950000000000000000e+02,9.927749768516594742e+00
1.960000000000000000e+02,9.936410779759814460e+00
1.970000000000000000e+02,9.944726490853122769e+00
1.980000000000000000e+02,9.952789967982056396e+00
1.990000000000000000e+02,9.960624487992522091e+00
2.000000000000000000e+02,9.968229823752787766e+00
2.010000000000000000e+02,9.975608895740972315e+00
2.020000000000000000e+02,9.982771273220240715e+00
2.030000000000000000e+02,9.989727967928811125e+00
2.040000000000000000e+02,9.996492013894977546e+00
2.050000000000000000e+02,1.000307658653139420e+01
2.060000000000000000e+02,1.000949629159961241e+01
2.070000000000000000e+02,1.001576436002090986e+01
2.080000000000000000e+02,1.002189359309705274e+01
2.090000000000000000e+02,1.002789671798915805e+01
2.100000000000000000e+02,1.003378557748624900e+01
2.110000000000000000e+02,1.003957206713063677e+01
2.120000000000000000e+02,1.004526628124565235e+01
2.130000000000000000e+02,1.005087907449659035e+01
2.140000000000000000e+02,1.005642032311662426e+01
2.150000000000000000e+02,1.006189997241450129e+01
2.160000000000000000e+02,1.006732572764433264e+01
2.170000000000000000e+02,1.007270629756501990e+01
2.180000000000000000e+02,1.007805012204154416e+01
2.190000000000000000e+02,1.008336399252216964e+01
2.200000000000000000e+02,1.008865582146499129e+01
2.210000000000000000e+02,1.009393119004631245e+01
2.220000000000000000e+02,1.009919657417063199e+01
2.230000000000000000e+02,1.010445784945133774e+01
2.240000000000000000e+02,1.010972029438636888e+01
2.250000000000000000e+02,1.011594854921184705e+01
2.260000000000000000e+02,1.012170811791548708e+01
2.270000000000000000e+02,1.012731276523368074e+01
2.280000000000000000e+02,1.013284896640348975e+01
2.290000000000000000e+02,1.013834233914700178e+01
2.300000000000000000e+02,1.014381998153005249e+01
2.310000000000000000e+02,1.014929830568095603e+01
2.320000000000000000e+02,1.015478945272837130e+01
2.330000000000000000e+02,1.016030449069465647e+01
2.340000000000000000e+02,1.016585047476386450e+01
2.350000000000000000e+02,1.017143420248559949e+01
2.360000000000000000e+02,1.017706051934152889e+01
2.370000000000000000e+02,1.018273266772042973e+01
2.380000000000000000e+02,1.018845624240367442e+01
2.390000000000000000e+02,1.019423253103511584e+01
2.400000000000000000e+02,1.020006585148207456e+01
2.410000000000000000e+02,1.020595903886934330e+01
2.420000000000000000e+02,1.021191423945875520e+01
2.430000000000000000e+02,1.021793504462285185e+01
2.440000000000000000e+02,1.022402401825270069e+01
2.450000000000000000e+02,1.023018314984529020e+01
2.460000000000000000e+02,1.023641642708364508e+01
2.470000000000000000e+02,1.024272446749204946e+01
2.480000000000000000e+02,1.024911256240959823e+01
2.490000000000000000e+02,1.025558230004208937e+01
2.500000000000000000e+02,1.026213647908738480e+01
2.510000000000000000e+02,1.026877754645546581e+01
2.520000000000000000e+02,1.027551025987987643e+01
2.530000000000000000e+02,1.028233646829163384e+01
2.540000000000000000e+02,1.028925922159169559e+01
2.550000000000000000e+02,1.029628353503363769e+01
2.560000000000000000e+02,1.030612592403074323e+01
2.570000000000000000e+02,1.031416537780406273e+01
2.580000000000000000e+02,1.032173030859265594e+01
2.590000000000000000e+02,1.032930424467999053e+01
2.600000000000000000e+02,1.033693567077411224e+01
2.610000000000000000e+02,1.034466862739115989e+01
2.620000000000000000e+02,1.035252329470504051e+01
2.630000000000000000e+02,1.036051230639610843e+01
2.640000000000000000e+02,1.036864515888314742e+01
2.650000000000000000e+02,1.037692779791959019e+01
2.660000000000000000e+02,1.038536514084888651e+01
2.670000000000000000e+02,1.039396476728960295e+01
2.680000000000000000e+02,1.040273170285182580e+01
2.690000000000000000e+02,1.041167351383595374e+01
2.700000000000000000e+02,1.042079564794687130e+01
2.710000000000000000e+02,1.043010435575392769e+01
2.720000000000000000e+02,1.043961065545073374e+01
2.730000000000000000e+02,1.044931881470520629e+01
2.740000000000000000e+02,1.045923828781590004e+01
2.750000000000000000e+02,1.046937917812230623e+01
2.760000000000000000e+02,1.047974998905549882e+01
2.770000000000000000e+02,1.049036348610851022e+01
2.780000000000000000e+02,1.050122550267667343e+01
2.790000000000000000e+02,1.051235110794006999e+01
2.800000000000000000e+02,1.052375160863661030e+01
2.810000000000000000e+02,1.053543785188088577e+01
2.820000000000000000e+02,1.054742632689757365e+01
2.830000000000000000e+02,1.055972943474203340e+01
2.840000000000000000e+02,1.057236254355658289e+01
2.850000000000000000e+02,1.058534154119784354e+01
2.860000000000000000e+02,1.059868271390473815e+01
2.870000000000000000e+02,1.061240512029698557e+01
2.880000000000000000e+02,1.062652380410467323e+01
2.890000000000000000e+02,1.064106048205401578e+01
2.900000000000000000e+02,1.065603539664554944e+01
2.910000000000000000e+02,1.067147060791273283e+01
2.920000000000000000e+02,1.068738554094768745e+01
2.930000000000000000e+02,1.070380538324310038e+01
2.940000000000000000e+02,1.072075323361076649e+01
2.950000000000000000e+02,1.074415134815842165e+01
2.960000000000000000e+02,1.076353143219957076e+01
2.970000000000000000e+02,1.078239302687509493e+01
2.980000000000000000e+02,1.080182155814733491e+01
2.990000000000000000e+02,1.082183290068021542e+01
3.000000000000000000e+02,1.084252513610738688e+01
3.010000000000000000e+02,1.086391356432423905e+01
3.020000000000000000e+02,1.088603626440933780e+01
3.030000000000000000e+02,1.090891100155601201e+01
3.040000000000000000e+02,1.093256577379826844e+01
3.050000000000000000e+02,1.095701778607410404e+01
3.060000000000000000e+02,1.098228723968634313e+01
3.070000000000000000e+02,1.100838844036999475e+01
3.080000000000000000e+02,1.103533778789621955e+01
3.090000000000000000e+02,1.106314833984300883e+01
3.100000000000000000e+02,1.109183272046457702e+01
3.110000000000000000e+02,1.112139316767165198e+01
3.120000000000000000e+02,1.115182979026313070e+01
3.130000000000000000e+02,1.118313621894242438e+01
3.140000000000000000e+02,1.121528517487764809e+01
3.150000000000000000e+02,1.124822224055654196e+01
3.160000000000000000e+02,1.128186514470796808e+01
3.170000000000000000e+02,1.131609151881630559e+01
3.180000000000000000e+02,1.135073232400138288e+01
3.190000000000000000e+02,1.138557232840306455e+01
3.200000000000000000e+02,1.142037892737102212e+01
3.210000000000000000e+02,1.145489185640318830e+01
3.220000000000000000e+02,1.148887658110470689e+01
3.230000000000000000e+02,1.152211926751416016e+01
3.240000000000000000e+02,1.155447446992394411e+01
3.250000000000000000e+02,1.158583780399263752e+01
3.260000000000000000e+02,1.161617397919822103e+01
3.270000000000000000e+02,1.164548804549977667e+01
3.280000000000000000e+02,1.167380657186538961e+01
3.290000000000000000e+02,1.170118586639904201e+01
3.300000000000000000e+02,1.172768410572667896e+01
3.310000000000000000e+02,1.175336264104570994e+01
3.320000000000000000e+02,1.177828625780930061e+01
3.330000000000000000e+02,1.180250704288608432e+01
3.340000000000000000e+02,1.182608178263301291e+01
3.350000000000000000e+02,1.184905474883062837e+01
3.360000000000000000e+02,1.187146745632015765e+01
3.370000000000000000e+02,1.189335626902523657e+01
3.380000000000000000e+02,1.191475640109264766e+01
3.390000000000000000e+02,1.193569046027907810e+01
3.400000000000000000e+02,1.195618678575270977e+01
3.410000000000000000e+02,1.197626630859385699e+01
3.420000000000000000e+02,1.199594765295654852e+01
3.430000000000000000e+02,1.201524734751261292e+01
3.440000000000000000e+02,1.203418188954095491e+01
3.450000000000000000e+02,1.205276436977867505e+01
3.460000000000000000e+02,1.207100774581619085e+01
3.470000000000000000e+02,1.208892485044899345e+01
3.480000000000000000e+02,1.210652871905238293e+01
3.490000000000000000e+02,1.212382534528579825e+01
3.500000000000000000e+02,1.214082800095608938e+01
3.510000000000000000e+02,1.215754343709197194e+01
3.520000000000000000e+02,1.217397821720736850e+01
3.530000000000000000e+02,1.219014329138132524e+01
3.540000000000000000e+02,1.220604451317309369e+01
3.550000000000000000e+02,1.222168772459484032e+01
3.560000000000000000e+02,1.223707961822772816e+01
3.570000000000000000e+02,1.225222585724073809e+01
3.580000000000000000e+02,1.226713155693010115e+01
3.590000000000000000e+02,1.228180261241406157e+01
3.600000000000000000e+02,1.229624646535571841e+01
3.610000000000000000e+02,1.231046451815941545e+01
3.620000000000000000e+02,1.232446214664531858e+01
3.630000000000000000e+02,1.233824542640921251e+01
3.640000000000000000e+02,1.235181729041264020e+01
3.650000000000000000e+02,1.236518414899546237e+01
3.660000000000000000e+02,1.237834729710374226e+01
3.670000000000000000e+02,1.239131036476504555e+01
3.680000000000000000e+02,1.240407868470582642e+01
3.690000000000000000e+02,1.241665532785168757e+01
3.700000000000000000e+02,1.242904476457218976e+01
3.710000000000000000e+02,1.244124929723788497e+01
3.720000000000000000e+02,1.245327195060841063e+01
3.730000000000000000e+02,1.246511639018727990e+01
3.740000000000000000e+02,1.247678518742774934e+01
3.750000000000000000e+02,1.248828185729584561e+01
3.760000000000000000e+02,1.249960882739925161e+01
3.770000000000000000e+02,1.251076961741501137e+01
3.780000000000000000e+02,1.252176800881195717e+01
3.790000000000000000e+02,1.253260468957948248e+01
3.800000000000000000e+02,1.254328234077344639e+01
3.810000000000000000e+02,1.255380621415694975e+01
3.820000000000000000e+02,1.256417588034855015e+01
3.830000000000000000e+02,1.257439652940322894e+01
3.840000000000000000e+02,1.258446739479074239e+01
3.850000000000000000e+02,1.259439434738979280e+01
3.860000000000000000e+02,1.260417613833669215e+01
3.870000000000000000e+02,1.261381791843971989e+01
3.880000000000000000e+02,1.262332163967931109e+01
3.890000000000000000e+02,1.263268886736700480e+01
3.900000000000000000e+02,1.264191975789246669e+01
3.910000000000000000e+02,1.265101979807329258e+01
3.920000000000000000e+02,1.265998903097528938e+01
3.930000000000000000e+02,1.266883121181476746e+01
3.940000000000000000e+02,1.267754679028889164e+01
3.950000000000000000e+02,1.268613853432483118e+01
3.960000000000000000e+02,1.269460781008252148e+01
3.970000000000000000e+02,1.270295691304848518e+01
3.980000000000000000e+02,1.271118710610170588e+01
