# Time [s], Mass [Kg]
1.000000000000000000e+00,1.000000000000000000e+00
2.000000000000000000e+00,1.000000000000000000e+00
3.000000000000000000e+00,1.000000000000000000e+00
4.000000000000000000e+00,1.000000000000000000e+00
5.000000000000000000e+00,1.000000000000000000e+00
6.000000000000000000e+00,9.999996399999999674e-01
7.000000000000000000e+00,9.999967199999999501e-01
8.000000000000000000e+00,9.999806300000000370e-01
9.000000000000000000e+00,9.999127399999999666e-01
1.000000000000000000e+01,9.996883899999999823e-01
1.100000000000000000e+01,9.991078399999999693e-01
1.200000000000000000e+01,9.979435800000000523e-01
1.300000000000000000e+01,9.961538899999999863e-01
1.400000000000000000e+01,9.939078700000000266e-01
1.500000000000000000e+01,9.913547600000000015e-01
1.600000000000000000e+01,9.886070500000000427e-01
1.700000000000000000e+01,9.857371999999999801e-01
1.800000000000000000e+01,9.827957200000000393e-01
1.900000000000000000e+01,9.798221599999999976e-01
2.000000000000000000e+01,9.768236900000000222e-01
2.100000000000000000e+01,9.737983300000000453e-01
2.200000000000000000e+01,9.707464599999999777e-01
2.300000000000000000e+01,9.676629300000000322e-01
2.400000000000000000e+01,9.645532399999999784e-01
2.500000000000000000e+01,9.614324600000000443e-01
2.600000000000000000e+01,9.583048800000000256e-01
2.700000000000000000e+01,9.551737300000000541e-01
2.800000000000000000e+01,9.520494299999999743e-01
2.900000000000000000e+01,9.489348499999999964e-01
3.000000000000000000e+01,9.458299900000000093e-01
3.100000000000000000e+01,9.427316799999999608e-01
3.200000000000000000e+01,9.396377799999999780e-01
3.300000000000000000e+01,9.365481100000000447e-01
3.400000000000000000e+01,9.334697100000000081e-01
3.500000000000000000e+01,9.304076999999999487e-01
3.600000000000000000e+01,9.252397999999999456e-01
3.700000000000000000e+01,9.220401000000000291e-01
3.800000000000000000e+01,9.191546400000000228e-01
3.900000000000000000e+01,9.158380600000000094e-01
4.000000000000000000e+01,9.128688600000000042e-01
4.100000000000000000e+01,9.097154100000000021e-01
4.200000000000000000e+01,9.067316100000000212e-01
4.300000000000000000e+01,9.037163299999999566e-01
4.400000000000000000e+01,9.007420499999999608e-01
4.500000000000000000e+01,8.978217200000000453e-01
4.600000000000000000e+01,8.948640199999999822e-01
4.700000000000000000e+01,8.919860099999999958e-01
4.800000000000000000e+01,8.890482800000000241e-01
4.900000000000000000e+01,8.861827300000000296e-01
5.000000000000000000e+01,8.832694899999999905e-01
5.100000000000000000e+01,8.804088199999999809e-01
5.200000000000000000e+01,8.775272400000000417e-01
5.300000000000000000e+01,8.746809399999999624e-01
5.400000000000000000e+01,8.718427399999999494e-01
5.500000000000000000e+01,8.690260100000000154e-01
5.600000000000000000e+01,8.662356700000000131e-01
5.700000000000000000e+01,8.634551799999999888e-01
5.800000000000000000e+01,8.607031699999999619e-01
5.900000000000000000e+01,8.579516400000000154e-01
6.000000000000000000e+01,8.544498099999999763e-01
6.100000000000000000e+01,8.515616700000000483e-01
6.200000000000000000e+01,8.487221000000000348e-01
6.300000000000000000e+01,8.459581699999999538e-01
6.400000000000000000e+01,8.432453899999999836e-01
6.500000000000000000e+01,8.405554299999999923e-01
6.600000000000000000e+01,8.378932500000000339e-01
6.700000000000000000e+01,8.352378000000000302e-01
6.800000000000000000e+01,8.325919499999999696e-01
6.900000000000000000e+01,8.299448499999999562e-01
7.000000000000000000e+01,8.272983400000000209e-01
7.100000000000000000e+01,8.246483799999999587e-01
7.200000000000000000e+01,8.219976399999999739e-01
7.300000000000000000e+01,8.193458300000000527e-01
7.400000000000000000e+01,8.166956300000000057e-01
7.500000000000000000e+01,8.140486500000000403e-01
7.600000000000000000e+01,8.114070300000000291e-01
7.700000000000000000e+01,8.087718499999999588e-01
7.800000000000000000e+01,8.061432200000000492e-01
7.900000000000000000e+01,8.035209199999999719e-01
8.000000000000000000e+01,8.009028999999999732e-01
8.100000000000000000e+01,7.982876300000000258e-01
8.200000000000000000e+01,7.956723599999999674e-01
8.300000000000000000e+01,7.930556500000000009e-01
8.400000000000000000e+01,7.904354900000000184e-01
8.500000000000000000e+01,7.878117000000000036e-01
8.600000000000000000e+01,7.851837900000000481e-01
8.700000000000000000e+01,7.825524200000000263e-01
8.800000000000000000e+01,7.793712000000000417e-01
8.900000000000000000e+01,7.765769999999999618e-01
9.000000000000000000e+01,7.738661199999999907e-01
9.100000000000000000e+01,7.711721700000000457e-01
9.200000000000000000e+01,7.685097499999999915e-01
9.300000000000000000e+01,7.658349300000000248e-01
9.400000000000000000e+01,7.631641599999999803e-01
9.500000000000000000e+01,7.604783800000000094e-01
9.600000000000000000e+01,7.577867499999999534e-01
9.700000000000000000e+01,7.550831999999999544e-01
9.800000000000000000e+01,7.523710099999999512e-01
9.900000000000000000e+01,7.496497600000000539e-01
1.000000000000000000e+02,7.469196299999999455e-01
1.010000000000000000e+02,7.441809799999999919e-01
1.020000000000000000e+02,7.414320100000000302e-01
1.030000000000000000e+02,7.386729100000000159e-01
1.040000000000000000e+02,7.359006999999999632e-01
1.050000000000000000e+02,7.331147799999999659e-01
1.060000000000000000e+02,7.303125299999999598e-01
1.070000000000000000e+02,7.274930499999999745e-01
1.080000000000000000e+02,7.246549100000000410e-01
1.090000000000000000e+02,7.217972299999999564e-01
1.100000000000000000e+02,7.189193400000000178e-01
1.110000000000000000e+02,7.160210000000000186e-01
1.120000000000000000e+02,7.131015699999999624e-01
1.130000000000000000e+02,7.101606099999999699e-01
1.140000000000000000e+02,7.071974899999999842e-01
1.150000000000000000e+02,7.037679599999999702e-01
1.160000000000000000e+02,7.005895399999999551e-01
1.170000000000000000e+02,6.974563599999999974e-01
1.180000000000000000e+02,6.943198999999999899e-01
1.190000000000000000e+02,6.911802299999999510e-01
1.200000000000000000e+02,6.880192800000000108e-01
1.210000000000000000e+02,6.848390699999999942e-01
1.220000000000000000e+02,6.816331700000000104e-01
1.230000000000000000e+02,6.784003400000000461e-01
1.240000000000000000e+02,6.751382900000000298e-01
1.250000000000000000e+02,6.718446599999999824e-01
1.260000000000000000e+02,6.685181900000000121e-01
1.270000000000000000e+02,6.651567200000000346e-01
1.280000000000000000e+02,6.617599100000000067e-01
1.290000000000000000e+02,6.583267499999999606e-01
1.300000000000000000e+02,6.548576400000000186e-01
1.310000000000000000e+02,6.513529999999999598e-01
1.320000000000000000e+02,6.478144500000000416e-01
1.330000000000000000e+02,6.442434799999999795e-01
1.340000000000000000e+02,6.406424600000000247e-01
1.350000000000000000e+02,6.370138499999999926e-01
1.360000000000000000e+02,6.333602699999999475e-01
1.370000000000000000e+02,6.293035099999999549e-01
1.380000000000000000e+02,6.254469799999999857e-01
1.390000000000000000e+02,6.216321000000000208e-01
1.400000000000000000e+02,6.178339699999999546e-01
1.410000000000000000e+02,6.140477100000000243e-01
1.420000000000000000e+02,6.102650800000000153e-01
1.430000000000000000e+02,6.064889999999999448e-01
1.440000000000000000e+02,6.027168600000000209e-01
1.450000000000000000e+02,5.989514000000000227e-01
1.460000000000000000e+02,5.951920699999999620e-01
1.470000000000000000e+02,5.914406199999999725e-01
1.480000000000000000e+02,5.876973899999999862e-01
1.490000000000000000e+02,5.839638700000000515e-01
1.500000000000000000e+02,5.802407899999999508e-01
1.510000000000000000e+02,5.765295000000000281e-01
1.520000000000000000e+02,5.728309200000000212e-01
1.530000000000000000e+02,5.691460999999999881e-01
1.540000000000000000e+02,5.654760599999999471e-01
1.550000000000000000e+02,5.618216400000000110e-01
1.560000000000000000e+02,5.581835499999999728e-01
1.570000000000000000e+02,5.542717600000000022e-01
1.580000000000000000e+02,5.505245300000000119e-01
1.590000000000000000e+02,5.468447800000000303e-01
1.600000000000000000e+02,5.432094299999999931e-01
1.610000000000000000e+02,5.396124700000000107e-01
1.620000000000000000e+02,5.360455499999999818e-01
1.630000000000000000e+02,5.325080199999999708e-01
1.640000000000000000e+02,5.289961699999999878e-01
1.650000000000000000e+02,5.255097699999999872e-01
1.660000000000000000e+02,5.220472800000000024e-01
1.670000000000000000e+02,5.186090500000000159e-01
1.680000000000000000e+02,5.151948299999999925e-01
1.690000000000000000e+02,5.118051200000000023e-01
1.700000000000000000e+02,5.084407899999999758e-01
1.710000000000000000e+02,5.051027500000000447e-01
1.720000000000000000e+02,5.017923100000000192e-01
1.730000000000000000e+02,4.985108699999999948e-01
1.740000000000000000e+02,4.952600300000000177e-01
1.750000000000000000e+02,4.920415000000000205e-01
1.760000000000000000e+02,4.888574800000000109e-01
1.770000000000000000e+02,4.857100799999999885e-01
1.780000000000000000e+02,4.823974100000000265e-01
1.790000000000000000e+02,4.792255200000000159e-01
1.800000000000000000e+02,4.761446999999999763e-01
1.810000000000000000e+02,4.731362199999999962e-01
1.820000000000000000e+02,4.701979199999999914e-01
1.830000000000000000e+02,4.673284600000000011e-01
1.840000000000000000e+02,4.645328799999999814e-01
1.850000000000000000e+02,4.618168500000000010e-01
1.860000000000000000e+02,4.591890000000000138e-01
1.870000000000000000e+02,4.566597600000000257e-01
1.880000000000000000e+02,4.542420799999999925e-01
1.890000000000000000e+02,4.519515599999999744e-01
1.900000000000000000e+02,4.498070200000000018e-01
1.910000000000000000e+02,4.478311799999999954e-01
1.920000000000000000e+02,4.460513899999999921e-01
1.930000000000000000e+02,4.444995500000000210e-01
1.940000000000000000e+02,4.432107200000000025e-01
1.950000000000000000e+02,4.422170200000000162e-01
1.960000000000000000e+02,4.415338300000000160e-01
1.970000000000000000e+02,4.411371599999999726e-01
1.980000000000000000e+02,4.409519399999999867e-01
1.990000000000000000e+02,4.408810100000000176e-01
2.000000000000000000e+02,4.408559799999999806e-01
2.010000000000000000e+02,4.408468899999999913e-01
2.020000000000000000e+02,4.408433700000000122e-01
2.030000000000000000e+02,4.408419399999999877e-01
2.040000000000000000e+02,4.408412899999999968e-01
2.050000000000000000e+02,4.408409899999999881e-01
2.060000000000000000e+02,4.408408400000000116e-01
2.070000000000000000e+02,4.408407799999999876e-01
2.080000000000000000e+02,4.408407500000000034e-01
2.090000000000000000e+02,4.408407200000000192e-01
2.100000000000000000e+02,4.408407200000000192e-01
2.110000000000000000e+02,4.408406899999999795e-01
2.120000000000000000e+02,4.408406899999999795e-01
2.130000000000000000e+02,4.408406899999999795e-01
2.140000000000000000e+02,4.408406899999999795e-01
2.150000000000000000e+02,4.408406899999999795e-01
2.160000000000000000e+02,4.408406899999999795e-01
2.170000000000000000e+02,4.408406899999999795e-01
2.180000000000000000e+02,4.408406899999999795e-01
2.190000000000000000e+02,4.408406899999999795e-01
2.200000000000000000e+02,4.408406899999999795e-01
2.210000000000000000e+02,4.408406899999999795e-01
2.220000000000000000e+02,4.408406899999999795e-01
2.230000000000000000e+02,4.408406899999999795e-01
2.240000000000000000e+02,4.408406899999999795e-01
2.250000000000000000e+02,4.408406899999999795e-01
2.260000000000000000e+02,4.408406899999999795e-01
2.270000000000000000e+02,4.408406899999999795e-01
2.280000000000000000e+02,4.408406899999999795e-01
2.290000000000000000e+02,4.408406899999999795e-01
2.300000000000000000e+02,4.408406899999999795e-01
2.310000000000000000e+02,4.408406899999999795e-01
2.320000000000000000e+02,4.408406899999999795e-01
2.330000000000000000e+02,4.408406899999999795e-01
2.340000000000000000e+02,4.408406899999999795e-01
2.350000000000000000e+02,4.408406899999999795e-01
2.360000000000000000e+02,4.408406899999999795e-01
2.370000000000000000e+02,4.408406899999999795e-01
2.380000000000000000e+02,4.408406899999999795e-01
2.390000000000000000e+02,4.408406899999999795e-01
2.400000000000000000e+02,4.408406899999999795e-01
2.410000000000000000e+02,4.408406899999999795e-01
2.420000000000000000e+02,4.408406899999999795e-01
2.430000000000000000e+02,4.408406899999999795e-01
2.440000000000000000e+02,4.408406899999999795e-01
2.450000000000000000e+02,4.408406899999999795e-01
2.460000000000000000e+02,4.408406899999999795e-01
2.470000000000000000e+02,4.408406899999999795e-01
2.480000000000000000e+02,4.408406899999999795e-01
2.490000000000000000e+02,4.408406899999999795e-01
2.500000000000000000e+02,4.408406899999999795e-01
2.510000000000000000e+02,4.408406899999999795e-01
2.520000000000000000e+02,4.408406899999999795e-01
2.530000000000000000e+02,4.408406899999999795e-01
2.540000000000000000e+02,4.408406899999999795e-01
2.550000000000000000e+02,4.408406899999999795e-01
2.560000000000000000e+02,4.408406899999999795e-01
2.570000000000000000e+02,4.408406899999999795e-01
2.580000000000000000e+02,4.408406899999999795e-01
2.590000000000000000e+02,4.408406899999999795e-01
2.600000000000000000e+02,4.408406899999999795e-01
2.610000000000000000e+02,4.408406899999999795e-01
2.620000000000000000e+02,4.408406899999999795e-01
2.630000000000000000e+02,4.408406899999999795e-01
2.640000000000000000e+02,4.408406899999999795e-01
2.650000000000000000e+02,4.408406899999999795e-01
2.660000000000000000e+02,4.408406899999999795e-01
2.670000000000000000e+02,4.408406899999999795e-01
2.680000000000000000e+02,4.408406899999999795e-01
2.690000000000000000e+02,4.408406899999999795e-01
2.700000000000000000e+02,4.408406899999999795e-01
2.710000000000000000e+02,4.408406899999999795e-01
2.720000000000000000e+02,4.408406899999999795e-01
2.730000000000000000e+02,4.408406899999999795e-01
2.740000000000000000e+02,4.408406899999999795e-01
2.750000000000000000e+02,4.408406899999999795e-01
2.760000000000000000e+02,4.408406899999999795e-01
2.770000000000000000e+02,4.408406899999999795e-01
2.780000000000000000e+02,4.408406899999999795e-01
2.790000000000000000e+02,4.408406899999999795e-01
2.800000000000000000e+02,4.408406899999999795e-01
2.810000000000000000e+02,4.408406899999999795e-01
2.820000000000000000e+02,4.408406899999999795e-01
2.830000000000000000e+02,4.408406899999999795e-01
2.840000000000000000e+02,4.408406899999999795e-01
2.850000000000000000e+02,4.408406899999999795e-01
2.860000000000000000e+02,4.408406899999999795e-01
2.870000000000000000e+02,4.408406899999999795e-01
2.880000000000000000e+02,4.408406899999999795e-01
2.890000000000000000e+02,4.408406899999999795e-01
2.900000000000000000e+02,4.408406899999999795e-01
2.910000000000000000e+02,4.408406899999999795e-01
2.920000000000000000e+02,4.408406899999999795e-01
2.930000000000000000e+02,4.408406899999999795e-01
2.940000000000000000e+02,4.408406899999999795e-01
2.950000000000000000e+02,4.408406899999999795e-01
2.960000000000000000e+02,4.408406899999999795e-01
2.970000000000000000e+02,4.408406899999999795e-01
2.980000000000000000e+02,4.408406899999999795e-01
2.990000000000000000e+02,4.408406899999999795e-01
3.000000000000000000e+02,4.408406899999999795e-01
3.010000000000000000e+02,4.408406899999999795e-01
3.020000000000000000e+02,4.408406899999999795e-01
3.030000000000000000e+02,4.408406899999999795e-01
3.040000000000000000e+02,4.408406899999999795e-01
3.050000000000000000e+02,4.408406899999999795e-01
3.060000000000000000e+02,4.408406899999999795e-01
3.070000000000000000e+02,4.408406899999999795e-01
3.080000000000000000e+02,4.408406899999999795e-01
3.090000000000000000e+02,4.408406899999999795e-01
3.100000000000000000e+02,4.408406899999999795e-01
3.110000000000000000e+02,4.408406899999999795e-01
3.120000000000000000e+02,4.408406899999999795e-01
3.130000000000000000e+02,4.408406899999999795e-01
3.140000000000000000e+02,4.408406899999999795e-01
3.150000000000000000e+02,4.408406899999999795e-01
3.160000000000000000e+02,4.408406899999999795e-01
3.170000000000000000e+02,4.408406899999999795e-01
3.180000000000000000e+02,4.408406899999999795e-01
3.190000000000000000e+02,4.408406899999999795e-01
3.200000000000000000e+02,4.408406899999999795e-01
3.210000000000000000e+02,4.408406899999999795e-01
3.220000000000000000e+02,4.408406899999999795e-01
3.230000000000000000e+02,4.408406899999999795e-01
3.240000000000000000e+02,4.408406899999999795e-01
3.250000000000000000e+02,4.408406899999999795e-01
3.260000000000000000e+02,4.408406899999999795e-01
3.270000000000000000e+02,4.408406899999999795e-01
3.280000000000000000e+02,4.408406899999999795e-01
3.290000000000000000e+02,4.408406899999999795e-01
3.300000000000000000e+02,4.408406899999999795e-01
3.310000000000000000e+02,4.408406899999999795e-01
3.320000000000000000e+02,4.408406899999999795e-01
3.330000000000000000e+02,4.408406899999999795e-01
3.340000000000000000e+02,4.408406899999999795e-01
3.350000000000000000e+02,4.408406899999999795e-01
3.360000000000000000e+02,4.408406899999999795e-01
3.370000000000000000e+02,4.408406899999999795e-01
3.380000000000000000e+02,4.408406899999999795e-01
3.390000000000000000e+02,4.408406899999999795e-01
3.400000000000000000e+02,4.408406899999999795e-01
3.410000000000000000e+02,4.408406899999999795e-01
3.420000000000000000e+02,4.408406899999999795e-01
3.430000000000000000e+02,4.408406899999999795e-01
3.440000000000000000e+02,4.408406899999999795e-01
3.450000000000000000e+02,4.408406899999999795e-01
3.460000000000000000e+02,4.408406899999999795e-01
3.470000000000000000e+02,4.408406899999999795e-01
3.480000000000000000e+02,4.408406899999999795e-01
3.490000000000000000e+02,4.408406899999999795e-01
3.500000000000000000e+02,4.408406899999999795e-01
3.510000000000000000e+02,4.408406899999999795e-01
3.520000000000000000e+02,4.408406899999999795e-01
3.530000000000000000e+02,4.408406899999999795e-01
3.540000000000000000e+02,4.408406899999999795e-01
3.550000000000000000e+02,4.408406899999999795e-01
3.560000000000000000e+02,4.408406899999999795e-01
3.570000000000000000e+02,4.408406899999999795e-01
3.580000000000000000e+02,4.408406899999999795e-01
3.590000000000000000e+02,4.408406899999999795e-01
3.600000000000000000e+02,4.408406899999999795e-01
3.610000000000000000e+02,4.408406899999999795e-01
3.620000000000000000e+02,4.408406899999999795e-01
3.630000000000000000e+02,4.408406899999999795e-01
3.640000000000000000e+02,4.408406899999999795e-01
3.650000000000000000e+02,4.408406899999999795e-01
3.660000000000000000e+02,4.408406899999999795e-01
3.670000000000000000e+02,4.408406899999999795e-01
3.680000000000000000e+02,4.408406899999999795e-01
3.690000000000000000e+02,4.408406899999999795e-01
3.700000000000000000e+02,4.408406899999999795e-01
3.710000000000000000e+02,4.408406899999999795e-01
3.720000000000000000e+02,4.408406899999999795e-01
3.730000000000000000e+02,4.408406899999999795e-01
3.740000000000000000e+02,4.408406899999999795e-01
3.750000000000000000e+02,4.408406899999999795e-01
3.760000000000000000e+02,4.408406899999999795e-01
3.770000000000000000e+02,4.408406899999999795e-01
3.780000000000000000e+02,4.408406899999999795e-01
3.790000000000000000e+02,4.408406899999999795e-01
3.800000000000000000e+02,4.408406899999999795e-01
3.810000000000000000e+02,4.408406899999999795e-01
3.820000000000000000e+02,4.408406899999999795e-01
3.830000000000000000e+02,4.408406899999999795e-01
3.840000000000000000e+02,4.408406899999999795e-01
3.850000000000000000e+02,4.408406899999999795e-01
3.860000000000000000e+02,4.408406899999999795e-01
3.870000000000000000e+02,4.408406899999999795e-01
3.880000000000000000e+02,4.408406899999999795e-01
3.890000000000000000e+02,4.408406899999999795e-01
3.900000000000000000e+02,4.408406899999999795e-01
3.910000000000000000e+02,4.408406899999999795e-01
3.920000000000000000e+02,4.408406899999999795e-01
3.930000000000000000e+02,4.408406899999999795e-01
3.940000000000000000e+02,4.408406899999999795e-01
3.950000000000000000e+02,4.408406899999999795e-01
3.960000000000000000e+02,4.408406899999999795e-01
3.970000000000000000e+02,4.408406899999999795e-01
3.980000000000000000e+02,4.408406899999999795e-01
3.990000000000000000e+02,4.408406899999999795e-01
