# Time [s], Mass [Kg]
1.000000000000000000e+00,1.000000000000000000e+00
2.000000000000000000e+00,1.000000000000000000e+00
3.000000000000000000e+00,1.000000000000000000e+00
4.000000000000000000e+00,1.000000000000000000e+00
5.000000000000000000e+00,1.000000000000000000e+00
6.000000000000000000e+00,1.000000000000000000e+00
7.000000000000000000e+00,1.000000000000000000e+00
8.000000000000000000e+00,1.000000000000000000e+00
9.000000000000000000e+00,1.000000000000000000e+00
1.000000000000000000e+01,9.999999400000000316e-01
1.100000000000000000e+01,9.999998799999999521e-01
1.200000000000000000e+01,9.999996399999999674e-01
1.300000000000000000e+01,9.999991700000000483e-01
1.400000000000000000e+01,9.999980899999999506e-01
1.500000000000000000e+01,9.999960100000000462e-01
1.600000000000000000e+01,9.999921299999999791e-01
1.700000000000000000e+01,9.999851600000000396e-01
1.800000000000000000e+01,9.999731200000000486e-01
1.900000000000000000e+01,9.999532100000000368e-01
2.000000000000000000e+01,9.999215599999999871e-01
2.100000000000000000e+01,9.998729200000000539e-01
2.200000000000000000e+01,9.998008600000000135e-01
2.300000000000000000e+01,9.996973300000000506e-01
2.400000000000000000e+01,9.995531399999999511e-01
2.500000000000000000e+01,9.993583600000000011e-01
2.600000000000000000e+01,9.991025900000000126e-01
2.700000000000000000e+01,9.987764399999999876e-01
2.800000000000000000e+01,9.983717800000000420e-01
2.900000000000000000e+01,9.978829000000000171e-01
3.000000000000000000e+01,9.973074199999999445e-01
3.100000000000000000e+01,9.966447400000000290e-01
3.200000000000000000e+01,9.958968200000000159e-01
3.300000000000000000e+01,9.950696199999999880e-01
3.400000000000000000e+01,9.941666700000000301e-01
3.500000000000000000e+01,9.931936300000000495e-01
3.600000000000000000e+01,9.921603799999999529e-01
3.700000000000000000e+01,9.910694399999999682e-01
3.800000000000000000e+01,9.899267000000000483e-01
3.900000000000000000e+01,9.887425300000000084e-01
4.000000000000000000e+01,9.875167599999999934e-01
4.100000000000000000e+01,9.862542199999999593e-01
4.200000000000000000e+01,9.849653800000000015e-01
4.300000000000000000e+01,9.836467500000000141e-01
4.400000000000000000e+01,9.823020700000000272e-01
4.500000000000000000e+01,9.809413599999999844e-01
4.600000000000000000e+01,9.795588299999999915e-01
4.700000000000000000e+01,9.781570400000000332e-01
4.800000000000000000e+01,9.767453699999999461e-01
4.900000000000000000e+01,9.753167600000000048e-01
5.000000000000000000e+01,9.738727200000000250e-01
5.100000000000000000e+01,9.724218199999999923e-01
5.200000000000000000e+01,9.709569200000000011e-01
5.300000000000000000e+01,9.694783700000000337e-01
5.400000000000000000e+01,9.679943899999999823e-01
5.500000000000000000e+01,9.664985499999999563e-01
5.600000000000000000e+01,9.649906799999999896e-01
5.700000000000000000e+01,9.634782699999999700e-01
5.800000000000000000e+01,9.619562000000000390e-01
5.900000000000000000e+01,9.604238899999999468e-01
6.000000000000000000e+01,9.588881700000000396e-01
6.100000000000000000e+01,9.573453100000000049e-01
6.200000000000000000e+01,9.557943300000000253e-01
6.300000000000000000e+01,9.542411600000000327e-01
6.400000000000000000e+01,9.526830899999999547e-01
6.500000000000000000e+01,9.511189500000000185e-01
6.600000000000000000e+01,9.495534300000000316e-01
6.700000000000000000e+01,9.479845199999999972e-01
6.800000000000000000e+01,9.464108900000000046e-01
6.900000000000000000e+01,9.448362000000000149e-01
7.000000000000000000e+01,9.432588800000000218e-01
7.100000000000000000e+01,9.416776300000000433e-01
7.200000000000000000e+01,9.400950099999999532e-01
7.300000000000000000e+01,9.385100600000000348e-01
7.400000000000000000e+01,9.369214200000000048e-01
7.500000000000000000e+01,9.353312299999999579e-01
7.600000000000000000e+01,9.337386500000000034e-01
7.700000000000000000e+01,9.321427899999999989e-01
7.800000000000000000e+01,9.305450899999999637e-01
7.900000000000000000e+01,9.289451199999999575e-01
8.000000000000000000e+01,9.269042600000000354e-01
8.100000000000000000e+01,9.250037700000000029e-01
8.200000000000000000e+01,9.232608100000000428e-01
8.300000000000000000e+01,9.215318000000000120e-01
8.400000000000000000e+01,9.198380699999999521e-01
8.500000000000000000e+01,9.181526899999999936e-01
8.600000000000000000e+01,9.164769600000000072e-01
8.700000000000000000e+01,9.148057099999999942e-01
8.800000000000000000e+01,9.131384500000000459e-01
8.900000000000000000e+01,9.114720800000000178e-01
9.000000000000000000e+01,9.098068499999999448e-01
9.100000000000000000e+01,9.081416100000000435e-01
9.200000000000000000e+01,9.064751899999999862e-01
9.300000000000000000e+01,9.048075700000000055e-01
9.400000000000000000e+01,9.031382199999999916e-01
9.500000000000000000e+01,9.014663099999999929e-01
9.600000000000000000e+01,8.997917800000000410e-01
9.700000000000000000e+01,8.981144399999999584e-01
9.800000000000000000e+01,8.964338899999999555e-01
9.900000000000000000e+01,8.947500000000000453e-01
1.000000000000000000e+02,8.930629500000000220e-01
1.010000000000000000e+02,8.913721399999999795e-01
1.020000000000000000e+02,8.896778199999999526e-01
1.030000000000000000e+02,8.879798700000000045e-01
1.040000000000000000e+02,8.862782700000000347e-01
1.050000000000000000e+02,8.845729199999999848e-01
1.060000000000000000e+02,8.828639999999999821e-01
1.070000000000000000e+02,8.811509600000000386e-01
1.080000000000000000e+02,8.794339899999999988e-01
1.090000000000000000e+02,8.777130199999999549e-01
1.100000000000000000e+02,8.759878899999999913e-01
1.110000000000000000e+02,8.742585800000000074e-01
1.120000000000000000e+02,8.725248599999999577e-01
1.130000000000000000e+02,8.707868500000000012e-01
1.140000000000000000e+02,8.690442999999999918e-01
1.150000000000000000e+02,8.672973499999999669e-01
1.160000000000000000e+02,8.655456299999999548e-01
1.170000000000000000e+02,8.637892600000000032e-01
1.180000000000000000e+02,8.620281199999999533e-01
1.190000000000000000e+02,8.602619799999999817e-01
1.200000000000000000e+02,8.584908199999999878e-01
1.210000000000000000e+02,8.567146700000000115e-01
1.220000000000000000e+02,8.548359300000000216e-01
1.230000000000000000e+02,8.529770399999999642e-01
1.240000000000000000e+02,8.511350800000000438e-01
1.250000000000000000e+02,8.493014599999999525e-01
1.260000000000000000e+02,8.474726099999999596e-01
1.270000000000000000e+02,8.456449499999999508e-01
1.280000000000000000e+02,8.438164000000000220e-01
1.290000000000000000e+02,8.419852899999999973e-01
1.300000000000000000e+02,8.401501799999999687e-01
1.310000000000000000e+02,8.383101800000000159e-01
1.320000000000000000e+02,8.364644100000000471e-01
1.330000000000000000e+02,8.346124299999999607e-01
1.340000000000000000e+02,8.327539000000000469e-01
1.350000000000000000e+02,8.308880899999999681e-01
1.360000000000000000e+02,8.290148999999999990e-01
1.370000000000000000e+02,8.271339500000000067e-01
1.380000000000000000e+02,8.252450799999999642e-01
1.390000000000000000e+02,8.233480499999999980e-01
1.400000000000000000e+02,8.214425400000000543e-01
1.410000000000000000e+02,8.195287599999999673e-01
1.420000000000000000e+02,8.176063300000000478e-01
1.430000000000000000e+02,8.156752000000000447e-01
1.440000000000000000e+02,8.137351900000000526e-01
1.450000000000000000e+02,8.117861699999999736e-01
1.460000000000000000e+02,8.098280399999999712e-01
1.470000000000000000e+02,8.078606099999999790e-01
1.480000000000000000e+02,8.058838799999999969e-01
1.490000000000000000e+02,8.038974399999999632e-01
1.500000000000000000e+02,8.019012800000000496e-01
1.510000000000000000e+02,7.998952900000000366e-01
1.520000000000000000e+02,7.978791600000000317e-01
1.530000000000000000e+02,7.958527800000000374e-01
1.540000000000000000e+02,7.938157900000000211e-01
1.550000000000000000e+02,7.917681300000000144e-01
1.560000000000000000e+02,7.897093899999999556e-01
1.570000000000000000e+02,7.876395600000000163e-01
1.580000000000000000e+02,7.855583400000000216e-01
1.590000000000000000e+02,7.834653299999999598e-01
1.600000000000000000e+02,7.812856400000000034e-01
1.610000000000000000e+02,7.791135900000000225e-01
1.620000000000000000e+02,7.769430299999999789e-01
1.630000000000000000e+02,7.747688299999999639e-01
1.640000000000000000e+02,7.725889700000000415e-01
1.650000000000000000e+02,7.704011800000000187e-01
1.660000000000000000e+02,7.682042100000000540e-01
1.670000000000000000e+02,7.659968099999999724e-01
1.680000000000000000e+02,7.637778499999999804e-01
1.690000000000000000e+02,7.615467299999999495e-01
1.700000000000000000e+02,7.593028499999999736e-01
1.710000000000000000e+02,7.570456300000000249e-01
1.720000000000000000e+02,7.547746899999999703e-01
1.730000000000000000e+02,7.524898100000000367e-01
1.740000000000000000e+02,7.501906799999999986e-01
1.750000000000000000e+02,7.478771199999999508e-01
1.760000000000000000e+02,7.455490799999999751e-01
1.770000000000000000e+02,7.432065599999999606e-01
1.780000000000000000e+02,7.408494399999999702e-01
1.790000000000000000e+02,7.384778300000000018e-01
1.800000000000000000e+02,7.360918499999999920e-01
1.810000000000000000e+02,7.336918100000000553e-01
1.820000000000000000e+02,7.312776399999999510e-01
1.830000000000000000e+02,7.288497099999999840e-01
1.840000000000000000e+02,7.264082400000000383e-01
1.850000000000000000e+02,7.239535499999999457e-01
1.860000000000000000e+02,7.214860899999999688e-01
1.870000000000000000e+02,7.190061800000000503e-01
1.880000000000000000e+02,7.165141099999999819e-01
1.890000000000000000e+02,7.140104200000000345e-01
1.900000000000000000e+02,7.114956399999999848e-01
1.910000000000000000e+02,7.089702500000000240e-01
1.920000000000000000e+02,7.063752399999999598e-01
1.930000000000000000e+02,7.037847600000000092e-01
1.940000000000000000e+02,7.011943499999999663e-01
1.950000000000000000e+02,6.986018999999999979e-01
1.960000000000000000e+02,6.960068299999999653e-01
1.970000000000000000e+02,6.934084900000000440e-01
1.980000000000000000e+02,6.908069799999999594e-01
1.990000000000000000e+02,6.882022599999999546e-01
2.000000000000000000e+02,6.855945599999999640e-01
2.010000000000000000e+02,6.829841700000000015e-01
2.020000000000000000e+02,6.803714600000000390e-01
2.030000000000000000e+02,6.777568499999999663e-01
2.040000000000000000e+02,6.751407999999999854e-01
2.050000000000000000e+02,6.725237400000000365e-01
2.060000000000000000e+02,6.699062599999999756e-01
2.070000000000000000e+02,6.672887800000000258e-01
2.080000000000000000e+02,6.646717800000000453e-01
2.090000000000000000e+02,6.620559099999999697e-01
2.100000000000000000e+02,6.594414100000000056e-01
2.110000000000000000e+02,6.568288799999999483e-01
2.120000000000000000e+02,6.542186700000000021e-01
2.130000000000000000e+02,6.516113300000000441e-01
2.140000000000000000e+02,6.490070799999999585e-01
2.150000000000000000e+02,6.464063500000000184e-01
2.160000000000000000e+02,6.438095000000000345e-01
2.170000000000000000e+02,6.412168099999999704e-01
2.180000000000000000e+02,6.386286599999999591e-01
2.190000000000000000e+02,6.359976499999999699e-01
2.200000000000000000e+02,6.333812500000000068e-01
2.210000000000000000e+02,6.307764599999999833e-01
2.220000000000000000e+02,6.281816399999999856e-01
2.230000000000000000e+02,6.255961700000000070e-01
2.240000000000000000e+02,6.230193400000000326e-01
2.250000000000000000e+02,6.204507400000000006e-01
2.260000000000000000e+02,6.178902400000000350e-01
2.270000000000000000e+02,6.153375500000000109e-01
2.280000000000000000e+02,6.127926700000000393e-01
2.290000000000000000e+02,6.102554799999999613e-01
2.300000000000000000e+02,6.077259200000000305e-01
2.310000000000000000e+02,6.052039299999999455e-01
2.320000000000000000e+02,6.026894999999999891e-01
2.330000000000000000e+02,6.001827100000000081e-01
2.340000000000000000e+02,5.976834899999999839e-01
2.350000000000000000e+02,5.951919599999999644e-01
2.360000000000000000e+02,5.927079899999999624e-01
2.370000000000000000e+02,5.902318399999999521e-01
2.380000000000000000e+02,5.877633100000000388e-01
2.390000000000000000e+02,5.853025299999999875e-01
2.400000000000000000e+02,5.828496199999999572e-01
2.410000000000000000e+02,5.804045799999999478e-01
2.420000000000000000e+02,5.779673499999999908e-01
2.430000000000000000e+02,5.755381000000000524e-01
2.440000000000000000e+02,5.731168399999999608e-01
2.450000000000000000e+02,5.707036899999999857e-01
2.460000000000000000e+02,5.682985799999999976e-01
2.470000000000000000e+02,5.659016399999999836e-01
2.480000000000000000e+02,5.634738799999999825e-01
2.490000000000000000e+02,5.610613800000000539e-01
2.500000000000000000e+02,5.586619999999999919e-01
2.510000000000000000e+02,5.562745300000000448e-01
2.520000000000000000e+02,5.538984500000000422e-01
2.530000000000000000e+02,5.515333999999999515e-01
2.540000000000000000e+02,5.491790800000000417e-01
2.550000000000000000e+02,5.468354199999999610e-01
2.560000000000000000e+02,5.445022600000000157e-01
2.570000000000000000e+02,5.421795799999999943e-01
2.580000000000000000e+02,5.398673999999999973e-01
2.590000000000000000e+02,5.375657700000000538e-01
2.600000000000000000e+02,5.352746800000000027e-01
2.610000000000000000e+02,5.329943900000000401e-01
2.620000000000000000e+02,5.307248799999999544e-01
2.630000000000000000e+02,5.284662799999999550e-01
2.640000000000000000e+02,5.262188899999999947e-01
2.650000000000000000e+02,5.239827000000000234e-01
2.660000000000000000e+02,5.217580800000000130e-01
2.670000000000000000e+02,5.195452000000000403e-01
2.680000000000000000e+02,5.173443599999999476e-01
2.690000000000000000e+02,5.151557300000000339e-01
2.700000000000000000e+02,5.129797499999999566e-01
2.710000000000000000e+02,5.108166899999999622e-01
2.720000000000000000e+02,5.086668699999999932e-01
2.730000000000000000e+02,5.065307599999999688e-01
2.740000000000000000e+02,5.044088399999999695e-01
2.750000000000000000e+02,5.023013899999999587e-01
2.760000000000000000e+02,5.002089699999999750e-01
2.770000000000000000e+02,4.981320799999999771e-01
2.780000000000000000e+02,4.960712500000000191e-01
2.790000000000000000e+02,4.940270800000000073e-01
2.800000000000000000e+02,4.920003099999999963e-01
2.810000000000000000e+02,4.899676700000000218e-01
2.820000000000000000e+02,4.879574799999999990e-01
2.830000000000000000e+02,4.859697199999999939e-01
2.840000000000000000e+02,4.840049100000000104e-01
2.850000000000000000e+02,4.820637999999999868e-01
2.860000000000000000e+02,4.801471199999999828e-01
2.870000000000000000e+02,4.782558399999999876e-01
2.880000000000000000e+02,4.763909000000000060e-01
2.890000000000000000e+02,4.745533800000000246e-01
2.900000000000000000e+02,4.727445800000000253e-01
2.910000000000000000e+02,4.709659199999999823e-01
2.920000000000000000e+02,4.692188800000000048e-01
2.930000000000000000e+02,4.675051599999999752e-01
2.940000000000000000e+02,4.658265699999999954e-01
2.950000000000000000e+02,4.641850599999999827e-01
2.960000000000000000e+02,4.625827399999999923e-01
2.970000000000000000e+02,4.610219300000000242e-01
2.980000000000000000e+02,4.595050800000000102e-01
2.990000000000000000e+02,4.580349000000000226e-01
3.000000000000000000e+02,4.566142300000000098e-01
3.010000000000000000e+02,4.552461199999999764e-01
3.020000000000000000e+02,4.539338399999999774e-01
3.030000000000000000e+02,4.526808600000000182e-01
3.040000000000000000e+02,4.514907599999999910e-01
3.050000000000000000e+02,4.503672699999999862e-01
3.060000000000000000e+02,4.493143600000000237e-01
3.070000000000000000e+02,4.483358599999999750e-01
3.080000000000000000e+02,4.474357099999999865e-01
3.090000000000000000e+02,4.466175399999999795e-01
3.100000000000000000e+02,4.458845599999999854e-01
3.110000000000000000e+02,4.452391900000000069e-01
3.120000000000000000e+02,4.446826899999999916e-01
3.130000000000000000e+02,4.442147000000000179e-01
3.140000000000000000e+02,4.438327000000000244e-01
3.150000000000000000e+02,4.435316000000000258e-01
3.160000000000000000e+02,4.433037899999999754e-01
3.170000000000000000e+02,4.431394300000000008e-01
3.180000000000000000e+02,4.430270800000000175e-01
3.190000000000000000e+02,4.429550199999999771e-01
3.200000000000000000e+02,4.429121300000000150e-01
3.210000000000000000e+02,4.428889999999999771e-01
3.220000000000000000e+02,4.428781900000000049e-01
3.230000000000000000e+02,4.428742199999999851e-01
3.240000000000000000e+02,4.428733000000000253e-01
3.250000000000000000e+02,4.428732699999999856e-01
3.260000000000000000e+02,4.428732699999999856e-01
3.270000000000000000e+02,4.428732699999999856e-01
3.280000000000000000e+02,4.428732699999999856e-01
3.290000000000000000e+02,4.428732699999999856e-01
3.300000000000000000e+02,4.428732699999999856e-01
3.310000000000000000e+02,4.428732699999999856e-01
3.320000000000000000e+02,4.428732699999999856e-01
3.330000000000000000e+02,4.428732699999999856e-01
3.340000000000000000e+02,4.428732699999999856e-01
3.350000000000000000e+02,4.428732699999999856e-01
3.360000000000000000e+02,4.428732699999999856e-01
3.370000000000000000e+02,4.428732699999999856e-01
3.380000000000000000e+02,4.428732699999999856e-01
3.390000000000000000e+02,4.428732699999999856e-01
3.400000000000000000e+02,4.428732699999999856e-01
3.410000000000000000e+02,4.428732699999999856e-01
3.420000000000000000e+02,4.428732699999999856e-01
3.430000000000000000e+02,4.428732699999999856e-01
3.440000000000000000e+02,4.428732699999999856e-01
3.450000000000000000e+02,4.428732699999999856e-01
3.460000000000000000e+02,4.428732699999999856e-01
3.470000000000000000e+02,4.428732699999999856e-01
3.480000000000000000e+02,4.428732699999999856e-01
3.490000000000000000e+02,4.428732699999999856e-01
3.500000000000000000e+02,4.428732699999999856e-01
3.510000000000000000e+02,4.428732699999999856e-01
3.520000000000000000e+02,4.428732699999999856e-01
3.530000000000000000e+02,4.428732699999999856e-01
3.540000000000000000e+02,4.428732699999999856e-01
3.550000000000000000e+02,4.428732699999999856e-01
3.560000000000000000e+02,4.428732699999999856e-01
3.570000000000000000e+02,4.428732699999999856e-01
3.580000000000000000e+02,4.428732699999999856e-01
3.590000000000000000e+02,4.428732699999999856e-01
3.600000000000000000e+02,4.428732699999999856e-01
3.610000000000000000e+02,4.428732699999999856e-01
3.620000000000000000e+02,4.428732699999999856e-01
3.630000000000000000e+02,4.428732699999999856e-01
3.640000000000000000e+02,4.428732699999999856e-01
3.650000000000000000e+02,4.428732699999999856e-01
3.660000000000000000e+02,4.428732699999999856e-01
3.670000000000000000e+02,4.428732699999999856e-01
3.680000000000000000e+02,4.428732699999999856e-01
3.690000000000000000e+02,4.428732699999999856e-01
3.700000000000000000e+02,4.428732699999999856e-01
3.710000000000000000e+02,4.428732699999999856e-01
3.720000000000000000e+02,4.428732699999999856e-01
3.730000000000000000e+02,4.428732699999999856e-01
3.740000000000000000e+02,4.428732699999999856e-01
3.750000000000000000e+02,4.428732699999999856e-01
3.760000000000000000e+02,4.428732699999999856e-01
3.770000000000000000e+02,4.428732699999999856e-01
3.780000000000000000e+02,4.428732699999999856e-01
3.790000000000000000e+02,4.428732699999999856e-01
3.800000000000000000e+02,4.428732699999999856e-01
3.810000000000000000e+02,4.428732699999999856e-01
3.820000000000000000e+02,4.428732699999999856e-01
3.830000000000000000e+02,4.428732699999999856e-01
3.840000000000000000e+02,4.428732699999999856e-01
3.850000000000000000e+02,4.428732699999999856e-01
3.860000000000000000e+02,4.428732699999999856e-01
3.870000000000000000e+02,4.428732699999999856e-01
3.880000000000000000e+02,4.428732699999999856e-01
3.890000000000000000e+02,4.428732699999999856e-01
3.900000000000000000e+02,4.428732699999999856e-01
3.910000000000000000e+02,4.428732699999999856e-01
3.920000000000000000e+02,4.428732699999999856e-01
3.930000000000000000e+02,4.428732699999999856e-01
3.940000000000000000e+02,4.428732699999999856e-01
3.950000000000000000e+02,4.428732699999999856e-01
3.960000000000000000e+02,4.428732699999999856e-01
3.970000000000000000e+02,4.428732699999999856e-01
3.980000000000000000e+02,4.428732699999999856e-01
3.990000000000000000e+02,4.428732699999999856e-01
