# Time [s], Mass [Kg]
1.000000000000000000e+00,1.000000000000000000e+00
2.000000000000000000e+00,1.000000000000000000e+00
3.000000000000000000e+00,1.000000000000000000e+00
4.000000000000000000e+00,1.000000000000000000e+00
5.000000000000000000e+00,1.000000000000000000e+00
6.000000000000000000e+00,1.000000000000000000e+00
7.000000000000000000e+00,1.000000000000000000e+00
8.000000000000000000e+00,1.000000000000000000e+00
9.000000000000000000e+00,1.000000000000000000e+00
1.000000000000000000e+01,9.999999400000000316e-01
1.100000000000000000e+01,9.999998799999999521e-01
1.200000000000000000e+01,9.999996399999999674e-01
1.300000000000000000e+01,9.999991099999999689e-01
1.400000000000000000e+01,9.999979700000000138e-01
1.500000000000000000e+01,9.999957699999999505e-01
1.600000000000000000e+01,9.999915999999999805e-01
1.700000000000000000e+01,9.999840300000000237e-01
1.800000000000000000e+01,9.999710299999999830e-01
1.900000000000000000e+01,9.999495099999999859e-01
2.000000000000000000e+01,9.999152399999999830e-01
2.100000000000000000e+01,9.998627300000000329e-01
2.200000000000000000e+01,9.997850700000000534e-01
2.300000000000000000e+01,9.996741399999999889e-01
2.400000000000000000e+01,9.995204199999999650e-01
2.500000000000000000e+01,9.993142499999999595e-01
2.600000000000000000e+01,9.990460300000000293e-01
2.700000000000000000e+01,9.987066999999999473e-01
2.800000000000000000e+01,9.982904799999999801e-01
2.900000000000000000e+01,9.977938499999999822e-01
3.000000000000000000e+01,9.972129499999999869e-01
3.100000000000000000e+01,9.965514500000000053e-01
3.200000000000000000e+01,9.958130099999999985e-01
3.300000000000000000e+01,9.949955900000000408e-01
3.400000000000000000e+01,9.941105199999999975e-01
3.500000000000000000e+01,9.931637599999999511e-01
3.600000000000000000e+01,9.921491099999999452e-01
3.700000000000000000e+01,9.910838600000000387e-01
3.800000000000000000e+01,9.899721700000000402e-01
3.900000000000000000e+01,9.888021900000000253e-01
4.000000000000000000e+01,9.875961500000000060e-01
4.100000000000000000e+01,9.863558999999999521e-01
4.200000000000000000e+01,9.850638499999999631e-01
4.300000000000000000e+01,9.837466499999999447e-01
4.400000000000000000e+01,9.824038699999999569e-01
4.500000000000000000e+01,9.810135399999999617e-01
4.600000000000000000e+01,9.796050200000000485e-01
4.700000000000000000e+01,9.781768899999999656e-01
4.800000000000000000e+01,9.767038799999999688e-01
4.900000000000000000e+01,9.746228500000000405e-01
5.000000000000000000e+01,9.731214599999999937e-01
5.100000000000000000e+01,9.715231699999999915e-01
5.200000000000000000e+01,9.699586599999999725e-01
5.300000000000000000e+01,9.683786599999999467e-01
5.400000000000000000e+01,9.667701699999999843e-01
5.500000000000000000e+01,9.651531599999999544e-01
5.600000000000000000e+01,9.635303600000000301e-01
5.700000000000000000e+01,9.618753199999999781e-01
5.800000000000000000e+01,9.602120499999999836e-01
5.900000000000000000e+01,9.585440200000000521e-01
6.000000000000000000e+01,9.568475499999999911e-01
6.100000000000000000e+01,9.551430899999999724e-01
6.200000000000000000e+01,9.534360800000000191e-01
6.300000000000000000e+01,9.517066499999999873e-01
6.400000000000000000e+01,9.499704799999999505e-01
6.500000000000000000e+01,9.482343199999999639e-01
6.600000000000000000e+01,9.464824800000000149e-01
6.700000000000000000e+01,9.447256299999999829e-01
6.800000000000000000e+01,9.429704500000000156e-01
6.900000000000000000e+01,9.412054399999999488e-01
7.000000000000000000e+01,9.394368499999999900e-01
7.100000000000000000e+01,9.376699299999999848e-01
7.200000000000000000e+01,9.358970500000000081e-01
7.300000000000000000e+01,9.341208899999999815e-01
7.400000000000000000e+01,9.323452700000000037e-01
7.500000000000000000e+01,9.305655400000000244e-01
7.600000000000000000e+01,9.287823400000000396e-01
7.700000000000000000e+01,9.269986700000000246e-01
7.800000000000000000e+01,9.252119100000000262e-01
7.900000000000000000e+01,9.234223999999999766e-01
8.000000000000000000e+01,9.216321699999999728e-01
8.100000000000000000e+01,9.198402799999999546e-01
8.200000000000000000e+01,9.180469500000000282e-01
8.300000000000000000e+01,9.162538099999999464e-01
8.400000000000000000e+01,9.144607200000000047e-01
8.500000000000000000e+01,9.126677499999999998e-01
8.600000000000000000e+01,9.108756199999999970e-01
8.700000000000000000e+01,9.090844999999999620e-01
8.800000000000000000e+01,9.072942099999999899e-01
8.900000000000000000e+01,9.055050599999999728e-01
9.000000000000000000e+01,9.037168599999999552e-01
9.100000000000000000e+01,9.016212200000000010e-01
9.200000000000000000e+01,8.995997900000000103e-01
9.300000000000000000e+01,8.976889300000000516e-01
9.400000000000000000e+01,8.958221100000000048e-01
9.500000000000000000e+01,8.939815199999999740e-01
9.600000000000000000e+01,8.921564199999999500e-01
9.700000000000000000e+01,8.903394300000000428e-01
9.800000000000000000e+01,8.885285299999999831e-01
9.900000000000000000e+01,8.867207799999999862e-01
1.000000000000000000e+02,8.849154099999999579e-01
1.010000000000000000e+02,8.831114199999999803e-01
1.020000000000000000e+02,8.813081400000000176e-01
1.030000000000000000e+02,8.795049799999999918e-01
1.040000000000000000e+02,8.777012800000000281e-01
1.050000000000000000e+02,8.758965100000000170e-01
1.060000000000000000e+02,8.740901899999999891e-01
1.070000000000000000e+02,8.722819099999999937e-01
1.080000000000000000e+02,8.704709999999999948e-01
1.090000000000000000e+02,8.686571100000000101e-01
1.100000000000000000e+02,8.668401799999999602e-01
1.110000000000000000e+02,8.650198000000000054e-01
1.120000000000000000e+02,8.631961299999999504e-01
1.130000000000000000e+02,8.613688299999999742e-01
1.140000000000000000e+02,8.595381399999999505e-01
1.150000000000000000e+02,8.577038599999999846e-01
1.160000000000000000e+02,8.558663100000000190e-01
1.170000000000000000e+02,8.540258400000000361e-01
1.180000000000000000e+02,8.521821499999999716e-01
1.190000000000000000e+02,8.503354199999999530e-01
1.200000000000000000e+02,8.484858299999999964e-01
1.210000000000000000e+02,8.466331999999999747e-01
1.220000000000000000e+02,8.447776399999999963e-01
1.230000000000000000e+02,8.429187500000000499e-01
1.240000000000000000e+02,8.410565300000000244e-01
1.250000000000000000e+02,8.391905400000000403e-01
1.260000000000000000e+02,8.373207999999999762e-01
1.270000000000000000e+02,8.354467199999999760e-01
1.280000000000000000e+02,8.335682700000000001e-01
1.290000000000000000e+02,8.316852999999999607e-01
1.300000000000000000e+02,8.296256699999999817e-01
1.310000000000000000e+02,8.276272399999999863e-01
1.320000000000000000e+02,8.256629699999999961e-01
1.330000000000000000e+02,8.237158700000000167e-01
1.340000000000000000e+02,8.217806199999999617e-01
1.350000000000000000e+02,8.198514599999999763e-01
1.360000000000000000e+02,8.179253300000000060e-01
1.370000000000000000e+02,8.159990299999999586e-01
1.380000000000000000e+02,8.140707000000000360e-01
1.390000000000000000e+02,8.121386800000000017e-01
1.400000000000000000e+02,8.102016399999999452e-01
1.410000000000000000e+02,8.082585899999999990e-01
1.420000000000000000e+02,8.063087500000000185e-01
1.430000000000000000e+02,8.043515700000000157e-01
1.440000000000000000e+02,8.023867000000000083e-01
1.450000000000000000e+02,8.004136099999999976e-01
1.460000000000000000e+02,7.984321100000000282e-01
1.470000000000000000e+02,7.964419099999999752e-01
1.480000000000000000e+02,7.944431899999999658e-01
1.490000000000000000e+02,7.924356500000000469e-01
1.500000000000000000e+02,7.904193400000000258e-01
1.510000000000000000e+02,7.883940900000000473e-01
1.520000000000000000e+02,7.863597900000000029e-01
1.530000000000000000e+02,7.843164200000000141e-01
1.540000000000000000e+02,7.822637000000000063e-01
1.550000000000000000e+02,7.802014400000000238e-01
1.560000000000000000e+02,7.781295200000000190e-01
1.570000000000000000e+02,7.760477099999999462e-01
1.580000000000000000e+02,7.739557599999999926e-01
1.590000000000000000e+02,7.718532700000000357e-01
1.600000000000000000e+02,7.697401600000000066e-01
1.610000000000000000e+02,7.676161500000000526e-01
1.620000000000000000e+02,7.654808800000000302e-01
1.630000000000000000e+02,7.633342699999999814e-01
1.640000000000000000e+02,7.611761099999999614e-01
1.650000000000000000e+02,7.590059000000000111e-01
1.660000000000000000e+02,7.566959899999999850e-01
1.670000000000000000e+02,7.544163499999999578e-01
1.680000000000000000e+02,7.521511899999999695e-01
1.690000000000000000e+02,7.498899100000000484e-01
1.700000000000000000e+02,7.476277399999999851e-01
1.710000000000000000e+02,7.453613300000000441e-01
1.720000000000000000e+02,7.430884800000000512e-01
1.730000000000000000e+02,7.408075299999999919e-01
1.740000000000000000e+02,7.385172800000000537e-01
1.750000000000000000e+02,7.362167200000000467e-01
1.760000000000000000e+02,7.339054900000000492e-01
1.770000000000000000e+02,7.315831200000000312e-01
1.780000000000000000e+02,7.292494800000000055e-01
1.790000000000000000e+02,7.269044500000000353e-01
1.800000000000000000e+02,7.245477999999999641e-01
1.810000000000000000e+02,7.221799500000000149e-01
1.820000000000000000e+02,7.198008299999999471e-01
1.830000000000000000e+02,7.174109199999999520e-01
1.840000000000000000e+02,7.150105199999999828e-01
1.850000000000000000e+02,7.125999899999999609e-01
1.860000000000000000e+02,7.101796299999999507e-01
1.870000000000000000e+02,7.077498399999999634e-01
1.880000000000000000e+02,7.053112999999999744e-01
1.890000000000000000e+02,7.028643500000000266e-01
1.900000000000000000e+02,7.004095299999999469e-01
1.910000000000000000e+02,6.979474399999999745e-01
1.920000000000000000e+02,6.954785599999999679e-01
1.930000000000000000e+02,6.930035399999999735e-01
1.940000000000000000e+02,6.905230300000000376e-01
1.950000000000000000e+02,6.880375100000000188e-01
1.960000000000000000e+02,6.854542500000000427e-01
1.970000000000000000e+02,6.828938700000000139e-01
1.980000000000000000e+02,6.803475599999999623e-01
1.990000000000000000e+02,6.778101899999999791e-01
2.000000000000000000e+02,6.752793799999999846e-01
2.010000000000000000e+02,6.727534499999999751e-01
2.020000000000000000e+02,6.702318200000000337e-01
2.030000000000000000e+02,6.677138200000000134e-01
2.040000000000000000e+02,6.651992199999999800e-01
2.050000000000000000e+02,6.626880200000000443e-01
2.060000000000000000e+02,6.601803299999999819e-01
2.070000000000000000e+02,6.576762200000000336e-01
2.080000000000000000e+02,6.551758600000000543e-01
2.090000000000000000e+02,6.526794999999999680e-01
2.100000000000000000e+02,6.501873099999999628e-01
2.110000000000000000e+02,6.476997100000000396e-01
2.120000000000000000e+02,6.452167599999999448e-01
2.130000000000000000e+02,6.427386400000000277e-01
2.140000000000000000e+02,6.402655800000000008e-01
2.150000000000000000e+02,6.377977700000000416e-01
2.160000000000000000e+02,6.353354500000000238e-01
2.170000000000000000e+02,6.328787200000000057e-01
2.180000000000000000e+02,6.304275999999999769e-01
2.190000000000000000e+02,6.279823199999999828e-01
2.200000000000000000e+02,6.255429999999999602e-01
2.210000000000000000e+02,6.231096999999999886e-01
2.220000000000000000e+02,6.206825400000000048e-01
2.230000000000000000e+02,6.182617500000000543e-01
2.240000000000000000e+02,6.158472900000000472e-01
2.250000000000000000e+02,6.133682700000000487e-01
2.260000000000000000e+02,6.109128000000000336e-01
2.270000000000000000e+02,6.084753299999999809e-01
2.280000000000000000e+02,6.060526400000000313e-01
2.290000000000000000e+02,6.036426999999999765e-01
2.300000000000000000e+02,6.012442099999999456e-01
2.310000000000000000e+02,5.988562699999999683e-01
2.320000000000000000e+02,5.964782199999999479e-01
2.330000000000000000e+02,5.941095899999999652e-01
2.340000000000000000e+02,5.917500300000000379e-01
2.350000000000000000e+02,5.893992799999999699e-01
2.360000000000000000e+02,5.870572899999999539e-01
2.370000000000000000e+02,5.847238300000000555e-01
2.380000000000000000e+02,5.823987099999999861e-01
2.390000000000000000e+02,5.800819400000000181e-01
2.400000000000000000e+02,5.777733900000000533e-01
2.410000000000000000e+02,5.754730099999999515e-01
2.420000000000000000e+02,5.731807899999999956e-01
2.430000000000000000e+02,5.708966899999999844e-01
2.440000000000000000e+02,5.686206799999999895e-01
2.450000000000000000e+02,5.663526700000000025e-01
2.460000000000000000e+02,5.640928100000000001e-01
2.470000000000000000e+02,5.618410700000000535e-01
2.480000000000000000e+02,5.595975499999999991e-01
2.490000000000000000e+02,5.573621399999999504e-01
2.500000000000000000e+02,5.551348299999999680e-01
2.510000000000000000e+02,5.529159300000000554e-01
2.520000000000000000e+02,5.507053100000000034e-01
2.530000000000000000e+02,5.485032199999999580e-01
2.540000000000000000e+02,5.463096499999999800e-01
2.550000000000000000e+02,5.441247200000000062e-01
2.560000000000000000e+02,5.418888299999999880e-01
2.570000000000000000e+02,5.396750599999999842e-01
2.580000000000000000e+02,5.374792200000000353e-01
2.590000000000000000e+02,5.352992399999999540e-01
2.600000000000000000e+02,5.331336899999999934e-01
2.610000000000000000e+02,5.309819000000000067e-01
2.620000000000000000e+02,5.288431000000000104e-01
2.630000000000000000e+02,5.267170100000000410e-01
2.640000000000000000e+02,5.246034299999999817e-01
2.650000000000000000e+02,5.225021199999999588e-01
2.660000000000000000e+02,5.204130999999999618e-01
2.670000000000000000e+02,5.183362400000000036e-01
2.680000000000000000e+02,5.162716499999999709e-01
2.690000000000000000e+02,5.142194599999999616e-01
2.700000000000000000e+02,5.121798499999999921e-01
2.710000000000000000e+02,5.101529999999999676e-01
2.720000000000000000e+02,5.081390700000000260e-01
2.730000000000000000e+02,5.061383200000000304e-01
2.740000000000000000e+02,5.041511699999999818e-01
2.750000000000000000e+02,5.021778900000000156e-01
2.760000000000000000e+02,5.002188699999999821e-01
2.770000000000000000e+02,4.982745100000000038e-01
2.780000000000000000e+02,4.963451899999999917e-01
2.790000000000000000e+02,4.944314699999999840e-01
2.800000000000000000e+02,4.925338599999999900e-01
2.810000000000000000e+02,4.906529499999999766e-01
2.820000000000000000e+02,4.887893200000000271e-01
2.830000000000000000e+02,4.869435999999999765e-01
2.840000000000000000e+02,4.851165399999999850e-01
2.850000000000000000e+02,4.833088799999999963e-01
2.860000000000000000e+02,4.815214600000000122e-01
2.870000000000000000e+02,4.797550999999999899e-01
2.880000000000000000e+02,4.780106800000000211e-01
2.890000000000000000e+02,4.762892400000000026e-01
2.900000000000000000e+02,4.745917900000000134e-01
2.910000000000000000e+02,4.729194600000000137e-01
2.920000000000000000e+02,4.712735100000000066e-01
2.930000000000000000e+02,4.696551900000000002e-01
2.940000000000000000e+02,4.680323000000000122e-01
2.950000000000000000e+02,4.664472900000000144e-01
2.960000000000000000e+02,4.649009399999999848e-01
2.970000000000000000e+02,4.633937200000000090e-01
2.980000000000000000e+02,4.619265200000000071e-01
2.990000000000000000e+02,4.605004799999999898e-01
3.000000000000000000e+02,4.591171099999999949e-01
3.010000000000000000e+02,4.577782499999999977e-01
3.020000000000000000e+02,4.564859299999999842e-01
3.030000000000000000e+02,4.552424800000000049e-01
3.040000000000000000e+02,4.540506000000000264e-01
3.050000000000000000e+02,4.529130800000000234e-01
3.060000000000000000e+02,4.518328600000000028e-01
3.070000000000000000e+02,4.508132000000000250e-01
3.080000000000000000e+02,4.498573499999999892e-01
3.090000000000000000e+02,4.489687099999999931e-01
3.100000000000000000e+02,4.481504900000000124e-01
3.110000000000000000e+02,4.474056100000000091e-01
3.120000000000000000e+02,4.467365099999999756e-01
3.130000000000000000e+02,4.461449399999999899e-01
3.140000000000000000e+02,4.456314100000000056e-01
3.150000000000000000e+02,4.451949900000000127e-01
3.160000000000000000e+02,4.448329500000000047e-01
3.170000000000000000e+02,4.445406499999999816e-01
3.180000000000000000e+02,4.443115599999999943e-01
3.190000000000000000e+02,4.441376300000000055e-01
3.200000000000000000e+02,4.440099000000000129e-01
3.210000000000000000e+02,4.439191800000000243e-01
3.220000000000000000e+02,4.438569199999999881e-01
3.230000000000000000e+02,4.438155599999999978e-01
3.240000000000000000e+02,4.437890099999999838e-01
3.250000000000000000e+02,4.437725200000000036e-01
3.260000000000000000e+02,4.437626900000000152e-01
3.270000000000000000e+02,4.437570299999999968e-01
3.280000000000000000e+02,4.437539600000000029e-01
3.290000000000000000e+02,4.437524400000000258e-01
3.300000000000000000e+02,4.437517200000000162e-01
3.310000000000000000e+02,4.437514499999999917e-01
3.320000000000000000e+02,4.437513900000000233e-01
3.330000000000000000e+02,4.437513900000000233e-01
3.340000000000000000e+02,4.437513900000000233e-01
3.350000000000000000e+02,4.437513900000000233e-01
3.360000000000000000e+02,4.437513900000000233e-01
3.370000000000000000e+02,4.437513900000000233e-01
3.380000000000000000e+02,4.437513900000000233e-01
3.390000000000000000e+02,4.437513900000000233e-01
3.400000000000000000e+02,4.437513900000000233e-01
3.410000000000000000e+02,4.437513900000000233e-01
3.420000000000000000e+02,4.437513900000000233e-01
3.430000000000000000e+02,4.437513900000000233e-01
3.440000000000000000e+02,4.437513900000000233e-01
3.450000000000000000e+02,4.437513900000000233e-01
3.460000000000000000e+02,4.437513900000000233e-01
3.470000000000000000e+02,4.437513900000000233e-01
3.480000000000000000e+02,4.437513900000000233e-01
3.490000000000000000e+02,4.437513900000000233e-01
3.500000000000000000e+02,4.437513900000000233e-01
3.510000000000000000e+02,4.437513900000000233e-01
3.520000000000000000e+02,4.437513900000000233e-01
3.530000000000000000e+02,4.437513900000000233e-01
3.540000000000000000e+02,4.437513900000000233e-01
3.550000000000000000e+02,4.437513900000000233e-01
3.560000000000000000e+02,4.437513900000000233e-01
3.570000000000000000e+02,4.437513900000000233e-01
3.580000000000000000e+02,4.437513900000000233e-01
3.590000000000000000e+02,4.437513900000000233e-01
3.600000000000000000e+02,4.437513900000000233e-01
3.610000000000000000e+02,4.437513900000000233e-01
3.620000000000000000e+02,4.437513900000000233e-01
3.630000000000000000e+02,4.437513900000000233e-01
3.640000000000000000e+02,4.437513900000000233e-01
3.650000000000000000e+02,4.437513900000000233e-01
3.660000000000000000e+02,4.437513900000000233e-01
3.670000000000000000e+02,4.437513900000000233e-01
3.680000000000000000e+02,4.437513900000000233e-01
3.690000000000000000e+02,4.437513900000000233e-01
3.700000000000000000e+02,4.437513900000000233e-01
3.710000000000000000e+02,4.437513900000000233e-01
3.720000000000000000e+02,4.437513900000000233e-01
3.730000000000000000e+02,4.437513900000000233e-01
3.740000000000000000e+02,4.437513900000000233e-01
3.750000000000000000e+02,4.437513900000000233e-01
3.760000000000000000e+02,4.437513900000000233e-01
3.770000000000000000e+02,4.437513900000000233e-01
3.780000000000000000e+02,4.437513900000000233e-01
3.790000000000000000e+02,4.437513900000000233e-01
3.800000000000000000e+02,4.437513900000000233e-01
3.810000000000000000e+02,4.437513900000000233e-01
3.820000000000000000e+02,4.437513900000000233e-01
3.830000000000000000e+02,4.437513900000000233e-01
3.840000000000000000e+02,4.437513900000000233e-01
3.850000000000000000e+02,4.437513900000000233e-01
3.860000000000000000e+02,4.437513900000000233e-01
3.870000000000000000e+02,4.437513900000000233e-01
3.880000000000000000e+02,4.437513900000000233e-01
3.890000000000000000e+02,4.437513900000000233e-01
3.900000000000000000e+02,4.437513900000000233e-01
3.910000000000000000e+02,4.437513900000000233e-01
3.920000000000000000e+02,4.437513900000000233e-01
3.930000000000000000e+02,4.437513900000000233e-01
3.940000000000000000e+02,4.437513900000000233e-01
3.950000000000000000e+02,4.437513900000000233e-01
3.960000000000000000e+02,4.437513900000000233e-01
3.970000000000000000e+02,4.437513900000000233e-01
3.980000000000000000e+02,4.437513900000000233e-01
3.990000000000000000e+02,4.437513900000000233e-01
