# Time [s], Mass [Kg]
1.000000000000000000e+00,1.000000000000000000e+00
2.000000000000000000e+00,1.000000000000000000e+00
3.000000000000000000e+00,1.000000000000000000e+00
4.000000000000000000e+00,1.000000000000000000e+00
5.000000000000000000e+00,1.000000000000000000e+00
6.000000000000000000e+00,1.000000000000000000e+00
7.000000000000000000e+00,1.000000000000000000e+00
8.000000000000000000e+00,1.000000000000000000e+00
9.000000000000000000e+00,1.000000000000000000e+00
1.000000000000000000e+01,9.999999400000000316e-01
1.100000000000000000e+01,9.999998799999999521e-01
1.200000000000000000e+01,9.999996399999999674e-01
1.300000000000000000e+01,9.999991099999999689e-01
1.400000000000000000e+01,9.999980299999999822e-01
1.500000000000000000e+01,9.999958899999999984e-01
1.600000000000000000e+01,9.999918899999999944e-01
1.700000000000000000e+01,9.999846799999999591e-01
1.800000000000000000e+01,9.999722800000000467e-01
1.900000000000000000e+01,9.999518400000000362e-01
2.000000000000000000e+01,9.999192999999999554e-01
2.100000000000000000e+01,9.998694099999999585e-01
2.200000000000000000e+01,9.997955600000000276e-01
2.300000000000000000e+01,9.996895799999999666e-01
2.400000000000000000e+01,9.995422400000000263e-01
2.500000000000000000e+01,9.993436300000000383e-01
2.600000000000000000e+01,9.990836400000000506e-01
2.700000000000000000e+01,9.987530700000000206e-01
2.800000000000000000e+01,9.983445399999999470e-01
2.900000000000000000e+01,9.978532199999999852e-01
3.000000000000000000e+01,9.972764299999999915e-01
3.100000000000000000e+01,9.966149899999999784e-01
3.200000000000000000e+01,9.958717200000000158e-01
3.300000000000000000e+01,9.950500100000000403e-01
3.400000000000000000e+01,9.941561199999999765e-01
3.500000000000000000e+01,9.931959500000000496e-01
3.600000000000000000e+01,9.921738500000000238e-01
3.700000000000000000e+01,9.910975100000000149e-01
3.800000000000000000e+01,9.899721099999999607e-01
3.900000000000000000e+01,9.888008200000000247e-01
4.000000000000000000e+01,9.873143399999999570e-01
4.100000000000000000e+01,9.860851200000000372e-01
4.200000000000000000e+01,9.847627300000000306e-01
4.300000000000000000e+01,9.834393900000000244e-01
4.400000000000000000e+01,9.820796299999999812e-01
4.500000000000000000e+01,9.806987000000000343e-01
4.600000000000000000e+01,9.792950200000000160e-01
4.700000000000000000e+01,9.778736799999999674e-01
4.800000000000000000e+01,9.764321999999999724e-01
4.900000000000000000e+01,9.749759399999999854e-01
5.000000000000000000e+01,9.735057999999999767e-01
5.100000000000000000e+01,9.720195499999999544e-01
5.200000000000000000e+01,9.705213900000000393e-01
5.300000000000000000e+01,9.690117200000000208e-01
5.400000000000000000e+01,9.674881100000000123e-01
5.500000000000000000e+01,9.659540699999999980e-01
5.600000000000000000e+01,9.644100100000000397e-01
5.700000000000000000e+01,9.628535499999999470e-01
5.800000000000000000e+01,9.612880299999999600e-01
5.900000000000000000e+01,9.597144100000000178e-01
6.000000000000000000e+01,9.581306000000000545e-01
6.100000000000000000e+01,9.565397500000000219e-01
6.200000000000000000e+01,9.549429999999999863e-01
6.300000000000000000e+01,9.533389199999999786e-01
6.400000000000000000e+01,9.517300100000000151e-01
6.500000000000000000e+01,9.501177100000000042e-01
6.600000000000000000e+01,9.485005699999999873e-01
6.700000000000000000e+01,9.468806400000000512e-01
6.800000000000000000e+01,9.452589200000000025e-01
6.900000000000000000e+01,9.436342100000000288e-01
7.000000000000000000e+01,9.420075999999999450e-01
7.100000000000000000e+01,9.403797999999999879e-01
7.200000000000000000e+01,9.387497900000000284e-01
7.300000000000000000e+01,9.371178700000000195e-01
7.400000000000000000e+01,9.354847099999999971e-01
7.500000000000000000e+01,9.338492200000000354e-01
7.600000000000000000e+01,9.322116999999999765e-01
7.700000000000000000e+01,9.305725700000000433e-01
7.800000000000000000e+01,9.289311199999999991e-01
7.900000000000000000e+01,9.272876399999999686e-01
8.000000000000000000e+01,9.256424300000000160e-01
8.100000000000000000e+01,9.239952000000000165e-01
8.200000000000000000e+01,9.223462900000000131e-01
8.300000000000000000e+01,9.206960800000000278e-01
8.400000000000000000e+01,9.190443200000000257e-01
8.500000000000000000e+01,9.173911799999999728e-01
8.600000000000000000e+01,9.157369699999999835e-01
8.700000000000000000e+01,9.137055899999999564e-01
8.800000000000000000e+01,9.117888800000000238e-01
8.900000000000000000e+01,9.100366800000000422e-01
9.000000000000000000e+01,9.082971800000000373e-01
9.100000000000000000e+01,9.065877799999999542e-01
9.200000000000000000e+01,9.048832700000000173e-01
9.300000000000000000e+01,9.031842399999999715e-01
9.400000000000000000e+01,9.014858000000000038e-01
9.500000000000000000e+01,8.997871299999999906e-01
9.600000000000000000e+01,8.980871400000000060e-01
9.700000000000000000e+01,8.963851900000000539e-01
9.800000000000000000e+01,8.946814499999999892e-01
9.900000000000000000e+01,8.929755700000000518e-01
1.000000000000000000e+02,8.912677199999999855e-01
1.010000000000000000e+02,8.895579000000000125e-01
1.020000000000000000e+02,8.878461699999999901e-01
1.030000000000000000e+02,8.861324200000000317e-01
1.040000000000000000e+02,8.844166999999999446e-01
1.050000000000000000e+02,8.826990700000000301e-01
1.060000000000000000e+02,8.809789999999999566e-01
1.070000000000000000e+02,8.792566699999999624e-01
1.080000000000000000e+02,8.775316499999999964e-01
1.090000000000000000e+02,8.758038299999999499e-01
1.100000000000000000e+02,8.740729099999999807e-01
1.110000000000000000e+02,8.723386499999999932e-01
1.120000000000000000e+02,8.706007000000000051e-01
1.130000000000000000e+02,8.688590499999999661e-01
1.140000000000000000e+02,8.671134700000000528e-01
1.150000000000000000e+02,8.653637800000000269e-01
1.160000000000000000e+02,8.636099699999999491e-01
1.170000000000000000e+02,8.618517500000000275e-01
1.180000000000000000e+02,8.600890599999999608e-01
1.190000000000000000e+02,8.583220799999999873e-01
1.200000000000000000e+02,8.565504600000000135e-01
1.210000000000000000e+02,8.547743599999999553e-01
1.220000000000000000e+02,8.529932500000000362e-01
1.230000000000000000e+02,8.512074400000000374e-01
1.240000000000000000e+02,8.494166100000000164e-01
1.250000000000000000e+02,8.476209000000000104e-01
1.260000000000000000e+02,8.458200099999999555e-01
1.270000000000000000e+02,8.440136900000000386e-01
1.280000000000000000e+02,8.422019499999999770e-01
1.290000000000000000e+02,8.402638399999999841e-01
1.300000000000000000e+02,8.383612599999999970e-01
1.310000000000000000e+02,8.364803800000000233e-01
1.320000000000000000e+02,8.346090299999999740e-01
1.330000000000000000e+02,8.327434700000000412e-01
1.340000000000000000e+02,8.308790299999999629e-01
1.350000000000000000e+02,8.290138200000000124e-01
1.360000000000000000e+02,8.271457599999999522e-01
1.370000000000000000e+02,8.252734499999999640e-01
1.380000000000000000e+02,8.233960900000000249e-01
1.390000000000000000e+02,8.215127599999999530e-01
1.400000000000000000e+02,8.196231099999999881e-01
1.410000000000000000e+02,8.177263700000000357e-01
1.420000000000000000e+02,8.158222400000000318e-01
1.430000000000000000e+02,8.139102499999999463e-01
1.440000000000000000e+02,8.119901400000000269e-01
1.450000000000000000e+02,8.100614000000000425e-01
1.460000000000000000e+02,8.081238899999999559e-01
1.470000000000000000e+02,8.061773800000000545e-01
1.480000000000000000e+02,8.042215700000000522e-01
1.490000000000000000e+02,8.022561700000000462e-01
1.500000000000000000e+02,8.002808700000000330e-01
1.510000000000000000e+02,7.982957400000000314e-01
1.520000000000000000e+02,7.963003499999999901e-01
1.530000000000000000e+02,7.942946600000000412e-01
1.540000000000000000e+02,7.922784099999999885e-01
1.550000000000000000e+02,7.902513700000000085e-01
1.560000000000000000e+02,7.882134299999999927e-01
1.570000000000000000e+02,7.861644599999999539e-01
1.580000000000000000e+02,7.841041100000000208e-01
1.590000000000000000e+02,7.820321300000000475e-01
1.600000000000000000e+02,7.799484100000000364e-01
1.610000000000000000e+02,7.778528900000000190e-01
1.620000000000000000e+02,7.757452700000000423e-01
1.630000000000000000e+02,7.736252500000000420e-01
1.640000000000000000e+02,7.714925999999999728e-01
1.650000000000000000e+02,7.693471899999999586e-01
1.660000000000000000e+02,7.671886100000000486e-01
1.670000000000000000e+02,7.649215499999999501e-01
1.680000000000000000e+02,7.626707600000000031e-01
1.690000000000000000e+02,7.604253899999999788e-01
1.700000000000000000e+02,7.581779400000000502e-01
1.710000000000000000e+02,7.559257700000000524e-01
1.720000000000000000e+02,7.536659799999999576e-01
1.730000000000000000e+02,7.513970700000000003e-01
1.740000000000000000e+02,7.491176099999999893e-01
1.750000000000000000e+02,7.468266500000000363e-01
1.760000000000000000e+02,7.445235300000000445e-01
1.770000000000000000e+02,7.422075299999999487e-01
1.780000000000000000e+02,7.398782999999999888e-01
1.790000000000000000e+02,7.375356600000000373e-01
1.800000000000000000e+02,7.351794200000000279e-01
1.810000000000000000e+02,7.328095999999999499e-01
1.820000000000000000e+02,7.304263100000000231e-01
1.830000000000000000e+02,7.280296699999999621e-01
1.840000000000000000e+02,7.256199100000000346e-01
1.850000000000000000e+02,7.231973999999999902e-01
1.860000000000000000e+02,7.207625500000000018e-01
1.870000000000000000e+02,7.183156600000000225e-01
1.880000000000000000e+02,7.158572699999999900e-01
1.890000000000000000e+02,7.133878500000000455e-01
1.900000000000000000e+02,7.109081099999999820e-01
1.910000000000000000e+02,7.084184900000000118e-01
1.920000000000000000e+02,7.059195600000000015e-01
1.930000000000000000e+02,7.034120600000000056e-01
1.940000000000000000e+02,7.008966800000000497e-01
1.950000000000000000e+02,6.983740299999999790e-01
1.960000000000000000e+02,6.958447100000000329e-01
1.970000000000000000e+02,6.932381399999999472e-01
1.980000000000000000e+02,6.906458699999999951e-01
1.990000000000000000e+02,6.880610600000000021e-01
2.000000000000000000e+02,6.854804199999999792e-01
2.010000000000000000e+02,6.829029300000000191e-01
2.020000000000000000e+02,6.803274799999999845e-01
2.030000000000000000e+02,6.777536899999999642e-01
2.040000000000000000e+02,6.751814499999999608e-01
2.050000000000000000e+02,6.726108200000000537e-01
2.060000000000000000e+02,6.700419199999999575e-01
2.070000000000000000e+02,6.674749899999999903e-01
2.080000000000000000e+02,6.649101400000000384e-01
2.090000000000000000e+02,6.623476700000000550e-01
2.100000000000000000e+02,6.597879500000000119e-01
2.110000000000000000e+02,6.572312099999999546e-01
2.120000000000000000e+02,6.546778100000000267e-01
2.130000000000000000e+02,6.521280400000000199e-01
2.140000000000000000e+02,6.495822100000000487e-01
2.150000000000000000e+02,6.470406100000000160e-01
2.160000000000000000e+02,6.445036499999999835e-01
2.170000000000000000e+02,6.419714100000000201e-01
2.180000000000000000e+02,6.394442299999999468e-01
2.190000000000000000e+02,6.369223000000000523e-01
2.200000000000000000e+02,6.344059100000000173e-01
2.210000000000000000e+02,6.318952399999999692e-01
2.220000000000000000e+02,6.293904799999999744e-01
2.230000000000000000e+02,6.268917899999999488e-01
2.240000000000000000e+02,6.243992999999999904e-01
2.250000000000000000e+02,6.219132499999999730e-01
2.260000000000000000e+02,6.193794000000000244e-01
2.270000000000000000e+02,6.168645600000000062e-01
2.280000000000000000e+02,6.143646200000000279e-01
2.290000000000000000e+02,6.118771400000000416e-01
2.300000000000000000e+02,6.094009900000000313e-01
2.310000000000000000e+02,6.069350799999999602e-01
2.320000000000000000e+02,6.044789600000000096e-01
2.330000000000000000e+02,6.020320700000000302e-01
2.340000000000000000e+02,5.995943500000000537e-01
2.350000000000000000e+02,5.971652899999999597e-01
2.360000000000000000e+02,5.947448600000000418e-01
2.370000000000000000e+02,5.923330199999999879e-01
2.380000000000000000e+02,5.899294600000000166e-01
2.390000000000000000e+02,5.875342500000000356e-01
2.400000000000000000e+02,5.851472599999999469e-01
2.410000000000000000e+02,5.827686199999999594e-01
2.420000000000000000e+02,5.803981999999999752e-01
2.430000000000000000e+02,5.780360100000000445e-01
2.440000000000000000e+02,5.756820999999999744e-01
2.450000000000000000e+02,5.733364800000000372e-01
2.460000000000000000e+02,5.709991500000000109e-01
2.470000000000000000e+02,5.686702099999999538e-01
2.480000000000000000e+02,5.663496900000000167e-01
2.490000000000000000e+02,5.640376200000000173e-01
2.500000000000000000e+02,5.617341999999999613e-01
2.510000000000000000e+02,5.594393600000000522e-01
2.520000000000000000e+02,5.571531699999999754e-01
2.530000000000000000e+02,5.548758499999999483e-01
2.540000000000000000e+02,5.526074199999999603e-01
2.550000000000000000e+02,5.503481000000000067e-01
2.560000000000000000e+02,5.480979099999999660e-01
2.570000000000000000e+02,5.458123099999999672e-01
2.580000000000000000e+02,5.435454199999999458e-01
2.590000000000000000e+02,5.412944600000000328e-01
2.600000000000000000e+02,5.390577899999999811e-01
2.610000000000000000e+02,5.368347799999999559e-01
2.620000000000000000e+02,5.346249899999999666e-01
2.630000000000000000e+02,5.324280900000000205e-01
2.640000000000000000e+02,5.302438699999999505e-01
2.650000000000000000e+02,5.280722399999999705e-01
2.660000000000000000e+02,5.259133000000000280e-01
2.670000000000000000e+02,5.237671099999999802e-01
2.680000000000000000e+02,5.216338600000000048e-01
2.690000000000000000e+02,5.195136700000000385e-01
2.700000000000000000e+02,5.174066999999999972e-01
2.710000000000000000e+02,5.153132700000000455e-01
2.720000000000000000e+02,5.132336600000000360e-01
2.730000000000000000e+02,5.111682400000000515e-01
2.740000000000000000e+02,5.091173599999999633e-01
2.750000000000000000e+02,5.070814500000000447e-01
2.760000000000000000e+02,5.050610300000000219e-01
2.770000000000000000e+02,5.030565299999999462e-01
2.780000000000000000e+02,5.010685900000000359e-01
2.790000000000000000e+02,4.990978200000000253e-01
2.800000000000000000e+02,4.971448199999999873e-01
2.810000000000000000e+02,4.952103199999999816e-01
2.820000000000000000e+02,4.932950400000000180e-01
2.830000000000000000e+02,4.913998199999999872e-01
2.840000000000000000e+02,4.895256199999999946e-01
2.850000000000000000e+02,4.876733400000000107e-01
2.860000000000000000e+02,4.858440500000000273e-01
2.870000000000000000e+02,4.840388600000000152e-01
2.880000000000000000e+02,4.822589500000000196e-01
2.890000000000000000e+02,4.805056999999999801e-01
2.900000000000000000e+02,4.787804800000000083e-01
2.910000000000000000e+02,4.770848200000000205e-01
2.920000000000000000e+02,4.754204200000000102e-01
2.930000000000000000e+02,4.737890399999999946e-01
2.940000000000000000e+02,4.721926699999999810e-01
2.950000000000000000e+02,4.706158599999999970e-01
2.960000000000000000e+02,4.690800299999999812e-01
2.970000000000000000e+02,4.675897700000000157e-01
2.980000000000000000e+02,4.661475999999999953e-01
2.990000000000000000e+02,4.647560099999999972e-01
3.000000000000000000e+02,4.634177700000000066e-01
3.010000000000000000e+02,4.621358199999999750e-01
3.020000000000000000e+02,4.609136600000000028e-01
3.030000000000000000e+02,4.597549100000000166e-01
3.040000000000000000e+02,4.586637000000000075e-01
3.050000000000000000e+02,4.576441600000000220e-01
3.060000000000000000e+02,4.567006800000000255e-01
3.070000000000000000e+02,4.558376399999999884e-01
3.080000000000000000e+02,4.550589899999999965e-01
3.090000000000000000e+02,4.543681099999999917e-01
3.100000000000000000e+02,4.537671799999999922e-01
3.110000000000000000e+02,4.532567299999999966e-01
3.120000000000000000e+02,4.528350500000000167e-01
3.130000000000000000e+02,4.524978100000000003e-01
3.140000000000000000e+02,4.522378400000000020e-01
3.150000000000000000e+02,4.520455899999999971e-01
3.160000000000000000e+02,4.519097499999999989e-01
3.170000000000000000e+02,4.518185900000000199e-01
3.180000000000000000e+02,4.517608300000000021e-01
3.190000000000000000e+02,4.517267300000000207e-01
3.200000000000000000e+02,4.517083499999999807e-01
3.210000000000000000e+02,4.516995799999999894e-01
3.220000000000000000e+02,4.516960999999999893e-01
3.230000000000000000e+02,4.516950200000000026e-01
3.240000000000000000e+02,4.516947900000000127e-01
3.250000000000000000e+02,4.516947900000000127e-01
3.260000000000000000e+02,4.516947900000000127e-01
3.270000000000000000e+02,4.516947900000000127e-01
3.280000000000000000e+02,4.516947900000000127e-01
3.290000000000000000e+02,4.516947900000000127e-01
3.300000000000000000e+02,4.516947900000000127e-01
3.310000000000000000e+02,4.516947900000000127e-01
3.320000000000000000e+02,4.516947900000000127e-01
3.330000000000000000e+02,4.516947900000000127e-01
3.340000000000000000e+02,4.516947900000000127e-01
3.350000000000000000e+02,4.516947900000000127e-01
3.360000000000000000e+02,4.516947900000000127e-01
3.370000000000000000e+02,4.516947900000000127e-01
3.380000000000000000e+02,4.516947900000000127e-01
3.390000000000000000e+02,4.516947900000000127e-01
3.400000000000000000e+02,4.516947900000000127e-01
3.410000000000000000e+02,4.516947900000000127e-01
3.420000000000000000e+02,4.516947900000000127e-01
3.430000000000000000e+02,4.516947900000000127e-01
3.440000000000000000e+02,4.516947900000000127e-01
3.450000000000000000e+02,4.516947900000000127e-01
3.460000000000000000e+02,4.516947900000000127e-01
3.470000000000000000e+02,4.516947900000000127e-01
3.480000000000000000e+02,4.516947900000000127e-01
3.490000000000000000e+02,4.516947900000000127e-01
3.500000000000000000e+02,4.516947900000000127e-01
3.510000000000000000e+02,4.516947900000000127e-01
3.520000000000000000e+02,4.516947900000000127e-01
3.530000000000000000e+02,4.516947900000000127e-01
3.540000000000000000e+02,4.516947900000000127e-01
3.550000000000000000e+02,4.516947900000000127e-01
3.560000000000000000e+02,4.516947900000000127e-01
3.570000000000000000e+02,4.516947900000000127e-01
3.580000000000000000e+02,4.516947900000000127e-01
3.590000000000000000e+02,4.516947900000000127e-01
3.600000000000000000e+02,4.516947900000000127e-01
3.610000000000000000e+02,4.516947900000000127e-01
3.620000000000000000e+02,4.516947900000000127e-01
3.630000000000000000e+02,4.516947900000000127e-01
3.640000000000000000e+02,4.516947900000000127e-01
3.650000000000000000e+02,4.516947900000000127e-01
3.660000000000000000e+02,4.516947900000000127e-01
3.670000000000000000e+02,4.516947900000000127e-01
3.680000000000000000e+02,4.516947900000000127e-01
3.690000000000000000e+02,4.516947900000000127e-01
3.700000000000000000e+02,4.516947900000000127e-01
3.710000000000000000e+02,4.516947900000000127e-01
3.720000000000000000e+02,4.516947900000000127e-01
3.730000000000000000e+02,4.516947900000000127e-01
3.740000000000000000e+02,4.516947900000000127e-01
3.750000000000000000e+02,4.516947900000000127e-01
3.760000000000000000e+02,4.516947900000000127e-01
3.770000000000000000e+02,4.516947900000000127e-01
3.780000000000000000e+02,4.516947900000000127e-01
3.790000000000000000e+02,4.516947900000000127e-01
3.800000000000000000e+02,4.516947900000000127e-01
3.810000000000000000e+02,4.516947900000000127e-01
3.820000000000000000e+02,4.516947900000000127e-01
3.830000000000000000e+02,4.516947900000000127e-01
3.840000000000000000e+02,4.516947900000000127e-01
3.850000000000000000e+02,4.516947900000000127e-01
3.860000000000000000e+02,4.516947900000000127e-01
3.870000000000000000e+02,4.516947900000000127e-01
3.880000000000000000e+02,4.516947900000000127e-01
3.890000000000000000e+02,4.516947900000000127e-01
3.900000000000000000e+02,4.516947900000000127e-01
3.910000000000000000e+02,4.516947900000000127e-01
3.920000000000000000e+02,4.516947900000000127e-01
3.930000000000000000e+02,4.516947900000000127e-01
3.940000000000000000e+02,4.516947900000000127e-01
3.950000000000000000e+02,4.516947900000000127e-01
3.960000000000000000e+02,4.516947900000000127e-01
3.970000000000000000e+02,4.516947900000000127e-01
3.980000000000000000e+02,4.516947900000000127e-01
3.990000000000000000e+02,4.516947900000000127e-01
