# Time [s], Convective Heat Transfer Coefficient [W/m2K]
1.000000000000000000e+00,0.000000000000000000e+00
2.000000000000000000e+00,0.000000000000000000e+00
3.000000000000000000e+00,0.000000000000000000e+00
4.000000000000000000e+00,1.915079995362458862e-02
5.000000000000000000e+00,3.274740728807139234e-02
6.000000000000000000e+00,5.780487740346602205e-02
7.000000000000000000e+00,9.498175649661450004e-02
8.000000000000000000e+00,1.446591836357115635e-01
9.000000000000000000e+00,2.079330751158595114e-01
1.000000000000000000e+01,2.848587388839791124e-01
1.100000000000000000e+01,3.749225384441787212e-01
1.200000000000000000e+01,4.770890474448763463e-01
1.300000000000000000e+01,5.900658660699573677e-01
1.400000000000000000e+01,7.123897007332988807e-01
1.500000000000000000e+01,8.425890332439338604e-01
1.600000000000000000e+01,9.792549257569305166e-01
1.700000000000000000e+01,1.121086756859191791e+00
1.800000000000000000e+01,1.266920732680874906e+00
1.900000000000000000e+01,1.415723297715485218e+00
2.000000000000000000e+01,1.566595125663262200e+00
2.100000000000000000e+01,1.718734082786338435e+00
2.200000000000000000e+01,1.871448481356422500e+00
2.300000000000000000e+01,2.024138022468565001e+00
2.400000000000000000e+01,2.176290927761142413e+00
2.500000000000000000e+01,2.327453421608478568e+00
2.600000000000000000e+01,2.477262799279587924e+00
2.700000000000000000e+01,2.625411541879359767e+00
2.800000000000000000e+01,2.771657353395414969e+00
2.900000000000000000e+01,2.915798238213657356e+00
3.000000000000000000e+01,3.057694864041367921e+00
3.100000000000000000e+01,3.197243367103268952e+00
3.200000000000000000e+01,3.334374967484605268e+00
3.300000000000000000e+01,3.469052893905713919e+00
3.400000000000000000e+01,3.601265869312044288e+00
3.500000000000000000e+01,3.731010069578537092e+00
3.600000000000000000e+01,3.858311083122943685e+00
3.700000000000000000e+01,3.983197365735586359e+00
3.800000000000000000e+01,4.105817843054821559e+00
3.900000000000000000e+01,4.226046016789104520e+00
4.000000000000000000e+01,4.343969020812437520e+00
4.100000000000000000e+01,4.459633472392948939e+00
4.200000000000000000e+01,4.573099244168340682e+00
4.300000000000000000e+01,4.684427728911620292e+00
4.400000000000000000e+01,4.793675035278147867e+00
4.500000000000000000e+01,4.900906658068118205e+00
4.600000000000000000e+01,5.006186280156986079e+00
4.700000000000000000e+01,5.109568291731997114e+00
4.800000000000000000e+01,5.211119124985708062e+00
4.900000000000000000e+01,5.310892957780763979e+00
5.000000000000000000e+01,5.408942413467837440e+00
5.100000000000000000e+01,5.505315488398093038e+00
5.200000000000000000e+01,5.600058242387449425e+00
5.300000000000000000e+01,5.693223745513042111e+00
5.400000000000000000e+01,5.784849452308280959e+00
5.500000000000000000e+01,5.874981533361828490e+00
5.600000000000000000e+01,5.963654030502977932e+00
5.700000000000000000e+01,6.050911642062700935e+00
5.800000000000000000e+01,6.136788151735254715e+00
5.900000000000000000e+01,6.221315802444133070e+00
6.000000000000000000e+01,6.304528309236955508e+00
6.100000000000000000e+01,6.386458770202778190e+00
6.200000000000000000e+01,6.467142096723274669e+00
6.300000000000000000e+01,6.546635016894002845e+00
6.400000000000000000e+01,6.624923407912030271e+00
6.500000000000000000e+01,6.702053218463891682e+00
6.600000000000000000e+01,6.778049618791506248e+00
6.700000000000000000e+01,6.852943156745121556e+00
6.800000000000000000e+01,6.926767926801618458e+00
6.900000000000000000e+01,6.999545163110785673e+00
7.000000000000000000e+01,7.071304178313145172e+00
7.100000000000000000e+01,7.142065472876019783e+00
7.200000000000000000e+01,7.211849441004519967e+00
7.300000000000000000e+01,7.280678344615566289e+00
7.400000000000000000e+01,7.348567233268661347e+00
7.500000000000000000e+01,7.415532665385714317e+00
7.600000000000000000e+01,7.481594647179866442e+00
7.700000000000000000e+01,7.546766248585171866e+00
7.800000000000000000e+01,7.611062056325316405e+00
7.900000000000000000e+01,7.674496443734551754e+00
8.000000000000000000e+01,7.737082206721916045e+00
8.100000000000000000e+01,7.798834333994940415e+00
8.200000000000000000e+01,7.859767363424971620e+00
8.300000000000000000e+01,7.919894848544423382e+00
8.400000000000000000e+01,7.979231630931612251e+00
8.500000000000000000e+01,8.037790116346045011e+00
8.600000000000000000e+01,8.095582051101404275e+00
8.700000000000000000e+01,8.152618034189602625e+00
8.800000000000000000e+01,8.208906721963252551e+00
8.900000000000000000e+01,8.264456152703086644e+00
9.000000000000000000e+01,8.319320969977502145e+00
9.100000000000000000e+01,8.373435462795685069e+00
9.200000000000000000e+01,8.426832208118074874e+00
9.300000000000000000e+01,8.479531718201815949e+00
9.400000000000000000e+01,8.531552196768567242e+00
9.500000000000000000e+01,8.582906505348267601e+00
9.600000000000000000e+01,8.633597298815526955e+00
9.700000000000000000e+01,8.683620407575750377e+00
9.800000000000000000e+01,8.732970741337613418e+00
9.900000000000000000e+01,8.781646274381621708e+00
1.000000000000000000e+02,8.829647115526453760e+00
1.010000000000000000e+02,8.876975087245224216e+00
1.020000000000000000e+02,8.923632158144286564e+00
1.030000000000000000e+02,8.969622757192267315e+00
1.040000000000000000e+02,9.014949323234942469e+00
1.050000000000000000e+02,9.059615679918840314e+00
1.060000000000000000e+02,9.103620325364397914e+00
1.070000000000000000e+02,9.146960458247486159e+00
1.080000000000000000e+02,9.189628702906277979e+00
1.090000000000000000e+02,9.231620724756600893e+00
1.100000000000000000e+02,9.272926640345902527e+00
1.110000000000000000e+02,9.313534756403862858e+00
1.120000000000000000e+02,9.353436312648732098e+00
1.130000000000000000e+02,9.392620828453225101e+00
1.140000000000000000e+02,9.431076682556859936e+00
1.150000000000000000e+02,9.468790225391375159e+00
1.160000000000000000e+02,9.505756719107143482e+00
1.170000000000000000e+02,9.541976376236128488e+00
1.180000000000000000e+02,9.577457482029394953e+00
1.190000000000000000e+02,9.612188223738519000e+00
1.200000000000000000e+02,9.646118027403902673e+00
1.210000000000000000e+02,9.679173229353219554e+00
1.220000000000000000e+02,9.711293382199258417e+00
1.230000000000000000e+02,9.742446984783793340e+00
1.240000000000000000e+02,9.772613071335920054e+00
1.250000000000000000e+02,9.801774618996656585e+00
1.260000000000000000e+02,9.829913057056163694e+00
1.270000000000000000e+02,9.857006461231033967e+00
1.280000000000000000e+02,9.883031874247722115e+00
1.290000000000000000e+02,9.907965756410003877e+00
1.300000000000000000e+02,9.931790233602887596e+00
1.310000000000000000e+02,9.954495863517323073e+00
1.320000000000000000e+02,9.976081289139367314e+00
1.330000000000000000e+02,9.996555973257480687e+00
1.340000000000000000e+02,1.001594347913203187e+01
1.350000000000000000e+02,1.003427122741825706e+01
1.360000000000000000e+02,1.005157997232224432e+01
1.370000000000000000e+02,1.006791578158737543e+01
1.380000000000000000e+02,1.008379364938123146e+01
1.390000000000000000e+02,1.009876466875500256e+01
1.400000000000000000e+02,1.011294394737494606e+01
1.410000000000000000e+02,1.012629845485198210e+01
1.420000000000000000e+02,1.013882405987892099e+01
1.430000000000000000e+02,1.015062433030914413e+01
1.440000000000000000e+02,1.016185210438853304e+01
1.450000000000000000e+02,1.017263500871970194e+01
1.460000000000000000e+02,1.018305644484566663e+01
1.470000000000000000e+02,1.019318428923642017e+01
1.480000000000000000e+02,1.020306974483798435e+01
1.490000000000000000e+02,1.021276100048442181e+01
1.500000000000000000e+02,1.022230540806573096e+01
1.510000000000000000e+02,1.023174357895502062e+01
1.520000000000000000e+02,1.024111905493200858e+01
1.530000000000000000e+02,1.025047238284287410e+01
1.540000000000000000e+02,1.025984014382852827e+01
1.550000000000000000e+02,1.026925054907652957e+01
1.560000000000000000e+02,1.027872584087514340e+01
1.570000000000000000e+02,1.028828665759902172e+01
1.580000000000000000e+02,1.030044447391623130e+01
1.590000000000000000e+02,1.031124172894559976e+01
1.600000000000000000e+02,1.032138187870825163e+01
1.610000000000000000e+02,1.033124255106416634e+01
1.620000000000000000e+02,1.034108662550428370e+01
1.630000000000000000e+02,1.035120414063687555e+01
1.640000000000000000e+02,1.036166238569109055e+01
1.650000000000000000e+02,1.037244013167580370e+01
1.660000000000000000e+02,1.038352060285865974e+01
1.670000000000000000e+02,1.039488526576012539e+01
1.680000000000000000e+02,1.040653926024310749e+01
1.690000000000000000e+02,1.041848870695277718e+01
1.700000000000000000e+02,1.043074704044694379e+01
1.710000000000000000e+02,1.044333137527802791e+01
1.720000000000000000e+02,1.045626844750761286e+01
1.730000000000000000e+02,1.046957632557459483e+01
1.740000000000000000e+02,1.048327153370960119e+01
1.750000000000000000e+02,1.049738074384971043e+01
1.760000000000000000e+02,1.051192271861649452e+01
1.770000000000000000e+02,1.052694252070148018e+01
1.780000000000000000e+02,1.054247614170233049e+01
1.790000000000000000e+02,1.055856760530062033e+01
1.800000000000000000e+02,1.058349237784066510e+01
1.810000000000000000e+02,1.060113408325885587e+01
1.820000000000000000e+02,1.061776362895341208e+01
1.830000000000000000e+02,1.063561356060536767e+01
1.840000000000000000e+02,1.065518689514011008e+01
1.850000000000000000e+02,1.067602729885367729e+01
1.860000000000000000e+02,1.069817027214116401e+01
1.870000000000000000e+02,1.072161694964998446e+01
1.880000000000000000e+02,1.074650802247060533e+01
1.890000000000000000e+02,1.077299756744343640e+01
1.900000000000000000e+02,1.080127986839648635e+01
1.910000000000000000e+02,1.083161831566959421e+01
1.920000000000000000e+02,1.086428489249817275e+01
1.930000000000000000e+02,1.089966124547867032e+01
1.940000000000000000e+02,1.093815124726216403e+01
1.950000000000000000e+02,1.098018090725476448e+01
1.960000000000000000e+02,1.102615911776653768e+01
1.970000000000000000e+02,1.107630403476195546e+01
1.980000000000000000e+02,1.113041408810203414e+01
1.990000000000000000e+02,1.118741244772199650e+01
2.000000000000000000e+02,1.124502592419028169e+01
2.010000000000000000e+02,1.130008216531144605e+01
2.020000000000000000e+02,1.135043821000151887e+01
2.030000000000000000e+02,1.139662861135410843e+01
2.040000000000000000e+02,1.143997165100314994e+01
2.050000000000000000e+02,1.148104960065239943e+01
2.060000000000000000e+02,1.152025821287227103e+01
2.070000000000000000e+02,1.155786719501916160e+01
2.080000000000000000e+02,1.159407315964635643e+01
2.090000000000000000e+02,1.162903817463969247e+01
2.100000000000000000e+02,1.166288951609291580e+01
2.110000000000000000e+02,1.169573145115713508e+01
2.120000000000000000e+02,1.172764852927833523e+01
2.130000000000000000e+02,1.175871048179669920e+01
2.140000000000000000e+02,1.178898357557502408e+01
2.150000000000000000e+02,1.181852583689508052e+01
2.160000000000000000e+02,1.184738223632358789e+01
2.170000000000000000e+02,1.187559402098143302e+01
2.180000000000000000e+02,1.190320371719859338e+01
2.190000000000000000e+02,1.193024164928847242e+01
2.200000000000000000e+02,1.195674049169024400e+01
2.210000000000000000e+02,1.198272863759014939e+01
2.220000000000000000e+02,1.200823088163668473e+01
2.230000000000000000e+02,1.203326907998439665e+01
2.240000000000000000e+02,1.205786448052884730e+01
2.250000000000000000e+02,1.208203975322887480e+01
2.260000000000000000e+02,1.210580867047387343e+01
2.270000000000000000e+02,1.212919132966919911e+01
2.280000000000000000e+02,1.215219913834185128e+01
2.290000000000000000e+02,1.217484833245216613e+01
2.300000000000000000e+02,1.219715375618188524e+01
2.310000000000000000e+02,1.221912568004368538e+01
2.320000000000000000e+02,1.224077574774357657e+01
2.330000000000000000e+02,1.226211469889464567e+01
2.340000000000000000e+02,1.228315099273222089e+01
2.350000000000000000e+02,1.230389317057570508e+01
2.360000000000000000e+02,1.232435347993983399e+01
2.370000000000000000e+02,1.234453836860834741e+01
2.380000000000000000e+02,1.236445371267219961e+01
2.390000000000000000e+02,1.238410994171348278e+01
2.400000000000000000e+02,1.240351070844741521e+01
2.410000000000000000e+02,1.242266263012062666e+01
2.420000000000000000e+02,1.244157426144902878e+01
2.430000000000000000e+02,1.246024815094140692e+01
2.440000000000000000e+02,1.247869145669898572e+01
2.450000000000000000e+02,1.249690883409633635e+01
2.460000000000000000e+02,1.251490494027112810e+01
2.470000000000000000e+02,1.253268473349675993e+01
2.480000000000000000e+02,1.255025228111630220e+01
2.490000000000000000e+02,1.256761203311814157e+01
2.500000000000000000e+02,1.258476652667775753e+01
2.510000000000000000e+02,1.260172009871368459e+01
2.520000000000000000e+02,1.261847915666837316e+01
2.530000000000000000e+02,1.263504430661154565e+01
2.540000000000000000e+02,1.265141840171036058e+01
2.550000000000000000e+02,1.266760687833340171e+01
2.560000000000000000e+02,1.268361015654231672e+01
2.570000000000000000e+02,1.269943408335720925e+01
2.580000000000000000e+02,1.271507813635282069e+01
2.590000000000000000e+02,1.273054929822516890e+01
2.600000000000000000e+02,1.274584755529566316e+01
2.610000000000000000e+02,1.276097489580677014e+01
2.620000000000000000e+02,1.277593464095650511e+01
2.630000000000000000e+02,1.279072935488710350e+01
2.640000000000000000e+02,1.280536271011384919e+01
2.650000000000000000e+02,1.281983527313892601e+01
2.660000000000000000e+02,1.283414944353193121e+01
2.670000000000000000e+02,1.284830751918861935e+01
2.680000000000000000e+02,1.286231233471453628e+01
2.690000000000000000e+02,1.287616556156450720e+01
2.700000000000000000e+02,1.288986821412926354e+01
2.710000000000000000e+02,1.290342290675786074e+01
2.720000000000000000e+02,1.291683187279990364e+01
2.730000000000000000e+02,1.293009766916807024e+01
2.740000000000000000e+02,1.294322114706991833e+01
2.750000000000000000e+02,1.295620314320243338e+01
2.760000000000000000e+02,1.296904747270804847e+01
2.770000000000000000e+02,1.298175360672202672e+01
2.780000000000000000e+02,1.299432579689316469e+01
2.790000000000000000e+02,1.300676389589122728e+01
2.800000000000000000e+02,1.301907030608556681e+01
2.810000000000000000e+02,1.303124581959004757e+01
2.820000000000000000e+02,1.304329321151313259e+01
2.830000000000000000e+02,1.305521186479001905e+01
2.840000000000000000e+02,1.306700547972517334e+01
2.850000000000000000e+02,1.307867594458290128e+01
2.860000000000000000e+02,1.309022219082020122e+01
2.870000000000000000e+02,1.310164731151654749e+01
2.880000000000000000e+02,1.311295246633636857e+01
2.890000000000000000e+02,1.312413907328431684e+01
2.900000000000000000e+02,1.313520839960768782e+01
2.910000000000000000e+02,1.314616203740144051e+01
2.920000000000000000e+02,1.315700081914221897e+01
2.930000000000000000e+02,1.316772617436511794e+01
2.940000000000000000e+02,1.317833985534841901e+01
2.950000000000000000e+02,1.318884326177517607e+01
2.960000000000000000e+02,1.319923690622850465e+01
2.970000000000000000e+02,1.320952243388443392e+01
2.980000000000000000e+02,1.321970040340515062e+01
2.990000000000000000e+02,1.322977250251735626e+01
3.000000000000000000e+02,1.323973966972181238e+01
3.010000000000000000e+02,1.324960390049152892e+01
3.020000000000000000e+02,1.325936610895236711e+01
3.030000000000000000e+02,1.326902666791023044e+01
3.040000000000000000e+02,1.327858773652624436e+01
3.050000000000000000e+02,1.328804966765672013e+01
3.060000000000000000e+02,1.329741327174036769e+01
3.070000000000000000e+02,1.330668054086118168e+01
3.080000000000000000e+02,1.331585160381605704e+01
3.090000000000000000e+02,1.332492790367077795e+01
3.100000000000000000e+02,1.333391113546217888e+01
3.110000000000000000e+02,1.334280114060051403e+01
3.120000000000000000e+02,1.335159999060108937e+01
3.130000000000000000e+02,1.336030803767511976e+01
3.140000000000000000e+02,1.336892634942161528e+01
3.150000000000000000e+02,1.337745650806224518e+01
3.160000000000000000e+02,1.338589766745624310e+01
3.170000000000000000e+02,1.339425250606694640e+01
3.180000000000000000e+02,1.340252179614123307e+01
3.190000000000000000e+02,1.341070617304795576e+01
3.200000000000000000e+02,1.341880678628831092e+01
3.210000000000000000e+02,1.342682432250305524e+01
3.220000000000000000e+02,1.343475868405048246e+01
3.230000000000000000e+02,1.344261171442492397e+01
3.240000000000000000e+02,1.345038408116795381e+01
3.250000000000000000e+02,1.345807767414960487e+01
3.260000000000000000e+02,1.346569191890153405e+01
3.270000000000000000e+02,1.347322869154219660e+01
3.280000000000000000e+02,1.348068824702114732e+01
3.290000000000000000e+02,1.348807122285788296e+01
3.300000000000000000e+02,1.349537902273888079e+01
3.310000000000000000e+02,1.350261233574339492e+01
3.320000000000000000e+02,1.350977210233530457e+01
3.330000000000000000e+02,1.351685823170095624e+01
3.340000000000000000e+02,1.352387127129139799e+01
3.350000000000000000e+02,1.353081387411694791e+01
3.360000000000000000e+02,1.353768535886551660e+01
3.370000000000000000e+02,1.354448644879145647e+01
3.380000000000000000e+02,1.355121920092177135e+01
3.390000000000000000e+02,1.355788273278461453e+01
3.400000000000000000e+02,1.356447794487583103e+01
3.410000000000000000e+02,1.357100668571284352e+01
3.420000000000000000e+02,1.357746825491908282e+01
3.430000000000000000e+02,1.358386480778585081e+01
3.440000000000000000e+02,1.359019538410354144e+01
3.450000000000000000e+02,1.359646250824378377e+01
3.460000000000000000e+02,1.360266515080084559e+01
3.470000000000000000e+02,1.360880544485145016e+01
3.480000000000000000e+02,1.361488273553280770e+01
3.490000000000000000e+02,1.362089882945724817e+01
3.500000000000000000e+02,1.362685338195595008e+01
3.510000000000000000e+02,1.363274737074871368e+01
3.520000000000000000e+02,1.363858176868544625e+01
3.530000000000000000e+02,1.364435666354431298e+01
3.540000000000000000e+02,1.365007295811757793e+01
3.550000000000000000e+02,1.365573167632603457e+01
3.560000000000000000e+02,1.366133358645796925e+01
3.570000000000000000e+02,1.366687732213692463e+01
3.580000000000000000e+02,1.367236540259277611e+01
3.590000000000000000e+02,1.367779752196359233e+01
3.600000000000000000e+02,1.368317493715844613e+01
3.610000000000000000e+02,1.368849821269902023e+01
3.620000000000000000e+02,1.369376741075388537e+01
3.630000000000000000e+02,1.369898302876405793e+01
3.640000000000000000e+02,1.370414562381867540e+01
3.650000000000000000e+02,1.370925606160659704e+01
3.660000000000000000e+02,1.371431483069032531e+01
3.670000000000000000e+02,1.371932241710332789e+01
3.680000000000000000e+02,1.372427936654075786e+01
3.690000000000000000e+02,1.372918603576273000e+01
3.700000000000000000e+02,1.373404265535905999e+01
3.710000000000000000e+02,1.373885075659816124e+01
3.720000000000000000e+02,1.374361013022378764e+01
3.730000000000000000e+02,1.374832124784134990e+01
3.740000000000000000e+02,1.375298532148314123e+01
3.750000000000000000e+02,1.375760164170007371e+01
3.760000000000000000e+02,1.376217153964845963e+01
3.770000000000000000e+02,1.376669541556583631e+01
3.780000000000000000e+02,1.377117372949715701e+01
3.790000000000000000e+02,1.377560656932318395e+01
3.800000000000000000e+02,1.377999482326477398e+01
3.810000000000000000e+02,1.378433851394753162e+01
3.820000000000000000e+02,1.378863815568711182e+01
3.830000000000000000e+02,1.379289493756744456e+01
3.840000000000000000e+02,1.379710856911760430e+01
3.850000000000000000e+02,1.380127949730219861e+01
3.860000000000000000e+02,1.380540853577682192e+01
3.870000000000000000e+02,1.380949569753591888e+01
3.880000000000000000e+02,1.381354160830485078e+01
3.890000000000000000e+02,1.381754689164098693e+01
3.900000000000000000e+02,1.382151174003489835e+01
3.910000000000000000e+02,1.382543695728814548e+01
3.920000000000000000e+02,1.382932218177586137e+01
3.930000000000000000e+02,1.383316827551248984e+01
3.940000000000000000e+02,1.383697566997823358e+01
3.950000000000000000e+02,1.384074479508604938e+01
3.960000000000000000e+02,1.384447607920829704e+01
3.970000000000000000e+02,1.384816921670571688e+01
3.980000000000000000e+02,1.385182573227368508e+01
