# Time [s], Convective Heat Transfer Coefficient [W/m2K]
1.000000000000000000e+00,0.000000000000000000e+00
2.000000000000000000e+00,0.000000000000000000e+00
3.000000000000000000e+00,0.000000000000000000e+00
4.000000000000000000e+00,0.000000000000000000e+00
5.000000000000000000e+00,1.915079995362458862e-02
6.000000000000000000e+00,3.274740728807139234e-02
7.000000000000000000e+00,5.198326877831560555e-02
8.000000000000000000e+00,7.911338352345732849e-02
9.000000000000000000e+00,1.144597728291247563e-01
1.000000000000000000e+01,1.579457242404892769e-01
1.100000000000000000e+01,2.097048598325327862e-01
1.200000000000000000e+01,2.693108906132957170e-01
1.300000000000000000e+01,3.361391487151747515e-01
1.400000000000000000e+01,4.094106943820914335e-01
1.500000000000000000e+01,4.883073545299792539e-01
1.600000000000000000e+01,5.719877504671263546e-01
1.700000000000000000e+01,6.596651942283608960e-01
1.800000000000000000e+01,7.506146015241556002e-01
1.900000000000000000e+01,8.441771663747704713e-01
2.000000000000000000e+01,9.397736796803565218e-01
2.100000000000000000e+01,1.036901840101806860e+00
2.200000000000000000e+01,1.135122366118111126e+00
2.300000000000000000e+01,1.234053757236146298e+00
2.400000000000000000e+01,1.333375133818415659e+00
2.500000000000000000e+01,1.432814633392140324e+00
2.600000000000000000e+01,1.532133315441866817e+00
2.700000000000000000e+01,1.631139961757558376e+00
2.800000000000000000e+01,1.729661766242766463e+00
2.900000000000000000e+01,1.827565378056150491e+00
3.000000000000000000e+01,1.924735264532743351e+00
3.100000000000000000e+01,2.021071397777453704e+00
3.200000000000000000e+01,2.116499441366380019e+00
3.300000000000000000e+01,2.210953292014040894e+00
3.400000000000000000e+01,2.304376634898042564e+00
3.500000000000000000e+01,2.396725797567678118e+00
3.600000000000000000e+01,2.487965466378956325e+00
3.700000000000000000e+01,2.578066273888313553e+00
3.800000000000000000e+01,2.666999786498736924e+00
3.900000000000000000e+01,2.754748475174230382e+00
4.000000000000000000e+01,2.841300292363137192e+00
4.100000000000000000e+01,2.926638231721098382e+00
4.200000000000000000e+01,3.010754949032751870e+00
4.300000000000000000e+01,3.093642603589413564e+00
4.400000000000000000e+01,3.175297186829773022e+00
4.500000000000000000e+01,3.255717276877968303e+00
4.600000000000000000e+01,3.334903852645297206e+00
4.700000000000000000e+01,3.412857934287852668e+00
4.800000000000000000e+01,3.489584792232518051e+00
4.900000000000000000e+01,3.565089826980494259e+00
5.000000000000000000e+01,3.639383571776245496e+00
5.100000000000000000e+01,3.712475425691718289e+00
5.200000000000000000e+01,3.784375912010121024e+00
5.300000000000000000e+01,3.855099716165844903e+00
5.400000000000000000e+01,3.924662619707100397e+00
5.500000000000000000e+01,3.993082223458233049e+00
5.600000000000000000e+01,4.060372077141810365e+00
5.700000000000000000e+01,4.126552613804060243e+00
5.800000000000000000e+01,4.191643947994731612e+00
5.900000000000000000e+01,4.255664694672384840e+00
6.000000000000000000e+01,4.318638597213503516e+00
6.100000000000000000e+01,4.380584551669857163e+00
6.200000000000000000e+01,4.441525720897202767e+00
6.300000000000000000e+01,4.501482126878240564e+00
6.400000000000000000e+01,4.560478018036475234e+00
6.500000000000000000e+01,4.618535568123676605e+00
6.600000000000000000e+01,4.675674270262140553e+00
6.700000000000000000e+01,4.731919255360451437e+00
6.800000000000000000e+01,4.787291251100921130e+00
6.900000000000000000e+01,4.842897997418388556e+00
7.000000000000000000e+01,4.897009199946014135e+00
7.100000000000000000e+01,4.950145819553055659e+00
7.200000000000000000e+01,5.002436753863016783e+00
7.300000000000000000e+01,5.053920067479104716e+00
7.400000000000000000e+01,5.104630368332573553e+00
7.500000000000000000e+01,5.154592666139876656e+00
7.600000000000000000e+01,5.203830495744194096e+00
7.700000000000000000e+01,5.252366173784342784e+00
7.800000000000000000e+01,5.300219444223859711e+00
7.900000000000000000e+01,5.347411302176786840e+00
8.000000000000000000e+01,5.393960461238562765e+00
8.100000000000000000e+01,5.439883661237510104e+00
8.200000000000000000e+01,5.485197189076961521e+00
8.300000000000000000e+01,5.529915801427987887e+00
8.400000000000000000e+01,5.574053709051659311e+00
8.500000000000000000e+01,5.617624912600279963e+00
8.600000000000000000e+01,5.660643069752138601e+00
8.700000000000000000e+01,5.703120438973758866e+00
8.800000000000000000e+01,5.745071136338542495e+00
8.900000000000000000e+01,5.786506805879547244e+00
9.000000000000000000e+01,5.827439757214853522e+00
9.100000000000000000e+01,5.867880538885160924e+00
9.200000000000000000e+01,5.907841041893396650e+00
9.300000000000000000e+01,5.947331530667535837e+00
9.400000000000000000e+01,5.986362513087880366e+00
9.500000000000000000e+01,6.024944466668344489e+00
9.600000000000000000e+01,6.063087076422913668e+00
9.700000000000000000e+01,6.100799661612850144e+00
9.800000000000000000e+01,6.138091477814998420e+00
9.900000000000000000e+01,6.174971199133519661e+00
1.000000000000000000e+02,6.211447529238142806e+00
1.010000000000000000e+02,6.247528540252601736e+00
1.020000000000000000e+02,6.283221976005743059e+00
1.030000000000000000e+02,6.318535241446086914e+00
1.040000000000000000e+02,6.353475827644283314e+00
1.050000000000000000e+02,6.388050504332560386e+00
1.060000000000000000e+02,6.422265926455363427e+00
1.070000000000000000e+02,6.456128500099008960e+00
1.080000000000000000e+02,6.489669828112338834e+00
1.090000000000000000e+02,6.522855327310283613e+00
1.100000000000000000e+02,6.555701921557631984e+00
1.110000000000000000e+02,6.588217770662706307e+00
1.120000000000000000e+02,6.620409378506789011e+00
1.130000000000000000e+02,6.652283261019488414e+00
1.140000000000000000e+02,6.683845684504101214e+00
1.150000000000000000e+02,6.715102937826583407e+00
1.160000000000000000e+02,6.746060560654149718e+00
1.170000000000000000e+02,6.776723378281426236e+00
1.180000000000000000e+02,6.807095534153570604e+00
1.190000000000000000e+02,6.837179518612793494e+00
1.200000000000000000e+02,6.866978723131609286e+00
1.210000000000000000e+02,6.896494694011690463e+00
1.220000000000000000e+02,6.925729894653016139e+00
1.230000000000000000e+02,6.954685972522790749e+00
1.240000000000000000e+02,6.983364752430480493e+00
1.250000000000000000e+02,7.011768466819781054e+00
1.260000000000000000e+02,7.039898085611422829e+00
1.270000000000000000e+02,7.067755474640634361e+00
1.280000000000000000e+02,7.095342429988111377e+00
1.290000000000000000e+02,7.122660218792178810e+00
1.300000000000000000e+02,7.149710514847270382e+00
1.310000000000000000e+02,7.176494928295067410e+00
1.320000000000000000e+02,7.203013428254879891e+00
1.330000000000000000e+02,7.229269105666676687e+00
1.340000000000000000e+02,7.255262278589882818e+00
1.350000000000000000e+02,7.280994123452725120e+00
1.360000000000000000e+02,7.306464890098665954e+00
1.370000000000000000e+02,7.331675457564495346e+00
1.380000000000000000e+02,7.356626014144551640e+00
1.390000000000000000e+02,7.381317154195985886e+00
1.400000000000000000e+02,7.405749437055265894e+00
1.410000000000000000e+02,7.429921903195616295e+00
1.420000000000000000e+02,7.453835282654359240e+00
1.430000000000000000e+02,7.477489637349753693e+00
1.440000000000000000e+02,7.500883341095065049e+00
1.450000000000000000e+02,7.524016232322222386e+00
1.460000000000000000e+02,7.546905188302999612e+00
1.470000000000000000e+02,7.569522529488905249e+00
1.480000000000000000e+02,7.591873906491986901e+00
1.490000000000000000e+02,7.613961174996536130e+00
1.500000000000000000e+02,7.635787324709723656e+00
1.510000000000000000e+02,7.657354650863913648e+00
1.520000000000000000e+02,7.678663185956120962e+00
1.530000000000000000e+02,7.699709577260508198e+00
1.540000000000000000e+02,7.720489533820943606e+00
1.550000000000000000e+02,7.740998044120322774e+00
1.560000000000000000e+02,7.761228614423352212e+00
1.570000000000000000e+02,7.781176976591465788e+00
1.580000000000000000e+02,7.800838334382777184e+00
1.590000000000000000e+02,7.820207373196612188e+00
1.600000000000000000e+02,7.839280364267160017e+00
1.610000000000000000e+02,7.858053226943838787e+00
1.620000000000000000e+02,7.876521722433988515e+00
1.630000000000000000e+02,7.894682768702506515e+00
1.640000000000000000e+02,7.912532167099015190e+00
1.650000000000000000e+02,7.930066485598290527e+00
1.660000000000000000e+02,7.947282111797705717e+00
1.670000000000000000e+02,7.964175622635938367e+00
1.680000000000000000e+02,7.980744328454766112e+00
1.690000000000000000e+02,7.996985339613873478e+00
1.700000000000000000e+02,8.012895567685939469e+00
1.710000000000000000e+02,8.028472452816409088e+00
1.720000000000000000e+02,8.043713769681458459e+00
1.730000000000000000e+02,8.058618159343206244e+00
1.740000000000000000e+02,8.073183494698845664e+00
1.750000000000000000e+02,8.087409039855987913e+00
1.760000000000000000e+02,8.101293818648596101e+00
1.770000000000000000e+02,8.114838217223054428e+00
1.780000000000000000e+02,8.128042542919077462e+00
1.790000000000000000e+02,8.140908084883074380e+00
1.800000000000000000e+02,8.153520563076245509e+00
1.810000000000000000e+02,8.165769727383034748e+00
1.820000000000000000e+02,8.177693789778498257e+00
1.830000000000000000e+02,8.189307053945254822e+00
1.840000000000000000e+02,8.200612804826382884e+00
1.850000000000000000e+02,8.211608153029338553e+00
1.860000000000000000e+02,8.222290523452135957e+00
1.870000000000000000e+02,8.232658857779298955e+00
1.880000000000000000e+02,8.242716522649546462e+00
1.890000000000000000e+02,8.252467646590810446e+00
1.900000000000000000e+02,8.261921743625162406e+00
1.910000000000000000e+02,8.271086469408189146e+00
1.920000000000000000e+02,8.279972598905796843e+00
1.930000000000000000e+02,8.288590761296884324e+00
1.940000000000000000e+02,8.296950597740590183e+00
1.950000000000000000e+02,8.305064001851070188e+00
1.960000000000000000e+02,8.312941546513242130e+00
1.970000000000000000e+02,8.320595376871297688e+00
1.980000000000000000e+02,8.328035657351703591e+00
1.990000000000000000e+02,8.335273796102814714e+00
2.000000000000000000e+02,8.342320925428255762e+00
2.010000000000000000e+02,8.349188748755388190e+00
2.020000000000000000e+02,8.355888031804266092e+00
2.030000000000000000e+02,8.362429618894250183e+00
2.040000000000000000e+02,8.368824269178308128e+00
2.050000000000000000e+02,8.375082494127079613e+00
2.060000000000000000e+02,8.381215062726523612e+00
2.070000000000000000e+02,8.387231338677269221e+00
2.080000000000000000e+02,8.393141453464744828e+00
2.090000000000000000e+02,8.398954312086688745e+00
2.100000000000000000e+02,8.404679260883732184e+00
2.110000000000000000e+02,8.410325424454502041e+00
2.120000000000000000e+02,8.416297194298142159e+00
2.130000000000000000e+02,8.422057514850919802e+00
2.140000000000000000e+02,8.427740581528135877e+00
2.150000000000000000e+02,8.433362502047469178e+00
2.160000000000000000e+02,8.438909872449155358e+00
2.170000000000000000e+02,8.444381996527818401e+00
2.180000000000000000e+02,8.449786375706704433e+00
2.190000000000000000e+02,8.455135873522401369e+00
2.200000000000000000e+02,8.460444267524406925e+00
2.210000000000000000e+02,8.465724774916434825e+00
2.220000000000000000e+02,8.470987283781342470e+00
2.230000000000000000e+02,8.476240981175530820e+00
2.240000000000000000e+02,8.481491916763499006e+00
2.250000000000000000e+02,8.486747247986141218e+00
2.260000000000000000e+02,8.492011337318821518e+00
2.270000000000000000e+02,8.497289336184959296e+00
2.280000000000000000e+02,8.502585722594222517e+00
2.290000000000000000e+02,8.507903334790981376e+00
2.300000000000000000e+02,8.513245481016877392e+00
2.310000000000000000e+02,8.518615129806397235e+00
2.320000000000000000e+02,8.524014750798473372e+00
2.330000000000000000e+02,8.529447122207921339e+00
2.340000000000000000e+02,8.534914203759321083e+00
2.350000000000000000e+02,8.540419067608379322e+00
2.360000000000000000e+02,8.545964288115172280e+00
2.370000000000000000e+02,8.551551944785291681e+00
2.380000000000000000e+02,8.557183785113299024e+00
2.390000000000000000e+02,8.562861865154758334e+00
2.400000000000000000e+02,8.568588228386341044e+00
2.410000000000000000e+02,8.574365701655525029e+00
2.420000000000000000e+02,8.580194709469372683e+00
2.430000000000000000e+02,8.586077736161710661e+00
2.440000000000000000e+02,8.593429870790453506e+00
2.450000000000000000e+02,8.600099852339823769e+00
2.460000000000000000e+02,8.606541737674644921e+00
2.470000000000000000e+02,8.612868267700299896e+00
2.480000000000000000e+02,8.619127057786698742e+00
2.490000000000000000e+02,8.625373939179715066e+00
2.500000000000000000e+02,8.631650121715512824e+00
2.510000000000000000e+02,8.637980102393203907e+00
2.520000000000000000e+02,8.644378990451313527e+00
2.530000000000000000e+02,8.650855389341595370e+00
2.540000000000000000e+02,8.657414098338019670e+00
2.550000000000000000e+02,8.664058011307480101e+00
2.560000000000000000e+02,8.670790466011643716e+00
2.570000000000000000e+02,8.677615395443446289e+00
2.580000000000000000e+02,8.684528785843152576e+00
2.590000000000000000e+02,8.691535630352786868e+00
2.600000000000000000e+02,8.698637170524031959e+00
2.610000000000000000e+02,8.705834478506751850e+00
2.620000000000000000e+02,8.713132158755096057e+00
2.630000000000000000e+02,8.720530313431515523e+00
2.640000000000000000e+02,8.728032877871626738e+00
2.650000000000000000e+02,8.735639917265183740e+00
2.660000000000000000e+02,8.743357306785899397e+00
2.670000000000000000e+02,8.751185674149938976e+00
2.680000000000000000e+02,8.759132651673882108e+00
2.690000000000000000e+02,8.767196820619876263e+00
2.700000000000000000e+02,8.775383602577749187e+00
2.710000000000000000e+02,8.783701402054759910e+00
2.720000000000000000e+02,8.792143858519439803e+00
2.730000000000000000e+02,8.800722935561106297e+00
2.740000000000000000e+02,8.809442797469458242e+00
2.750000000000000000e+02,8.818308313511041163e+00
2.760000000000000000e+02,8.827321293533637814e+00
2.770000000000000000e+02,8.836488313558506391e+00
2.780000000000000000e+02,8.845819617651484279e+00
2.790000000000000000e+02,8.859813697671890864e+00
2.800000000000000000e+02,8.870483059732700681e+00
2.810000000000000000e+02,8.880317296326790455e+00
2.820000000000000000e+02,8.890144462945926307e+00
2.830000000000000000e+02,8.900131577303840302e+00
2.840000000000000000e+02,8.910353915784073209e+00
2.850000000000000000e+02,8.920828076955238828e+00
2.860000000000000000e+02,8.931548888176555678e+00
2.870000000000000000e+02,8.942525526354716092e+00
2.880000000000000000e+02,8.953756810312206937e+00
2.890000000000000000e+02,8.965239192303313231e+00
2.900000000000000000e+02,8.976983203866915062e+00
2.910000000000000000e+02,8.988988931160589502e+00
2.920000000000000000e+02,9.001261898613956092e+00
2.930000000000000000e+02,9.013811408126727542e+00
2.940000000000000000e+02,9.026647751913024820e+00
2.950000000000000000e+02,9.039784483629128786e+00
2.960000000000000000e+02,9.053221509255994448e+00
2.970000000000000000e+02,9.066984156773036929e+00
2.980000000000000000e+02,9.081071254151959593e+00
2.990000000000000000e+02,9.095501375356256801e+00
3.000000000000000000e+02,9.110275709137273026e+00
3.010000000000000000e+02,9.125430484306557233e+00
3.020000000000000000e+02,9.140961702552264256e+00
3.030000000000000000e+02,9.156890862272964782e+00
3.040000000000000000e+02,9.173227365188662219e+00
3.050000000000000000e+02,9.189985486816908633e+00
3.060000000000000000e+02,9.207177095036433556e+00
3.070000000000000000e+02,9.224817045708185503e+00
3.080000000000000000e+02,9.242921055668077202e+00
3.090000000000000000e+02,9.261521226438025778e+00
3.100000000000000000e+02,9.280602490094642221e+00
3.110000000000000000e+02,9.300195053178695659e+00
3.120000000000000000e+02,9.320311045250969428e+00
3.130000000000000000e+02,9.340963125991327942e+00
3.140000000000000000e+02,9.362155641937182082e+00
3.150000000000000000e+02,9.383890783190375728e+00
3.160000000000000000e+02,9.406196146746276909e+00
3.170000000000000000e+02,9.429078823280745425e+00
3.180000000000000000e+02,9.452523246271626434e+00
3.190000000000000000e+02,9.476540504377400254e+00
3.200000000000000000e+02,9.501130712987796656e+00
3.210000000000000000e+02,9.526280190569313078e+00
3.220000000000000000e+02,9.551992618437338933e+00
3.230000000000000000e+02,9.578252726079059087e+00
3.240000000000000000e+02,9.613395110749852535e+00
3.250000000000000000e+02,9.641360684976845619e+00
3.260000000000000000e+02,9.668748376117877186e+00
3.270000000000000000e+02,9.696601460981224108e+00
3.280000000000000000e+02,9.724877233351003625e+00
3.290000000000000000e+02,9.753557438526721413e+00
3.300000000000000000e+02,9.782590954601520394e+00
3.310000000000000000e+02,9.811939779790940008e+00
3.320000000000000000e+02,9.841541092579282335e+00
3.330000000000000000e+02,9.871358484161349978e+00
3.340000000000000000e+02,9.901341914776811137e+00
3.350000000000000000e+02,9.931444762485590161e+00
3.360000000000000000e+02,9.961612772072884425e+00
3.370000000000000000e+02,9.991800600695659895e+00
3.380000000000000000e+02,1.002196224020642035e+01
3.390000000000000000e+02,1.005205197175399690e+01
3.400000000000000000e+02,1.008203322850111050e+01
3.410000000000000000e+02,1.011185932113479247e+01
3.420000000000000000e+02,1.014150616814900374e+01
3.430000000000000000e+02,1.017093316049211893e+01
3.440000000000000000e+02,1.020011805734944588e+01
3.450000000000000000e+02,1.022903788366400946e+01
3.460000000000000000e+02,1.025766705146060964e+01
3.470000000000000000e+02,1.028599280156592854e+01
3.480000000000000000e+02,1.031399415637002548e+01
3.490000000000000000e+02,1.034166260074052524e+01
3.500000000000000000e+02,1.036898497581964484e+01
3.510000000000000000e+02,1.039595929957625842e+01
3.520000000000000000e+02,1.042258057273734373e+01
3.530000000000000000e+02,1.044884996622455198e+01
3.540000000000000000e+02,1.047476687674641482e+01
3.550000000000000000e+02,1.050032737713610764e+01
3.560000000000000000e+02,1.052553644585023918e+01
3.570000000000000000e+02,1.055039650168830434e+01
3.580000000000000000e+02,1.057490955850570380e+01
3.590000000000000000e+02,1.059908473743861812e+01
3.600000000000000000e+02,1.062292980918696905e+01
3.610000000000000000e+02,1.064644482472613163e+01
3.620000000000000000e+02,1.066964202915063709e+01
3.630000000000000000e+02,1.069252020820326443e+01
3.640000000000000000e+02,1.071509485036131792e+01
3.650000000000000000e+02,1.073736723774141488e+01
3.660000000000000000e+02,1.075935164069415784e+01
3.670000000000000000e+02,1.078104544705932000e+01
3.680000000000000000e+02,1.080246019866666352e+01
3.690000000000000000e+02,1.082360432669267780e+01
3.700000000000000000e+02,1.084448112567755196e+01
3.710000000000000000e+02,1.086509837349384355e+01
3.720000000000000000e+02,1.088546380297514204e+01
3.730000000000000000e+02,1.090558175898135396e+01
3.740000000000000000e+02,1.092546061777647282e+01
3.750000000000000000e+02,1.094510607133709001e+01
3.760000000000000000e+02,1.096452312502486848e+01
3.770000000000000000e+02,1.098371582023652948e+01
3.780000000000000000e+02,1.100269102367403384e+01
3.790000000000000000e+02,1.102145568213902393e+01
3.800000000000000000e+02,1.104001413398736453e+01
3.810000000000000000e+02,1.105836614415700581e+01
3.820000000000000000e+02,1.107652300943002466e+01
3.830000000000000000e+02,1.109448692447676521e+01
3.840000000000000000e+02,1.111225985200469424e+01
3.850000000000000000e+02,1.112985118138677798e+01
3.860000000000000000e+02,1.114726348246156107e+01
3.870000000000000000e+02,1.116449683927900161e+01
3.880000000000000000e+02,1.118155778319782456e+01
3.890000000000000000e+02,1.119844743408273402e+01
3.900000000000000000e+02,1.121517321592428296e+01
3.910000000000000000e+02,1.123173688661066549e+01
3.920000000000000000e+02,1.124814146888055078e+01
3.930000000000000000e+02,1.126438901827457784e+01
3.940000000000000000e+02,1.128048072953467518e+01
3.950000000000000000e+02,1.129642410433846322e+01
3.960000000000000000e+02,1.131221969074790934e+01
3.970000000000000000e+02,1.132786820509362435e+01
3.980000000000000000e+02,1.134337316801137518e+01
