# Time [s], Convective Heat Transfer Coefficient [W/m2K]
1.000000000000000000e+00,0.000000000000000000e+00
2.000000000000000000e+00,0.000000000000000000e+00
3.000000000000000000e+00,0.000000000000000000e+00
4.000000000000000000e+00,1.915079995362458862e-02
5.000000000000000000e+00,3.274740728807139234e-02
6.000000000000000000e+00,5.446232763987680220e-02
7.000000000000000000e+00,8.784074779022797708e-02
8.000000000000000000e+00,1.316683440118348869e-01
9.000000000000000000e+00,1.876318323635217944e-01
1.000000000000000000e+01,2.552947830431659404e-01
1.100000000000000000e+01,3.342638564254090117e-01
1.200000000000000000e+01,4.236131884589854346e-01
1.300000000000000000e+01,5.221486060460511780e-01
1.400000000000000000e+01,6.285373039124028116e-01
1.500000000000000000e+01,7.414806051575386636e-01
1.600000000000000000e+01,8.597478870149409813e-01
1.700000000000000000e+01,9.822281215994701498e-01
1.800000000000000000e+01,1.107930785999112988e+00
1.900000000000000000e+01,1.236004637051757227e+00
2.000000000000000000e+01,1.365711796137752954e+00
2.100000000000000000e+01,1.496434236112750948e+00
2.200000000000000000e+01,1.627647896614351497e+00
2.300000000000000000e+01,1.758913646946201448e+00
2.400000000000000000e+01,1.889865234261920435e+00
2.500000000000000000e+01,2.020200391781306948e+00
2.600000000000000000e+01,2.149666648081230313e+00
2.700000000000000000e+01,2.278059955616855259e+00
2.800000000000000000e+01,2.405208057445394676e+00
2.900000000000000000e+01,2.530980993287189840e+00
3.000000000000000000e+01,2.655266719330464653e+00
3.100000000000000000e+01,2.777978617194231337e+00
3.200000000000000000e+01,2.899049321145768410e+00
3.300000000000000000e+01,3.018427181117205205e+00
3.400000000000000000e+01,3.136073774815860471e+00
3.500000000000000000e+01,3.251962272988158098e+00
3.600000000000000000e+01,3.366068546332960487e+00
3.700000000000000000e+01,3.478380780547890350e+00
3.800000000000000000e+01,3.588891335909955238e+00
3.900000000000000000e+01,3.697595878766581023e+00
4.000000000000000000e+01,3.804496390566054931e+00
4.100000000000000000e+01,3.909592392090147861e+00
4.200000000000000000e+01,4.012892468025324177e+00
4.300000000000000000e+01,4.114408134933408512e+00
4.400000000000000000e+01,4.214148935416514696e+00
4.500000000000000000e+01,4.312126857890004494e+00
4.600000000000000000e+01,4.408358914889241476e+00
4.700000000000000000e+01,4.502862567354521950e+00
4.800000000000000000e+01,4.595657911005043950e+00
4.900000000000000000e+01,4.686768152750843797e+00
5.000000000000000000e+01,4.776213790919320523e+00
5.100000000000000000e+01,4.864021028554920356e+00
5.200000000000000000e+01,4.950217763156125272e+00
5.300000000000000000e+01,5.034829845879118082e+00
5.400000000000000000e+01,5.117889748558070551e+00
5.500000000000000000e+01,5.199425225559241248e+00
5.600000000000000000e+01,5.279469366986083045e+00
5.700000000000000000e+01,5.358053940942125060e+00
5.800000000000000000e+01,5.435209868346484008e+00
5.900000000000000000e+01,5.510968826929479647e+00
6.000000000000000000e+01,5.585365925282240518e+00
6.100000000000000000e+01,5.658433642462235902e+00
6.200000000000000000e+01,5.730204462038099855e+00
6.300000000000000000e+01,5.800710868109932861e+00
6.400000000000000000e+01,5.869984399714060608e+00
6.500000000000000000e+01,5.938057266307550819e+00
6.600000000000000000e+01,6.006171005302925359e+00
6.700000000000000000e+01,6.072402670629562849e+00
6.800000000000000000e+01,6.137338991776672081e+00
6.900000000000000000e+01,6.201130899734523361e+00
7.000000000000000000e+01,6.263827644476592127e+00
7.100000000000000000e+01,6.325472180211288986e+00
7.200000000000000000e+01,6.386096147646151522e+00
7.300000000000000000e+01,6.445733743907382518e+00
7.400000000000000000e+01,6.504415928561726012e+00
7.500000000000000000e+01,6.562172667762515843e+00
7.600000000000000000e+01,6.619028558932766870e+00
7.700000000000000000e+01,6.675010559578107738e+00
7.800000000000000000e+01,6.730142883097693485e+00
7.900000000000000000e+01,6.784448238079084703e+00
8.000000000000000000e+01,6.837947196325011134e+00
8.100000000000000000e+01,6.890661562376072524e+00
8.200000000000000000e+01,6.942612339425671131e+00
8.300000000000000000e+01,6.993815961840031292e+00
8.400000000000000000e+01,7.044292409618955197e+00
8.500000000000000000e+01,7.094060773469097470e+00
8.600000000000000000e+01,7.143135419741100556e+00
8.700000000000000000e+01,7.191533780698920353e+00
8.800000000000000000e+01,7.239272356113924722e+00
8.900000000000000000e+01,7.286367218158426695e+00
9.000000000000000000e+01,7.332830340998426344e+00
9.100000000000000000e+01,7.378678243577104112e+00
9.200000000000000000e+01,7.423924280279535992e+00
9.300000000000000000e+01,7.468579883809907116e+00
9.400000000000000000e+01,7.512657998746647969e+00
9.500000000000000000e+01,7.556172586106126410e+00
9.600000000000000000e+01,7.599135933765504447e+00
9.700000000000000000e+01,7.641557750821612593e+00
9.800000000000000000e+01,7.683452449208267865e+00
9.900000000000000000e+01,7.724831439340603900e+00
1.000000000000000000e+02,7.765706010246772095e+00
1.010000000000000000e+02,7.806085225655360560e+00
1.020000000000000000e+02,7.845980984056783569e+00
1.030000000000000000e+02,7.885402231186570354e+00
1.040000000000000000e+02,7.924359768996015241e+00
1.050000000000000000e+02,7.962860998772358201e+00
1.060000000000000000e+02,8.000913743070226403e+00
1.070000000000000000e+02,8.038526227223806941e+00
1.080000000000000000e+02,8.075705626476089805e+00
1.090000000000000000e+02,8.112458826873300666e+00
1.100000000000000000e+02,8.148809715719304236e+00
1.110000000000000000e+02,8.184739200224257161e+00
1.120000000000000000e+02,8.220260524720979234e+00
1.130000000000000000e+02,8.255380267089147850e+00
1.140000000000000000e+02,8.290105606297215601e+00
1.150000000000000000e+02,8.324443792352557381e+00
1.160000000000000000e+02,8.358403150651509961e+00
1.170000000000000000e+02,8.391991046381717112e+00
1.180000000000000000e+02,8.425214419653400455e+00
1.190000000000000000e+02,8.458078004154968355e+00
1.200000000000000000e+02,8.490585712437898280e+00
1.210000000000000000e+02,8.522740667630394285e+00
1.220000000000000000e+02,8.554546032949032153e+00
1.230000000000000000e+02,8.586004533899103563e+00
1.240000000000000000e+02,8.617119420045485256e+00
1.250000000000000000e+02,8.647893507166156013e+00
1.260000000000000000e+02,8.678329503554090607e+00
1.270000000000000000e+02,8.708429859437689657e+00
1.280000000000000000e+02,8.738197695663187048e+00
1.290000000000000000e+02,8.767636933458492265e+00
1.300000000000000000e+02,8.796750453046707108e+00
1.310000000000000000e+02,8.825541631236346163e+00
1.320000000000000000e+02,8.854013429833436533e+00
1.330000000000000000e+02,8.882170635038603379e+00
1.340000000000000000e+02,8.910017589136449701e+00
1.350000000000000000e+02,8.937557765854691638e+00
1.360000000000000000e+02,8.964793360881582629e+00
1.370000000000000000e+02,8.991728371311243251e+00
1.380000000000000000e+02,9.018363792939990020e+00
1.390000000000000000e+02,9.044702144483794726e+00
1.400000000000000000e+02,9.070744293515810242e+00
1.410000000000000000e+02,9.096490493789966436e+00
1.420000000000000000e+02,9.121942230790033079e+00
1.430000000000000000e+02,9.147098969330158980e+00
1.440000000000000000e+02,9.171961686955736326e+00
1.450000000000000000e+02,9.196528680303723391e+00
1.460000000000000000e+02,9.220800316438218402e+00
1.470000000000000000e+02,9.244776238279944991e+00
1.480000000000000000e+02,9.268454973722771939e+00
1.490000000000000000e+02,9.291836403249373433e+00
1.500000000000000000e+02,9.314924018489229240e+00
1.510000000000000000e+02,9.337711542236094786e+00
1.520000000000000000e+02,9.360201735793681976e+00
1.530000000000000000e+02,9.382398069800025553e+00
1.540000000000000000e+02,9.404303649589316194e+00
1.550000000000000000e+02,9.425917535577358564e+00
1.560000000000000000e+02,9.447238245553634783e+00
1.570000000000000000e+02,9.468258281358188810e+00
1.580000000000000000e+02,9.488971929209279565e+00
1.590000000000000000e+02,9.509371203793316241e+00
1.600000000000000000e+02,9.529451564148819998e+00
1.610000000000000000e+02,9.549207215804022653e+00
1.620000000000000000e+02,9.568634073499584503e+00
1.630000000000000000e+02,9.587728958983733563e+00
1.640000000000000000e+02,9.606489453314326354e+00
1.650000000000000000e+02,9.624914132432570213e+00
1.660000000000000000e+02,9.643001791017146829e+00
1.670000000000000000e+02,9.660749304671533366e+00
1.680000000000000000e+02,9.678154287477783058e+00
1.690000000000000000e+02,9.695213332866437383e+00
1.700000000000000000e+02,9.711922525412257201e+00
1.710000000000000000e+02,9.728277570204980407e+00
1.720000000000000000e+02,9.744275028686367079e+00
1.730000000000000000e+02,9.759910458051573201e+00
1.740000000000000000e+02,9.775180751570777815e+00
1.750000000000000000e+02,9.790081794006677995e+00
1.760000000000000000e+02,9.804610909190866863e+00
1.770000000000000000e+02,9.818765864372922536e+00
1.780000000000000000e+02,9.832545830127035202e+00
1.790000000000000000e+02,9.845948944002252290e+00
1.800000000000000000e+02,9.858975695093452174e+00
1.810000000000000000e+02,9.871627210244980688e+00
1.820000000000000000e+02,9.883903688179310976e+00
1.830000000000000000e+02,9.895943312551175097e+00
1.840000000000000000e+02,9.907570920174146423e+00
1.850000000000000000e+02,9.918844104843175913e+00
1.860000000000000000e+02,9.929777594754268577e+00
1.870000000000000000e+02,9.940370758336333878e+00
1.880000000000000000e+02,9.950619594261677747e+00
1.890000000000000000e+02,9.960522191691177696e+00
1.900000000000000000e+02,9.970082475640309028e+00
1.910000000000000000e+02,9.979308740906484232e+00
1.920000000000000000e+02,9.988214671460022842e+00
1.930000000000000000e+02,9.996815199435680199e+00
1.940000000000000000e+02,1.000512650284828808e+01
1.950000000000000000e+02,1.001316506999348022e+01
1.960000000000000000e+02,1.002094385882162086e+01
1.970000000000000000e+02,1.002847617283833870e+01
1.980000000000000000e+02,1.003577299159078073e+01
1.990000000000000000e+02,1.004284659106727950e+01
2.000000000000000000e+02,1.004970914877414501e+01
2.010000000000000000e+02,1.005637228645186099e+01
2.020000000000000000e+02,1.006284730960896212e+01
2.030000000000000000e+02,1.006914671474024381e+01
2.040000000000000000e+02,1.007528118775404913e+01
2.050000000000000000e+02,1.008126318935607735e+01
2.060000000000000000e+02,1.008710384175072505e+01
2.070000000000000000e+02,1.009281397394881274e+01
2.080000000000000000e+02,1.009840458543079755e+01
2.090000000000000000e+02,1.010388673313897634e+01
2.100000000000000000e+02,1.010927004449708733e+01
2.110000000000000000e+02,1.011456558764503910e+01
2.120000000000000000e+02,1.012036364669310196e+01
2.130000000000000000e+02,1.012584830807444014e+01
2.140000000000000000e+02,1.013120021455458897e+01
2.150000000000000000e+02,1.013645236742018163e+01
2.160000000000000000e+02,1.014160621171919452e+01
2.170000000000000000e+02,1.014667477863340217e+01
2.180000000000000000e+02,1.015167513202672467e+01
2.190000000000000000e+02,1.015662732946042901e+01
2.200000000000000000e+02,1.016155327593551760e+01
2.210000000000000000e+02,1.016647501749054250e+01
2.220000000000000000e+02,1.017140761274389504e+01
2.230000000000000000e+02,1.017635860139108850e+01
2.240000000000000000e+02,1.018132950845182272e+01
2.250000000000000000e+02,1.018632038609744050e+01
2.260000000000000000e+02,1.019133038435429484e+01
2.270000000000000000e+02,1.019636102080545470e+01
2.280000000000000000e+02,1.020141335682053274e+01
2.290000000000000000e+02,1.020648856161056628e+01
2.300000000000000000e+02,1.021158847293483340e+01
2.310000000000000000e+02,1.021671581798098138e+01
2.320000000000000000e+02,1.022187151996905463e+01
2.330000000000000000e+02,1.022705828857401755e+01
2.340000000000000000e+02,1.023227826283487651e+01
2.350000000000000000e+02,1.023753424249947486e+01
2.360000000000000000e+02,1.024282901500036758e+01
2.370000000000000000e+02,1.024816535529796901e+01
2.380000000000000000e+02,1.025354391020072420e+01
2.390000000000000000e+02,1.025896821448728247e+01
2.400000000000000000e+02,1.026444134226919758e+01
2.410000000000000000e+02,1.026996457727656420e+01
2.420000000000000000e+02,1.027736295863858018e+01
2.430000000000000000e+02,1.028370367789086082e+01
2.440000000000000000e+02,1.028967152438058363e+01
2.450000000000000000e+02,1.029555150749692949e+01
2.460000000000000000e+02,1.030140503640673799e+01
2.470000000000000000e+02,1.030730128339389928e+01
2.480000000000000000e+02,1.031330029924103009e+01
2.490000000000000000e+02,1.031942612526660774e+01
2.500000000000000000e+02,1.032567149903947268e+01
2.510000000000000000e+02,1.033201767000795357e+01
2.520000000000000000e+02,1.033845692457962961e+01
2.530000000000000000e+02,1.034498169117399691e+01
2.540000000000000000e+02,1.035159054908217513e+01
2.550000000000000000e+02,1.035828360772728907e+01
2.560000000000000000e+02,1.036506347752856172e+01
2.570000000000000000e+02,1.037193307701071632e+01
2.580000000000000000e+02,1.037889639094415095e+01
2.590000000000000000e+02,1.038595368759209414e+01
2.600000000000000000e+02,1.039311357283810189e+01
2.610000000000000000e+02,1.040037951254134718e+01
2.620000000000000000e+02,1.040775559468879052e+01
2.630000000000000000e+02,1.041525084063456852e+01
2.640000000000000000e+02,1.042286634534571022e+01
2.650000000000000000e+02,1.043060878330762264e+01
2.660000000000000000e+02,1.043848359794851532e+01
2.670000000000000000e+02,1.044650080175230933e+01
2.680000000000000000e+02,1.045466487169732517e+01
2.690000000000000000e+02,1.046298131299999667e+01
2.700000000000000000e+02,1.047145622239438900e+01
2.710000000000000000e+02,1.048010118422206283e+01
2.720000000000000000e+02,1.048896226975746693e+01
2.730000000000000000e+02,1.049811527362648356e+01
2.740000000000000000e+02,1.050760435455658204e+01
2.750000000000000000e+02,1.052221209792521961e+01
2.760000000000000000e+02,1.053292552167653717e+01
2.770000000000000000e+02,1.054299430662826786e+01
2.780000000000000000e+02,1.055317602106947739e+01
2.790000000000000000e+02,1.056359461964254720e+01
2.800000000000000000e+02,1.057438718855737214e+01
2.810000000000000000e+02,1.058544611660050450e+01
2.820000000000000000e+02,1.059680995355126143e+01
2.830000000000000000e+02,1.060846808338961900e+01
2.840000000000000000e+02,1.062043743142427488e+01
2.850000000000000000e+02,1.063273533491630474e+01
2.860000000000000000e+02,1.064537591190824983e+01
2.870000000000000000e+02,1.065838059929980730e+01
2.880000000000000000e+02,1.067177147275589633e+01
2.890000000000000000e+02,1.068556742906530310e+01
2.900000000000000000e+02,1.069977909832616803e+01
2.910000000000000000e+02,1.071445696877748333e+01
2.920000000000000000e+02,1.072960550478703290e+01
2.930000000000000000e+02,1.074525970694327626e+01
2.940000000000000000e+02,1.076146261328858067e+01
2.950000000000000000e+02,1.077843784706499974e+01
2.960000000000000000e+02,1.079649239669653760e+01
2.970000000000000000e+02,1.081547727957107163e+01
2.980000000000000000e+02,1.083498917101827530e+01
2.990000000000000000e+02,1.085504949722156809e+01
3.000000000000000000e+02,1.087578626926369374e+01
3.010000000000000000e+02,1.089721322436059836e+01
3.020000000000000000e+02,1.091937913725055509e+01
3.030000000000000000e+02,1.094231143701383857e+01
3.040000000000000000e+02,1.096604667343753370e+01
3.050000000000000000e+02,1.099058142641796820e+01
3.060000000000000000e+02,1.101592776306279120e+01
3.070000000000000000e+02,1.104205315571837431e+01
3.080000000000000000e+02,1.106907902723927783e+01
3.090000000000000000e+02,1.109784970477249111e+01
3.100000000000000000e+02,1.112868048948545052e+01
3.110000000000000000e+02,1.115998591510664362e+01
3.120000000000000000e+02,1.119108612234505884e+01
3.130000000000000000e+02,1.122236513205757369e+01
3.140000000000000000e+02,1.125351160124497163e+01
3.150000000000000000e+02,1.128505882963892404e+01
3.160000000000000000e+02,1.131964954456664074e+01
3.170000000000000000e+02,1.135601315123360422e+01
3.180000000000000000e+02,1.138971227615570747e+01
3.190000000000000000e+02,1.143148724662432869e+01
3.200000000000000000e+02,1.148963976091700800e+01
3.210000000000000000e+02,1.154468194402400627e+01
3.220000000000000000e+02,1.159103122068726854e+01
3.230000000000000000e+02,1.163264180121976743e+01
3.240000000000000000e+02,1.167171508918244527e+01
3.250000000000000000e+02,1.170803271614020780e+01
3.260000000000000000e+02,1.174272856970032031e+01
3.270000000000000000e+02,1.177558282560915082e+01
3.280000000000000000e+02,1.180718367839766714e+01
3.290000000000000000e+02,1.183742945905200905e+01
3.300000000000000000e+02,1.186665340921017453e+01
3.310000000000000000e+02,1.189481226924191937e+01
3.320000000000000000e+02,1.192210162634556170e+01
3.330000000000000000e+02,1.194852905293886280e+01
3.340000000000000000e+02,1.197420764038624696e+01
3.350000000000000000e+02,1.199915120985472505e+01
3.360000000000000000e+02,1.202343944035880163e+01
3.370000000000000000e+02,1.204708737794923934e+01
3.380000000000000000e+02,1.207015103808844891e+01
3.390000000000000000e+02,1.209265100917273195e+01
3.400000000000000000e+02,1.211462362956298300e+01
3.410000000000000000e+02,1.213608845676035841e+01
3.420000000000000000e+02,1.215706870176927801e+01
3.430000000000000000e+02,1.217758312953996302e+01
3.440000000000000000e+02,1.219765897229498464e+01
3.450000000000000000e+02,1.221730459178012396e+01
3.460000000000000000e+02,1.223653895340913422e+01
3.470000000000000000e+02,1.225537533469761797e+01
3.480000000000000000e+02,1.227382717173022542e+01
3.490000000000000000e+02,1.229190643704510499e+01
3.500000000000000000e+02,1.230962382228609009e+01
3.510000000000000000e+02,1.232699176675186337e+01
3.520000000000000000e+02,1.234401606476942703e+01
3.530000000000000000e+02,1.236071189762544620e+01
3.540000000000000000e+02,1.237708208691967116e+01
3.550000000000000000e+02,1.239314065996156700e+01
3.560000000000000000e+02,1.240888952177006921e+01
3.570000000000000000e+02,1.242433931451841289e+01
3.580000000000000000e+02,1.243949773745906739e+01
3.590000000000000000e+02,1.245437245428143136e+01
3.600000000000000000e+02,1.246896816021351917e+01
3.610000000000000000e+02,1.248329135156431313e+01
3.620000000000000000e+02,1.249735030720901818e+01
3.630000000000000000e+02,1.251115035989621482e+01
3.640000000000000000e+02,1.252469415501088790e+01
3.650000000000000000e+02,1.253799277625014952e+01
3.660000000000000000e+02,1.255104514909021240e+01
3.670000000000000000e+02,1.256386219610475763e+01
3.680000000000000000e+02,1.257644628958767541e+01
3.690000000000000000e+02,1.258879968589073428e+01
3.700000000000000000e+02,1.260093086743360402e+01
3.710000000000000000e+02,1.261284381491478612e+01
3.720000000000000000e+02,1.262454289923089057e+01
3.730000000000000000e+02,1.263603104625929063e+01
3.740000000000000000e+02,1.264731523978916883e+01
3.750000000000000000e+02,1.265839691658628929e+01
3.760000000000000000e+02,1.266928390362330603e+01
3.770000000000000000e+02,1.267997580319331696e+01
3.780000000000000000e+02,1.269047794625151404e+01
3.790000000000000000e+02,1.270079626594323230e+01
3.800000000000000000e+02,1.271093019386204048e+01
3.810000000000000000e+02,1.272088819309563057e+01
3.820000000000000000e+02,1.273066876486612031e+01
3.830000000000000000e+02,1.274027906046823944e+01
3.840000000000000000e+02,1.274971919009252552e+01
3.850000000000000000e+02,1.275899579443458265e+01
3.860000000000000000e+02,1.276811072466336938e+01
3.870000000000000000e+02,1.277706738755404992e+01
3.880000000000000000e+02,1.278586729810260714e+01
3.890000000000000000e+02,1.279451545625595088e+01
3.900000000000000000e+02,1.280301154014958165e+01
3.910000000000000000e+02,1.281136277969523718e+01
3.920000000000000000e+02,1.281956873618379866e+01
3.930000000000000000e+02,1.282763358816319155e+01
3.940000000000000000e+02,1.283556034756156272e+01
3.950000000000000000e+02,1.284334951924368795e+01
3.960000000000000000e+02,1.285100471620158480e+01
3.970000000000000000e+02,1.285853016349287081e+01
3.980000000000000000e+02,1.286592560374881167e+01
