# Time [s], Convective Heat Transfer Coefficient [W/m2K]
1.000000000000000000e+00,0.000000000000000000e+00
2.000000000000000000e+00,0.000000000000000000e+00
3.000000000000000000e+00,0.000000000000000000e+00
4.000000000000000000e+00,1.915079995362458862e-02
5.000000000000000000e+00,3.380449737731881787e-02
6.000000000000000000e+00,6.173553112719559754e-02
7.000000000000000000e+00,1.006104104099616314e-01
8.000000000000000000e+00,1.532063996672676787e-01
9.000000000000000000e+00,2.198292007659519709e-01
1.000000000000000000e+01,3.005667045753148137e-01
1.100000000000000000e+01,3.947122187094278534e-01
1.200000000000000000e+01,5.011436314359443145e-01
1.300000000000000000e+01,6.184192591627668545e-01
1.400000000000000000e+01,7.449645617219444738e-01
1.500000000000000000e+01,8.792244408745396589e-01
1.600000000000000000e+01,1.019727858747250027e+00
1.700000000000000000e+01,1.165139669560625979e+00
1.800000000000000000e+01,1.314261692830198447e+00
1.900000000000000000e+01,1.466053610075741087e+00
2.000000000000000000e+01,1.619598486368007739e+00
2.100000000000000000e+01,1.774108394441556102e+00
2.200000000000000000e+01,1.928900416390280315e+00
2.300000000000000000e+01,2.083388892210596310e+00
2.400000000000000000e+01,2.237069535190026937e+00
2.500000000000000000e+01,2.389529133844312980e+00
2.600000000000000000e+01,2.540420044536797040e+00
2.700000000000000000e+01,2.689461347038593075e+00
2.800000000000000000e+01,2.836436565520252362e+00
2.900000000000000000e+01,2.981176108085481058e+00
3.000000000000000000e+01,3.126311005513653818e+00
3.100000000000000000e+01,3.267375000722779976e+00
3.200000000000000000e+01,3.405540410831673359e+00
3.300000000000000000e+01,3.541035650895715925e+00
3.400000000000000000e+01,3.673900908297675016e+00
3.500000000000000000e+01,3.804177634852112799e+00
3.600000000000000000e+01,3.931907774407492617e+00
3.700000000000000000e+01,4.057137080326567613e+00
3.800000000000000000e+01,4.179917189764410068e+00
3.900000000000000000e+01,4.300306136519142619e+00
4.000000000000000000e+01,4.418360249242787141e+00
4.100000000000000000e+01,4.534141888122112718e+00
4.200000000000000000e+01,4.647719243524897514e+00
4.300000000000000000e+01,4.759159326503044518e+00
4.400000000000000000e+01,4.868532618623923724e+00
4.500000000000000000e+01,4.975903227585573241e+00
4.600000000000000000e+01,5.081336487978833638e+00
4.700000000000000000e+01,5.184891720815217653e+00
4.800000000000000000e+01,5.286625493287569810e+00
4.900000000000000000e+01,5.386593442965469158e+00
5.000000000000000000e+01,5.484845410537516841e+00
5.100000000000000000e+01,5.581427620450895688e+00
5.200000000000000000e+01,5.676384857401854944e+00
5.300000000000000000e+01,5.769755954167957057e+00
5.400000000000000000e+01,5.861585372161093765e+00
5.500000000000000000e+01,5.951910301958830196e+00
5.600000000000000000e+01,6.040895071817431017e+00
5.700000000000000000e+01,6.128397089675766019e+00
5.800000000000000000e+01,6.214494837440330599e+00
5.900000000000000000e+01,6.299228897009101935e+00
6.000000000000000000e+01,6.382638574390042230e+00
6.100000000000000000e+01,6.464762170691557230e+00
6.200000000000000000e+01,6.545631920962289740e+00
6.300000000000000000e+01,6.625281587075929401e+00
6.400000000000000000e+01,6.703740774926954415e+00
6.500000000000000000e+01,6.781035073339412911e+00
6.600000000000000000e+01,6.857193420307579501e+00
6.700000000000000000e+01,6.932236735760494817e+00
6.800000000000000000e+01,7.006190888982087195e+00
6.900000000000000000e+01,7.079077744102482583e+00
7.000000000000000000e+01,7.150917362093999863e+00
7.100000000000000000e+01,7.221726576550662635e+00
7.200000000000000000e+01,7.291525879584626502e+00
7.300000000000000000e+01,7.360333004687160674e+00
7.400000000000000000e+01,7.428164430152372155e+00
7.500000000000000000e+01,7.495037971202687110e+00
7.600000000000000000e+01,7.560973669115981011e+00
7.700000000000000000e+01,7.625992178135191146e+00
7.800000000000000000e+01,7.690113713903598658e+00
7.900000000000000000e+01,7.753358080658005136e+00
8.000000000000000000e+01,7.815743163826488704e+00
8.100000000000000000e+01,7.877283753007540135e+00
8.200000000000000000e+01,7.937993443819315154e+00
8.300000000000000000e+01,7.997883987587446342e+00
8.400000000000000000e+01,8.057008517385524371e+00
8.500000000000000000e+01,8.115311759387454416e+00
8.600000000000000000e+01,8.172824661375564403e+00
8.700000000000000000e+01,8.229568004465132702e+00
8.800000000000000000e+01,8.285560261620679157e+00
8.900000000000000000e+01,8.340817585652374078e+00
9.000000000000000000e+01,8.395349311610385001e+00
9.100000000000000000e+01,8.449159866742842695e+00
9.200000000000000000e+01,8.502248424436334773e+00
9.300000000000000000e+01,8.554614815857751964e+00
9.400000000000000000e+01,8.606259794732167734e+00
9.500000000000000000e+01,8.657185284529356650e+00
9.600000000000000000e+01,8.707395999630588079e+00
9.700000000000000000e+01,8.756899890160655175e+00
9.800000000000000000e+01,8.805707051952694542e+00
9.900000000000000000e+01,8.853829309707117901e+00
1.000000000000000000e+02,8.901276579829914937e+00
1.010000000000000000e+02,8.948054633270261959e+00
1.020000000000000000e+02,8.994167189882993796e+00
1.030000000000000000e+02,9.039614013414841054e+00
1.040000000000000000e+02,9.084394222737685709e+00
1.050000000000000000e+02,9.128503224929913173e+00
1.060000000000000000e+02,9.171935526570612396e+00
1.070000000000000000e+02,9.214687245360085655e+00
1.080000000000000000e+02,9.256750423365421199e+00
1.090000000000000000e+02,9.298116446661156331e+00
1.100000000000000000e+02,9.338778206027942730e+00
1.110000000000000000e+02,9.378725225682343236e+00
1.120000000000000000e+02,9.417967808089473536e+00
1.130000000000000000e+02,9.456487343563074077e+00
1.140000000000000000e+02,9.494316031569072223e+00
1.150000000000000000e+02,9.531467745625262111e+00
1.160000000000000000e+02,9.567914848479516010e+00
1.170000000000000000e+02,9.603596598252202909e+00
1.180000000000000000e+02,9.638456343716752528e+00
1.190000000000000000e+02,9.672460559987804629e+00
1.200000000000000000e+02,9.705596354025280093e+00
1.210000000000000000e+02,9.737850354416929477e+00
1.220000000000000000e+02,9.769200848778169188e+00
1.230000000000000000e+02,9.799619719829905762e+00
1.240000000000000000e+02,9.829074895485401697e+00
1.250000000000000000e+02,9.857533297532313554e+00
1.260000000000000000e+02,9.884963678628071904e+00
1.270000000000000000e+02,9.911338767132368943e+00
1.280000000000000000e+02,9.936634740865901705e+00
1.290000000000000000e+02,9.960835445356609696e+00
1.300000000000000000e+02,9.983929810280711692e+00
1.310000000000000000e+02,1.000591590477771753e+01
1.320000000000000000e+02,1.002680281152407105e+01
1.330000000000000000e+02,1.004661109381009609e+01
1.340000000000000000e+02,1.006538149039501917e+01
1.350000000000000000e+02,1.008359056854801317e+01
1.360000000000000000e+02,1.010084810235597352e+01
1.370000000000000000e+02,1.011725679761597796e+01
1.380000000000000000e+02,1.013275684475955707e+01
1.390000000000000000e+02,1.014731532630134403e+01
1.400000000000000000e+02,1.016103141764057582e+01
1.410000000000000000e+02,1.017405164982903365e+01
1.420000000000000000e+02,1.018647765067563249e+01
1.430000000000000000e+02,1.019837483497973452e+01
1.440000000000000000e+02,1.020981042274731010e+01
1.450000000000000000e+02,1.022084877404227576e+01
1.460000000000000000e+02,1.023155113722495635e+01
1.470000000000000000e+02,1.024197773315296978e+01
1.480000000000000000e+02,1.025218501586876485e+01
1.490000000000000000e+02,1.026222807103043166e+01
1.500000000000000000e+02,1.027215720973926771e+01
1.510000000000000000e+02,1.028201780639565754e+01
1.520000000000000000e+02,1.029186792548921048e+01
1.530000000000000000e+02,1.030179585143771703e+01
1.540000000000000000e+02,1.031189920460611376e+01
1.550000000000000000e+02,1.032474663349264610e+01
1.560000000000000000e+02,1.033633013363067832e+01
1.570000000000000000e+02,1.034726882273596082e+01
1.580000000000000000e+02,1.035793763277228052e+01
1.590000000000000000e+02,1.036862381750553652e+01
1.600000000000000000e+02,1.037960769190218713e+01
1.610000000000000000e+02,1.039086577099899955e+01
1.620000000000000000e+02,1.040234843546398835e+01
1.630000000000000000e+02,1.041408623122026356e+01
1.640000000000000000e+02,1.042607288516573760e+01
1.650000000000000000e+02,1.043832652963149421e+01
1.660000000000000000e+02,1.045086883513310561e+01
1.670000000000000000e+02,1.046372035932795264e+01
1.680000000000000000e+02,1.047690886609449556e+01
1.690000000000000000e+02,1.049045602916888775e+01
1.700000000000000000e+02,1.050444581370452823e+01
1.710000000000000000e+02,1.051916568317644618e+01
1.720000000000000000e+02,1.053477834406715452e+01
1.730000000000000000e+02,1.055100432137826338e+01
1.740000000000000000e+02,1.056763130066283018e+01
1.750000000000000000e+02,1.058476503350376063e+01
1.760000000000000000e+02,1.060246998717291333e+01
1.770000000000000000e+02,1.062940953853425619e+01
1.780000000000000000e+02,1.064957730319811979e+01
1.790000000000000000e+02,1.066883898777679640e+01
1.800000000000000000e+02,1.068923018406695924e+01
1.810000000000000000e+02,1.071136263440931380e+01
1.820000000000000000e+02,1.073443147711492607e+01
1.830000000000000000e+02,1.075889455861850585e+01
1.840000000000000000e+02,1.078468762861083263e+01
1.850000000000000000e+02,1.081199430845072129e+01
1.860000000000000000e+02,1.084137841314615081e+01
1.870000000000000000e+02,1.087411248828641774e+01
1.880000000000000000e+02,1.091005911153247254e+01
1.890000000000000000e+02,1.094774691660362009e+01
1.900000000000000000e+02,1.098784808116232803e+01
1.910000000000000000e+02,1.103110953334280708e+01
1.920000000000000000e+02,1.107764732469178881e+01
1.930000000000000000e+02,1.112781358213291938e+01
1.940000000000000000e+02,1.118157061019364207e+01
1.950000000000000000e+02,1.123893079518515847e+01
1.960000000000000000e+02,1.130490967371748567e+01
1.970000000000000000e+02,1.137696324296731198e+01
1.980000000000000000e+02,1.144488368999755679e+01
1.990000000000000000e+02,1.151263875566436035e+01
2.000000000000000000e+02,1.159190863573669894e+01
2.010000000000000000e+02,1.171468954025247555e+01
2.020000000000000000e+02,1.180441861693113559e+01
2.030000000000000000e+02,1.188704722984103057e+01
2.040000000000000000e+02,1.195709682780963057e+01
2.050000000000000000e+02,1.202405765427915441e+01
2.060000000000000000e+02,1.208448213679593408e+01
2.070000000000000000e+02,1.214238278461678000e+01
2.080000000000000000e+02,1.219618789875865872e+01
2.090000000000000000e+02,1.224784411322663047e+01
2.100000000000000000e+02,1.229664192421687829e+01
2.110000000000000000e+02,1.234359451743835301e+01
2.120000000000000000e+02,1.238838790660574674e+01
2.130000000000000000e+02,1.243159123937949673e+01
2.140000000000000000e+02,1.247307925028010978e+01
2.150000000000000000e+02,1.251318762270794416e+01
2.160000000000000000e+02,1.255188011974955131e+01
2.170000000000000000e+02,1.258936052064054145e+01
2.180000000000000000e+02,1.262562498485087836e+01
2.190000000000000000e+02,1.266081904191708674e+01
2.200000000000000000e+02,1.269495806654425607e+01
2.210000000000000000e+02,1.272813254257675730e+01
2.220000000000000000e+02,1.276036980616171235e+01
2.230000000000000000e+02,1.279172978160037744e+01
2.240000000000000000e+02,1.282224407359632856e+01
2.250000000000000000e+02,1.285196679506929129e+01
2.260000000000000000e+02,1.288091447766809239e+01
2.270000000000000000e+02,1.290912637507128480e+01
2.280000000000000000e+02,1.293662986150317806e+01
2.290000000000000000e+02,1.296345102354036172e+01
2.300000000000000000e+02,1.298961797106258942e+01
2.310000000000000000e+02,1.301514803546966625e+01
2.320000000000000000e+02,1.304006789397949539e+01
2.330000000000000000e+02,1.306439303945321306e+01
2.340000000000000000e+02,1.308814536146722141e+01
2.350000000000000000e+02,1.311134010648767401e+01
2.360000000000000000e+02,1.313399829100829308e+01
2.370000000000000000e+02,1.315613606447328898e+01
2.380000000000000000e+02,1.317776021961170940e+01
2.390000000000000000e+02,1.319889482738608066e+01
2.400000000000000000e+02,1.321955243572660343e+01
2.410000000000000000e+02,1.323974701558882749e+01
2.420000000000000000e+02,1.325948435947611159e+01
2.430000000000000000e+02,1.327878464773612777e+01
2.440000000000000000e+02,1.329765768732030473e+01
2.450000000000000000e+02,1.331611389375164833e+01
2.460000000000000000e+02,1.333416428812217092e+01
2.470000000000000000e+02,1.335181839331204934e+01
2.480000000000000000e+02,1.336908622386060053e+01
2.490000000000000000e+02,1.338597782722763085e+01
2.500000000000000000e+02,1.340250745909749419e+01
2.510000000000000000e+02,1.341868021017442381e+01
2.520000000000000000e+02,1.343450256305434998e+01
2.530000000000000000e+02,1.344998794339723247e+01
2.540000000000000000e+02,1.346514302176550260e+01
2.550000000000000000e+02,1.347997700615554173e+01
2.560000000000000000e+02,1.349449390354021006e+01
2.570000000000000000e+02,1.350870527966782930e+01
2.580000000000000000e+02,1.352261680356837381e+01
2.590000000000000000e+02,1.353623303916891629e+01
2.600000000000000000e+02,1.354956740512056790e+01
2.610000000000000000e+02,1.356262159960376401e+01
2.620000000000000000e+02,1.357540369159652904e+01
2.630000000000000000e+02,1.358791728438888313e+01
2.640000000000000000e+02,1.360017370996577135e+01
2.650000000000000000e+02,1.361217559944041788e+01
2.660000000000000000e+02,1.362392926013311722e+01
2.670000000000000000e+02,1.363543904184596478e+01
2.680000000000000000e+02,1.364671496077305513e+01
2.690000000000000000e+02,1.365775702899186861e+01
2.700000000000000000e+02,1.366857476013191786e+01
2.710000000000000000e+02,1.367917070528392998e+01
2.720000000000000000e+02,1.368954975334288449e+01
2.730000000000000000e+02,1.369971743034487410e+01
2.740000000000000000e+02,1.370967921114384680e+01
2.750000000000000000e+02,1.371943859335982729e+01
2.760000000000000000e+02,1.372900071477325845e+01
2.770000000000000000e+02,1.373836849776179392e+01
2.780000000000000000e+02,1.374754935476631168e+01
2.790000000000000000e+02,1.375654383979764717e+01
2.800000000000000000e+02,1.376535693782371794e+01
2.810000000000000000e+02,1.377399495207324698e+01
2.820000000000000000e+02,1.378245779403847138e+01
2.830000000000000000e+02,1.379075281077251702e+01
2.840000000000000000e+02,1.379888103140188349e+01
2.850000000000000000e+02,1.380684862701394344e+01
2.860000000000000000e+02,1.381465657703845906e+01
2.870000000000000000e+02,1.382230982856652268e+01
2.880000000000000000e+02,1.382981048143111025e+01
2.890000000000000000e+02,1.383716190064937379e+01
2.900000000000000000e+02,1.384436797736084479e+01
2.910000000000000000e+02,1.385143251669012621e+01
2.920000000000000000e+02,1.385835698372316749e+01
2.930000000000000000e+02,1.386514526526743651e+01
2.940000000000000000e+02,1.387179879181360320e+01
2.950000000000000000e+02,1.387832135113515086e+01
2.960000000000000000e+02,1.388471616310333445e+01
2.970000000000000000e+02,1.389098515493109964e+01
2.980000000000000000e+02,1.389713005846105354e+01
2.990000000000000000e+02,1.390315610546850422e+01
3.000000000000000000e+02,1.390906354194837213e+01
3.010000000000000000e+02,1.391485563014203386e+01
3.020000000000000000e+02,1.392053489094463359e+01
3.030000000000000000e+02,1.392610340917955902e+01
3.040000000000000000e+02,1.393156223256277570e+01
3.050000000000000000e+02,1.393691595625236523e+01
3.060000000000000000e+02,1.394216445935061977e+01
3.070000000000000000e+02,1.394731213000535242e+01
3.080000000000000000e+02,1.395235864870424614e+01
3.090000000000000000e+02,1.395730807924591055e+01
3.100000000000000000e+02,1.396216086697252123e+01
3.110000000000000000e+02,1.396692021247274873e+01
3.120000000000000000e+02,1.397158624556085904e+01
3.130000000000000000e+02,1.397616322716232418e+01
3.140000000000000000e+02,1.398065163058285876e+01
3.150000000000000000e+02,1.398505318154896848e+01
3.160000000000000000e+02,1.398936983753650232e+01
3.170000000000000000e+02,1.399360390683165889e+01
3.180000000000000000e+02,1.399775589694068323e+01
3.190000000000000000e+02,1.400182780408382044e+01
3.200000000000000000e+02,1.400582125908205278e+01
3.210000000000000000e+02,1.400973854250418071e+01
3.220000000000000000e+02,1.401358007948508444e+01
3.230000000000000000e+02,1.401734754294872687e+01
3.240000000000000000e+02,1.402104361218117035e+01
3.250000000000000000e+02,1.402466792339865087e+01
3.260000000000000000e+02,1.402822362102278575e+01
3.270000000000000000e+02,1.403171033323957495e+01
3.280000000000000000e+02,1.403513113370887311e+01
3.290000000000000000e+02,1.403848576196928732e+01
3.300000000000000000e+02,1.404177716220620198e+01
3.310000000000000000e+02,1.404500506687582551e+01
3.320000000000000000e+02,1.404817146124889149e+01
3.330000000000000000e+02,1.405127773251174261e+01
3.340000000000000000e+02,1.405432443417518407e+01
3.350000000000000000e+02,1.405731300588084665e+01
3.360000000000000000e+02,1.406024470574832286e+01
3.370000000000000000e+02,1.406312055167140151e+01
3.380000000000000000e+02,1.406594149939574834e+01
3.390000000000000000e+02,1.406870891586049765e+01
3.400000000000000000e+02,1.407142369167892682e+01
3.410000000000000000e+02,1.407408689221264098e+01
3.420000000000000000e+02,1.407669934378261267e+01
3.430000000000000000e+02,1.407926251999048795e+01
3.440000000000000000e+02,1.408177682866445757e+01
3.450000000000000000e+02,1.408424344320670940e+01
3.460000000000000000e+02,1.408666347541752017e+01
3.470000000000000000e+02,1.408903726801035461e+01
3.480000000000000000e+02,1.409136640034407861e+01
3.490000000000000000e+02,1.409365127016538644e+01
3.500000000000000000e+02,1.409589256845486283e+01
3.510000000000000000e+02,1.409809180906154502e+01
3.520000000000000000e+02,1.410024903122814521e+01
3.530000000000000000e+02,1.410236574492811101e+01
3.540000000000000000e+02,1.410444228075055229e+01
3.550000000000000000e+02,1.410647985061176435e+01
3.560000000000000000e+02,1.410847872342355558e+01
3.570000000000000000e+02,1.411044010785709624e+01
3.580000000000000000e+02,1.411236397631436645e+01
3.590000000000000000e+02,1.411425182844048010e+01
3.600000000000000000e+02,1.411610363431634241e+01
3.610000000000000000e+02,1.411792130163601300e+01
3.620000000000000000e+02,1.411970409339144972e+01
3.630000000000000000e+02,1.412145344477952946e+01
3.640000000000000000e+02,1.412316979140639361e+01
3.650000000000000000e+02,1.412485386136131993e+01
3.660000000000000000e+02,1.412650602963755375e+01
3.670000000000000000e+02,1.412812731555630918e+01
3.680000000000000000e+02,1.412971791623162154e+01
3.690000000000000000e+02,1.413127873164470927e+01
3.700000000000000000e+02,1.413280989870580484e+01
3.710000000000000000e+02,1.413431249135570233e+01
3.720000000000000000e+02,1.413578652778181599e+01
3.730000000000000000e+02,1.413723302151659134e+01
3.740000000000000000e+02,1.413865251646495125e+01
3.750000000000000000e+02,1.414004520450035329e+01
3.760000000000000000e+02,1.414141156972262614e+01
3.770000000000000000e+02,1.414275227113808775e+01
3.780000000000000000e+02,1.414406814251446320e+01
3.790000000000000000e+02,1.414535908067902170e+01
3.800000000000000000e+02,1.414662585966878083e+01
3.810000000000000000e+02,1.414786849244075917e+01
3.820000000000000000e+02,1.414908810267786166e+01
3.830000000000000000e+02,1.415028464380355011e+01
3.840000000000000000e+02,1.415145923811028084e+01
3.850000000000000000e+02,1.415261113674365134e+01
3.860000000000000000e+02,1.415374222066351884e+01
3.870000000000000000e+02,1.415485127290844503e+01
3.880000000000000000e+02,1.415594028996549270e+01
3.890000000000000000e+02,1.415700805451631794e+01
3.900000000000000000e+02,1.415805673691196453e+01
3.910000000000000000e+02,1.415908500264792735e+01
3.920000000000000000e+02,1.416009455367931480e+01
3.930000000000000000e+02,1.416108475589054905e+01
3.940000000000000000e+02,1.416205660960329382e+01
3.950000000000000000e+02,1.416301018071970574e+01
3.960000000000000000e+02,1.416394582671563640e+01
3.970000000000000000e+02,1.416486425479584277e+01
3.980000000000000000e+02,1.416576547164982358e+01
