# Time [s], Convective Heat Transfer Coefficient [W/m2K]
1.000000000000000000e+00,0.000000000000000000e+00
2.000000000000000000e+00,0.000000000000000000e+00
3.000000000000000000e+00,0.000000000000000000e+00
4.000000000000000000e+00,1.915079995362458862e-02
5.000000000000000000e+00,3.274740728807139234e-02
6.000000000000000000e+00,5.709554346458797780e-02
7.000000000000000000e+00,9.406463398427032663e-02
8.000000000000000000e+00,1.434747862964322607e-01
9.000000000000000000e+00,2.065704339112342525e-01
1.000000000000000000e+01,2.834524715054790311e-01
1.100000000000000000e+01,3.735517859363551851e-01
1.200000000000000000e+01,4.758308573059147895e-01
1.300000000000000000e+01,5.889947803907920054e-01
1.400000000000000000e+01,7.115699110235007563e-01
1.500000000000000000e+01,8.420627253425561065e-01
1.600000000000000000e+01,9.790498009259236412e-01
1.700000000000000000e+01,1.121216204970722163e+00
1.800000000000000000e+01,1.267385131247903418e+00
1.900000000000000000e+01,1.416510748030046285e+00
2.000000000000000000e+01,1.567680922857284109e+00
2.100000000000000000e+01,1.720094196564643241e+00
2.200000000000000000e+01,1.873054779376172041e+00
2.300000000000000000e+01,2.025966929544159356e+00
2.400000000000000000e+01,2.178322897505623690e+00
2.500000000000000000e+01,2.329677520609747088e+00
2.600000000000000000e+01,2.479678965644941169e+00
2.700000000000000000e+01,2.628033138309818995e+00
2.800000000000000000e+01,2.774505623727297809e+00
2.900000000000000000e+01,2.918903775880136831e+00
3.000000000000000000e+01,3.061101647563327255e+00
3.100000000000000000e+01,3.200996160812707547e+00
3.200000000000000000e+01,3.338525217910940590e+00
3.300000000000000000e+01,3.473651261379268274e+00
3.400000000000000000e+01,3.606361459539574543e+00
3.500000000000000000e+01,3.736646420073513220e+00
3.600000000000000000e+01,3.864526663914990223e+00
3.700000000000000000e+01,3.990067600366393741e+00
3.800000000000000000e+01,4.113236531673036822e+00
3.900000000000000000e+01,4.234092095283620516e+00
4.000000000000000000e+01,4.352683002800700862e+00
4.100000000000000000e+01,4.469058136784693325e+00
4.200000000000000000e+01,4.583271971610625606e+00
4.300000000000000000e+01,4.695381737166475666e+00
4.400000000000000000e+01,4.805448493274977473e+00
4.500000000000000000e+01,4.913538853313256460e+00
4.600000000000000000e+01,5.019702586109925591e+00
4.700000000000000000e+01,5.124005256680170817e+00
4.800000000000000000e+01,5.226505043442903009e+00
4.900000000000000000e+01,5.327250750031590876e+00
5.000000000000000000e+01,5.426289798388126862e+00
5.100000000000000000e+01,5.523669330094779895e+00
5.200000000000000000e+01,5.619437521011966474e+00
5.300000000000000000e+01,5.713629961441450966e+00
5.400000000000000000e+01,5.806295556539856406e+00
5.500000000000000000e+01,5.897464162386603981e+00
5.600000000000000000e+01,5.987177852636095032e+00
5.700000000000000000e+01,6.075474886298133370e+00
5.800000000000000000e+01,6.162386037570913189e+00
5.900000000000000000e+01,6.247944039899192781e+00
6.000000000000000000e+01,6.332179655857553158e+00
6.100000000000000000e+01,6.415122061823754329e+00
6.200000000000000000e+01,6.496804701084087696e+00
6.300000000000000000e+01,6.577281275509114344e+00
6.400000000000000000e+01,6.656535439967631085e+00
6.500000000000000000e+01,6.734606552919543354e+00
6.600000000000000000e+01,6.811516475356433453e+00
6.700000000000000000e+01,6.887300813873372007e+00
6.800000000000000000e+01,6.961981566012205747e+00
6.900000000000000000e+01,7.035590263737287131e+00
7.000000000000000000e+01,7.108153531851967522e+00
7.100000000000000000e+01,7.179690144530001206e+00
7.200000000000000000e+01,7.250218665319341227e+00
7.300000000000000000e+01,7.319756129751523233e+00
7.400000000000000000e+01,7.388322880786483360e+00
7.500000000000000000e+01,7.455935509858672816e+00
7.600000000000000000e+01,7.522611308513727835e+00
7.700000000000000000e+01,7.588366970852587379e+00
7.800000000000000000e+01,7.653218629297678710e+00
7.900000000000000000e+01,7.717181298105169063e+00
8.000000000000000000e+01,7.780270692283719036e+00
8.100000000000000000e+01,7.842502780399907891e+00
8.200000000000000000e+01,7.903888321893472124e+00
8.300000000000000000e+01,7.964441189670949051e+00
8.400000000000000000e+01,8.024174855990366950e+00
8.500000000000000000e+01,8.083099727368988852e+00
8.600000000000000000e+01,8.141225829366403488e+00
8.700000000000000000e+01,8.198563173741282739e+00
8.800000000000000000e+01,8.255125531341175105e+00
8.900000000000000000e+01,8.310920005683342993e+00
9.000000000000000000e+01,8.365956834398904363e+00
9.100000000000000000e+01,8.420332887763716911e+00
9.200000000000000000e+01,8.473917441332046607e+00
9.300000000000000000e+01,8.526764002987320623e+00
9.400000000000000000e+01,8.578900836456716306e+00
9.500000000000000000e+01,8.630343971558906091e+00
9.600000000000000000e+01,8.681106319779381408e+00
9.700000000000000000e+01,8.731190639780418650e+00
9.800000000000000000e+01,8.780592690286258772e+00
9.900000000000000000e+01,8.829309417221510969e+00
1.000000000000000000e+02,8.877339768266230280e+00
1.010000000000000000e+02,8.924683987607643587e+00
1.020000000000000000e+02,8.971345284576981882e+00
1.030000000000000000e+02,9.017325643865389040e+00
1.040000000000000000e+02,9.062627592079502747e+00
1.050000000000000000e+02,9.107249225752056532e+00
1.060000000000000000e+02,9.151189590550675490e+00
1.070000000000000000e+02,9.194446135014736399e+00
1.080000000000000000e+02,9.237017657000571091e+00
1.090000000000000000e+02,9.278898522833996410e+00
1.100000000000000000e+02,9.320082088874006132e+00
1.110000000000000000e+02,9.360562869796035912e+00
1.120000000000000000e+02,9.400332236487765059e+00
1.130000000000000000e+02,9.439380897768590017e+00
1.140000000000000000e+02,9.477696304083815804e+00
1.150000000000000000e+02,9.515265731903431501e+00
1.160000000000000000e+02,9.552075241951689222e+00
1.170000000000000000e+02,9.588106263995086920e+00
1.180000000000000000e+02,9.623369364312246432e+00
1.190000000000000000e+02,9.657850088605293593e+00
1.200000000000000000e+02,9.691559690091633428e+00
1.210000000000000000e+02,9.724487814148339737e+00
1.220000000000000000e+02,9.756583173180487734e+00
1.230000000000000000e+02,9.787776336764240526e+00
1.240000000000000000e+02,9.818017365004298114e+00
1.250000000000000000e+02,9.847277519783064648e+00
1.260000000000000000e+02,9.875540159908510418e+00
1.270000000000000000e+02,9.902791633680818606e+00
1.280000000000000000e+02,9.929019973155687850e+00
1.290000000000000000e+02,9.954215408044959190e+00
1.300000000000000000e+02,9.978372280008747097e+00
1.310000000000000000e+02,1.000148903773445674e+01
1.320000000000000000e+02,1.002356999191683684e+01
1.330000000000000000e+02,1.004462692243376765e+01
1.340000000000000000e+02,1.006467766003283870e+01
1.350000000000000000e+02,1.008374944200520318e+01
1.360000000000000000e+02,1.010187498599601952e+01
1.370000000000000000e+02,1.011909495654033542e+01
1.380000000000000000e+02,1.013545606685368838e+01
1.390000000000000000e+02,1.015101332270536894e+01
1.400000000000000000e+02,1.016654761532092621e+01
1.410000000000000000e+02,1.018124063356797038e+01
1.420000000000000000e+02,1.019527098469060711e+01
1.430000000000000000e+02,1.020862587250188191e+01
1.440000000000000000e+02,1.022131793148459167e+01
1.450000000000000000e+02,1.023346103281342678e+01
1.460000000000000000e+02,1.024519220117094420e+01
1.470000000000000000e+02,1.025661304208125202e+01
1.480000000000000000e+02,1.026779632391998476e+01
1.490000000000000000e+02,1.027880251234675590e+01
1.500000000000000000e+02,1.028968534463113826e+01
1.510000000000000000e+02,1.030049059207029138e+01
1.520000000000000000e+02,1.031125912472641204e+01
1.530000000000000000e+02,1.032203037236793186e+01
1.540000000000000000e+02,1.033283773503631942e+01
1.550000000000000000e+02,1.034371509907169795e+01
1.560000000000000000e+02,1.035469049549907439e+01
1.570000000000000000e+02,1.036579062301423448e+01
1.580000000000000000e+02,1.037704183409275416e+01
1.590000000000000000e+02,1.038846904635626345e+01
1.600000000000000000e+02,1.040009315215972130e+01
1.610000000000000000e+02,1.041549083155813271e+01
1.620000000000000000e+02,1.042884920832451456e+01
1.630000000000000000e+02,1.044142566035855424e+01
1.640000000000000000e+02,1.045387548544741918e+01
1.650000000000000000e+02,1.046652558246228715e+01
1.660000000000000000e+02,1.047964489239037533e+01
1.670000000000000000e+02,1.049320051826375000e+01
1.680000000000000000e+02,1.050720219207671491e+01
1.690000000000000000e+02,1.052166195955278383e+01
1.700000000000000000e+02,1.053658507005041223e+01
1.710000000000000000e+02,1.055199960633671630e+01
1.720000000000000000e+02,1.056792846388231233e+01
1.730000000000000000e+02,1.058441301740952944e+01
1.740000000000000000e+02,1.060149842567446044e+01
1.750000000000000000e+02,1.061923123641849820e+01
1.760000000000000000e+02,1.063767285703906929e+01
1.770000000000000000e+02,1.065688541222974450e+01
1.780000000000000000e+02,1.067694714525542921e+01
1.790000000000000000e+02,1.069793839847402950e+01
1.800000000000000000e+02,1.071995997099480746e+01
1.810000000000000000e+02,1.074311943914922374e+01
1.820000000000000000e+02,1.076754532583385071e+01
1.830000000000000000e+02,1.079338232640445838e+01
1.840000000000000000e+02,1.083136009117339604e+01
1.850000000000000000e+02,1.086252710766810914e+01
1.860000000000000000e+02,1.089221166043363453e+01
1.870000000000000000e+02,1.092578080238806670e+01
1.880000000000000000e+02,1.096237362642494340e+01
1.890000000000000000e+02,1.100183277347423960e+01
1.900000000000000000e+02,1.104510423189103463e+01
1.910000000000000000e+02,1.109224060796778843e+01
1.920000000000000000e+02,1.114425348623169043e+01
1.930000000000000000e+02,1.120157186648776815e+01
1.940000000000000000e+02,1.126520966712011251e+01
1.950000000000000000e+02,1.133575247947882758e+01
1.960000000000000000e+02,1.141392734548254317e+01
1.970000000000000000e+02,1.149971015968990251e+01
1.980000000000000000e+02,1.159212903588072585e+01
1.990000000000000000e+02,1.168802088598503630e+01
2.000000000000000000e+02,1.178147904897493348e+01
2.010000000000000000e+02,1.186643751905236854e+01
2.020000000000000000e+02,1.194250981353364693e+01
2.030000000000000000e+02,1.201215881158082155e+01
2.040000000000000000e+02,1.207688074832595326e+01
2.050000000000000000e+02,1.213765224174742485e+01
2.060000000000000000e+02,1.219510893838829801e+01
2.070000000000000000e+02,1.224972330121284791e+01
2.080000000000000000e+02,1.230184733110936257e+01
2.090000000000000000e+02,1.235176204677980927e+01
2.100000000000000000e+02,1.239968980188843695e+01
2.110000000000000000e+02,1.244581508739499576e+01
2.120000000000000000e+02,1.249029274564207626e+01
2.130000000000000000e+02,1.253325238993004120e+01
2.140000000000000000e+02,1.257480540964748705e+01
2.150000000000000000e+02,1.261504594711174931e+01
2.160000000000000000e+02,1.265405286922512929e+01
2.170000000000000000e+02,1.269190273175363615e+01
2.180000000000000000e+02,1.272865602325833834e+01
2.190000000000000000e+02,1.276436771204713949e+01
2.200000000000000000e+02,1.279908962192953403e+01
2.210000000000000000e+02,1.283286447286823950e+01
2.220000000000000000e+02,1.286573176392060880e+01
2.230000000000000000e+02,1.289772684735496000e+01
2.240000000000000000e+02,1.292888646497357463e+01
2.250000000000000000e+02,1.295923801921499141e+01
2.260000000000000000e+02,1.298881210492008087e+01
2.270000000000000000e+02,1.301763569587297198e+01
2.280000000000000000e+02,1.304572936326436938e+01
2.290000000000000000e+02,1.307312024291673325e+01
2.300000000000000000e+02,1.309982814025578968e+01
2.310000000000000000e+02,1.312587398858714138e+01
2.320000000000000000e+02,1.315127774562366803e+01
2.330000000000000000e+02,1.317605782202239517e+01
2.340000000000000000e+02,1.320023011777341893e+01
2.350000000000000000e+02,1.322381444051950083e+01
2.360000000000000000e+02,1.324682517694347617e+01
2.370000000000000000e+02,1.326927990893331000e+01
2.380000000000000000e+02,1.329119088917249947e+01
2.390000000000000000e+02,1.331257557514066647e+01
2.400000000000000000e+02,1.333344654734197832e+01
2.410000000000000000e+02,1.335381724071133114e+01
2.420000000000000000e+02,1.337370056547644559e+01
2.430000000000000000e+02,1.339310983680827682e+01
2.440000000000000000e+02,1.341205675964770094e+01
2.450000000000000000e+02,1.343055262697883201e+01
2.460000000000000000e+02,1.344861059743955778e+01
2.470000000000000000e+02,1.346624038397392020e+01
2.480000000000000000e+02,1.348345274795750726e+01
2.490000000000000000e+02,1.350025788567171148e+01
2.500000000000000000e+02,1.351666774747349464e+01
2.510000000000000000e+02,1.353269110042974077e+01
2.520000000000000000e+02,1.354833752508685052e+01
2.530000000000000000e+02,1.356361626528076947e+01
2.540000000000000000e+02,1.357853668089225607e+01
2.550000000000000000e+02,1.359310736401521069e+01
2.560000000000000000e+02,1.360733735251036691e+01
2.570000000000000000e+02,1.362123461511213307e+01
2.580000000000000000e+02,1.363480650682270223e+01
2.590000000000000000e+02,1.364806260629592494e+01
2.600000000000000000e+02,1.366100967982069569e+01
2.610000000000000000e+02,1.367365528002572184e+01
2.620000000000000000e+02,1.368600661654883943e+01
2.630000000000000000e+02,1.369807037486433110e+01
2.640000000000000000e+02,1.370985403141836301e+01
2.650000000000000000e+02,1.372136435730484827e+01
2.660000000000000000e+02,1.373260730264185270e+01
2.670000000000000000e+02,1.374359048451336207e+01
2.680000000000000000e+02,1.375431822586719299e+01
2.690000000000000000e+02,1.376479887361264964e+01
2.700000000000000000e+02,1.377503687366744423e+01
2.710000000000000000e+02,1.378503828456299374e+01
2.720000000000000000e+02,1.379480892199531539e+01
2.730000000000000000e+02,1.380435423954148888e+01
2.740000000000000000e+02,1.381367902614766585e+01
2.750000000000000000e+02,1.382278925010924375e+01
2.760000000000000000e+02,1.383168917709145518e+01
2.770000000000000000e+02,1.384038486580742777e+01
2.780000000000000000e+02,1.384888000781592687e+01
2.790000000000000000e+02,1.385717984492514887e+01
2.800000000000000000e+02,1.386528872547457780e+01
2.810000000000000000e+02,1.387321144887267899e+01
2.820000000000000000e+02,1.388095271740743364e+01
2.830000000000000000e+02,1.388851531735157607e+01
2.840000000000000000e+02,1.389590546509644753e+01
2.850000000000000000e+02,1.390312546226361334e+01
2.860000000000000000e+02,1.391018025083328880e+01
2.870000000000000000e+02,1.391707341164637945e+01
2.880000000000000000e+02,1.392380898348909213e+01
2.890000000000000000e+02,1.393039037589187146e+01
2.900000000000000000e+02,1.393682067422573567e+01
2.910000000000000000e+02,1.394310390634262475e+01
2.920000000000000000e+02,1.394924377569293661e+01
2.930000000000000000e+02,1.395524288211144359e+01
2.940000000000000000e+02,1.396110560994499750e+01
2.950000000000000000e+02,1.396683374059808713e+01
2.960000000000000000e+02,1.397243132057424830e+01
2.970000000000000000e+02,1.397790081846344989e+01
2.980000000000000000e+02,1.398324576587397594e+01
2.990000000000000000e+02,1.398846871990416929e+01
3.000000000000000000e+02,1.399357288133974464e+01
3.010000000000000000e+02,1.399856024093844553e+01
3.020000000000000000e+02,1.400343409136128514e+01
3.030000000000000000e+02,1.400819669652590527e+01
3.040000000000000000e+02,1.401285096475500325e+01
3.050000000000000000e+02,1.401739919592176697e+01
3.060000000000000000e+02,1.402184385780990539e+01
3.070000000000000000e+02,1.402618687190314617e+01
3.080000000000000000e+02,1.403043145882592313e+01
3.090000000000000000e+02,1.403457910380508089e+01
3.100000000000000000e+02,1.403863294770603787e+01
3.110000000000000000e+02,1.404259428014982625e+01
3.120000000000000000e+02,1.404646533353445470e+01
3.130000000000000000e+02,1.405024850978233353e+01
3.140000000000000000e+02,1.405394602456732400e+01
3.150000000000000000e+02,1.405755884182408089e+01
3.160000000000000000e+02,1.406108999273079796e+01
3.170000000000000000e+02,1.406454054666298248e+01
3.180000000000000000e+02,1.406791328349658876e+01
3.190000000000000000e+02,1.407120896505472096e+01
3.200000000000000000e+02,1.407442994479385234e+01
3.210000000000000000e+02,1.407757762439369564e+01
3.220000000000000000e+02,1.408065405022164462e+01
3.230000000000000000e+02,1.408366025961641910e+01
3.240000000000000000e+02,1.408659864289477071e+01
3.250000000000000000e+02,1.408947028711106952e+01
3.260000000000000000e+02,1.409227668828117963e+01
3.270000000000000000e+02,1.409501939715358176e+01
3.280000000000000000e+02,1.409769996033950434e+01
3.290000000000000000e+02,1.410031986157831163e+01
3.300000000000000000e+02,1.410287981570648164e+01
3.310000000000000000e+02,1.410538212356689769e+01
3.320000000000000000e+02,1.410782755211615758e+01
3.330000000000000000e+02,1.411021763021917508e+01
3.340000000000000000e+02,1.411255376581174303e+01
3.350000000000000000e+02,1.411483677615840548e+01
3.360000000000000000e+02,1.411706776996316925e+01
3.370000000000000000e+02,1.411924855801950507e+01
3.380000000000000000e+02,1.412137965635140269e+01
3.390000000000000000e+02,1.412346245959326296e+01
3.400000000000000000e+02,1.412549841840607456e+01
3.410000000000000000e+02,1.412748804241455858e+01
3.420000000000000000e+02,1.412943266065860293e+01
3.430000000000000000e+02,1.413133313089169896e+01
3.440000000000000000e+02,1.413319048492937213e+01
3.450000000000000000e+02,1.413500628001302495e+01
3.460000000000000000e+02,1.413678043095582737e+01
3.470000000000000000e+02,1.413851455017333869e+01
3.480000000000000000e+02,1.414020960380168113e+01
3.490000000000000000e+02,1.414186597107591048e+01
3.500000000000000000e+02,1.414348525914178722e+01
3.510000000000000000e+02,1.414506766893849488e+01
3.520000000000000000e+02,1.414661410256932506e+01
3.530000000000000000e+02,1.414812587016022505e+01
3.540000000000000000e+02,1.414960311083255640e+01
3.550000000000000000e+02,1.415104713221831645e+01
3.560000000000000000e+02,1.415245812995553187e+01
3.570000000000000000e+02,1.415383775990112625e+01
3.580000000000000000e+02,1.415518539772485163e+01
3.590000000000000000e+02,1.415650357336276599e+01
3.600000000000000000e+02,1.415779119363400440e+01
3.610000000000000000e+02,1.415905043563133781e+01
3.620000000000000000e+02,1.416027985496882913e+01
3.630000000000000000e+02,1.416148302775025236e+01
3.640000000000000000e+02,1.416265757454945273e+01
3.650000000000000000e+02,1.416380730241791142e+01
3.660000000000000000e+02,1.416492907296306214e+01
3.670000000000000000e+02,1.416602715775350951e+01
3.680000000000000000e+02,1.416709876823621528e+01
3.690000000000000000e+02,1.416814811512266203e+01
3.700000000000000000e+02,1.416917136003295496e+01
3.710000000000000000e+02,1.417017411094517421e+01
3.720000000000000000e+02,1.417115153842335573e+01
3.730000000000000000e+02,1.417210953950283248e+01
3.740000000000000000e+02,1.417304293556730777e+01
3.750000000000000000e+02,1.417395878671348619e+01
3.760000000000000000e+02,1.417484993372378099e+01
3.770000000000000000e+02,1.417572500737054675e+01
3.780000000000000000e+02,1.417657615038130992e+01
3.790000000000000000e+02,1.417741257317205417e+01
3.800000000000000000e+02,1.417822513844318344e+01
3.810000000000000000e+02,1.417902445152822288e+01
3.820000000000000000e+02,1.417980021204052754e+01
3.830000000000000000e+02,1.418056447787595431e+01
3.840000000000000000e+02,1.418130526206280528e+01
3.850000000000000000e+02,1.418203566725057918e+01
3.860000000000000000e+02,1.418274289365425389e+01
3.870000000000000000e+02,1.418344155383894645e+01
3.880000000000000000e+02,1.418411628972498306e+01
3.890000000000000000e+02,1.418478427087524985e+01
3.900000000000000000e+02,1.418542804718968497e+01
3.910000000000000000e+02,1.418606711162349043e+01
3.920000000000000000e+02,1.418668128286475749e+01
3.930000000000000000e+02,1.418729290013392408e+01
3.940000000000000000e+02,1.418787858648943967e+01
3.950000000000000000e+02,1.418846387560261846e+01
3.960000000000000000e+02,1.418902248655165899e+01
3.970000000000000000e+02,1.418958244886486675e+01
3.980000000000000000e+02,1.419011510172371793e+01
