# Time [s], Convective Heat Transfer Coefficient [W/m2K]
1.000000000000000000e+00,0.000000000000000000e+00
2.000000000000000000e+00,0.000000000000000000e+00
3.000000000000000000e+00,0.000000000000000000e+00
4.000000000000000000e+00,1.915079995362458862e-02
5.000000000000000000e+00,3.274740728807139234e-02
6.000000000000000000e+00,5.849721719600613906e-02
7.000000000000000000e+00,9.575399979216277224e-02
8.000000000000000000e+00,1.459345124455221354e-01
9.000000000000000000e+00,2.099175963313038296e-01
1.000000000000000000e+01,2.876727991852881527e-01
1.100000000000000000e+01,3.786331695115108809e-01
1.200000000000000000e+01,4.817794227035602783e-01
1.300000000000000000e+01,5.957269228705959208e-01
1.400000000000000000e+01,7.189807956296447866e-01
1.500000000000000000e+01,8.500383814659472348e-01
1.600000000000000000e+01,9.874636615626529723e-01
1.700000000000000000e+01,1.129936623748179159e+00
1.800000000000000000e+01,1.276277034504653018e+00
1.900000000000000000e+01,1.425443971884324146e+00
2.000000000000000000e+01,1.576523277395839306e+00
2.100000000000000000e+01,1.728720226518470016e+00
2.200000000000000000e+01,1.881345597826185712e+00
2.300000000000000000e+01,2.033811090925173204e+00
2.400000000000000000e+01,2.185616733278248791e+00
2.500000000000000000e+01,2.336337119858120204e+00
2.600000000000000000e+01,2.485630570031206688e+00
2.700000000000000000e+01,2.633219167077750722e+00
2.800000000000000000e+01,2.778881778272382252e+00
2.900000000000000000e+01,2.922444125679086291e+00
3.000000000000000000e+01,3.063786208198965966e+00
3.100000000000000000e+01,3.202815058300938489e+00
3.200000000000000000e+01,3.339472920875917072e+00
3.300000000000000000e+01,3.473728289260283209e+00
3.400000000000000000e+01,3.605568513193067481e+00
3.500000000000000000e+01,3.735731178312336809e+00
3.600000000000000000e+01,3.863064833536069553e+00
3.700000000000000000e+01,3.987922683692039172e+00
3.800000000000000000e+01,4.110404164995087761e+00
3.900000000000000000e+01,4.230566095178564190e+00
4.000000000000000000e+01,4.348468402595451643e+00
4.100000000000000000e+01,4.464164582713348928e+00
4.200000000000000000e+01,4.577716095243252070e+00
4.300000000000000000e+01,4.689187110002769998e+00
4.400000000000000000e+01,4.798639954603262758e+00
4.500000000000000000e+01,4.906135745933891457e+00
4.600000000000000000e+01,5.011733253160189250e+00
4.700000000000000000e+01,5.115487331635499402e+00
4.800000000000000000e+01,5.217446998765191246e+00
4.900000000000000000e+01,5.317665455150812015e+00
5.000000000000000000e+01,5.416190342292655835e+00
5.100000000000000000e+01,5.513070007342741441e+00
5.200000000000000000e+01,5.608346549123177205e+00
5.300000000000000000e+01,5.702064182525641733e+00
5.400000000000000000e+01,5.794266696683568085e+00
5.500000000000000000e+01,5.884988875744983972e+00
5.600000000000000000e+01,5.974271372937691282e+00
5.700000000000000000e+01,6.062151590593446215e+00
5.800000000000000000e+01,6.148662328992326565e+00
5.900000000000000000e+01,6.233997603522754005e+00
6.000000000000000000e+01,6.317932523025690195e+00
6.100000000000000000e+01,6.400568505732030289e+00
6.200000000000000000e+01,6.481951473011674736e+00
6.300000000000000000e+01,6.562115580755431665e+00
6.400000000000000000e+01,6.641093790181073153e+00
6.500000000000000000e+01,6.718916367974535397e+00
6.600000000000000000e+01,6.795614333516983407e+00
6.700000000000000000e+01,6.871208422896581069e+00
6.800000000000000000e+01,6.945724707116122332e+00
6.900000000000000000e+01,7.019180691134992323e+00
7.000000000000000000e+01,7.091598256348741636e+00
7.100000000000000000e+01,7.162998173020755921e+00
7.200000000000000000e+01,7.233399285882335938e+00
7.300000000000000000e+01,7.302821086204783541e+00
7.400000000000000000e+01,7.371282336344585850e+00
7.500000000000000000e+01,7.438804500615349369e+00
7.600000000000000000e+01,7.505403592161160375e+00
7.700000000000000000e+01,7.571097982597864373e+00
7.800000000000000000e+01,7.635901963461770414e+00
7.900000000000000000e+01,7.699830020897616478e+00
8.000000000000000000e+01,7.762897195166740261e+00
8.100000000000000000e+01,7.825115010649022373e+00
8.200000000000000000e+01,7.886497949850910238e+00
8.300000000000000000e+01,7.947059510638619706e+00
8.400000000000000000e+01,8.006809715773355762e+00
8.500000000000000000e+01,8.065760937006199782e+00
8.600000000000000000e+01,8.123924348524527161e+00
8.700000000000000000e+01,8.181344457842982365e+00
8.800000000000000000e+01,8.237981591201180009e+00
8.900000000000000000e+01,8.293861539242753267e+00
9.000000000000000000e+01,8.349001169900171604e+00
9.100000000000000000e+01,8.403419953983803481e+00
9.200000000000000000e+01,8.457134565009921445e+00
9.300000000000000000e+01,8.510152592272888228e+00
9.400000000000000000e+01,8.562475172979429061e+00
9.500000000000000000e+01,8.614101160001448321e+00
9.600000000000000000e+01,8.665030052971932406e+00
9.700000000000000000e+01,8.715265803108433573e+00
9.800000000000000000e+01,8.764811523690388739e+00
9.900000000000000000e+01,8.813669078574118743e+00
1.000000000000000000e+02,8.861841379681532516e+00
1.010000000000000000e+02,8.909331291951618326e+00
1.020000000000000000e+02,8.956140170689824487e+00
1.030000000000000000e+02,9.002269088827677734e+00
1.040000000000000000e+02,9.047717700430343513e+00
1.050000000000000000e+02,9.092487135566500456e+00
1.060000000000000000e+02,9.136575433977386140e+00
1.070000000000000000e+02,9.179980879509193059e+00
1.080000000000000000e+02,9.222698814281910629e+00
1.090000000000000000e+02,9.264723399531497705e+00
1.100000000000000000e+02,9.306049683571510300e+00
1.110000000000000000e+02,9.346668994181994705e+00
1.120000000000000000e+02,9.386572007078870072e+00
1.130000000000000000e+02,9.425745857609884482e+00
1.140000000000000000e+02,9.464195046297382063e+00
1.150000000000000000e+02,9.501898461336608648e+00
1.160000000000000000e+02,9.538881641227311192e+00
1.170000000000000000e+02,9.575147948040006796e+00
1.180000000000000000e+02,9.610660273210624993e+00
1.190000000000000000e+02,9.645355451665833968e+00
1.200000000000000000e+02,9.679176353078645434e+00
1.210000000000000000e+02,9.712084979810043706e+00
1.220000000000000000e+02,9.744052000912445166e+00
1.230000000000000000e+02,9.775052852880596888e+00
1.240000000000000000e+02,9.805063516220593911e+00
1.250000000000000000e+02,9.834058751985571334e+00
1.260000000000000000e+02,9.862016054832610124e+00
1.270000000000000000e+02,9.888915761025847573e+00
1.280000000000000000e+02,9.914741159579914864e+00
1.290000000000000000e+02,9.939479555399124422e+00
1.300000000000000000e+02,9.963125904841511726e+00
1.310000000000000000e+02,9.985681316861461099e+00
1.320000000000000000e+02,1.000715535707335313e+01
1.330000000000000000e+02,1.002756633589314994e+01
1.340000000000000000e+02,1.004694231202520349e+01
1.350000000000000000e+02,1.006531944265147871e+01
1.360000000000000000e+02,1.008327476390444843e+01
1.370000000000000000e+02,1.010027003712767524e+01
1.380000000000000000e+02,1.011645573864867309e+01
1.390000000000000000e+02,1.013179471194674264e+01
1.400000000000000000e+02,1.014627465111462890e+01
1.410000000000000000e+02,1.015999468456952037e+01
1.420000000000000000e+02,1.017309516344228548e+01
1.430000000000000000e+02,1.018569263319188778e+01
1.440000000000000000e+02,1.019787992625490425e+01
1.450000000000000000e+02,1.020973776506769504e+01
1.460000000000000000e+02,1.022134022855698632e+01
1.470000000000000000e+02,1.023275185081987537e+01
1.480000000000000000e+02,1.024403255234898502e+01
1.490000000000000000e+02,1.025523648430055346e+01
1.500000000000000000e+02,1.026641398967254837e+01
1.510000000000000000e+02,1.027761020803630210e+01
1.520000000000000000e+02,1.028886468908654805e+01
1.530000000000000000e+02,1.030021586299779202e+01
1.540000000000000000e+02,1.031169730288310760e+01
1.550000000000000000e+02,1.032334161446970988e+01
1.560000000000000000e+02,1.033811367384506852e+01
1.570000000000000000e+02,1.035149026263938055e+01
1.580000000000000000e+02,1.036416121334288221e+01
1.590000000000000000e+02,1.037661655011726403e+01
1.600000000000000000e+02,1.038921580306928760e+01
1.610000000000000000e+02,1.040222132248725018e+01
1.620000000000000000e+02,1.041565258179136855e+01
1.630000000000000000e+02,1.042951357118133870e+01
1.640000000000000000e+02,1.044382433034760815e+01
1.650000000000000000e+02,1.045859203677123617e+01
1.660000000000000000e+02,1.047384147888488570e+01
1.670000000000000000e+02,1.048959148571836053e+01
1.680000000000000000e+02,1.050587726615810880e+01
1.690000000000000000e+02,1.052273648917788051e+01
1.700000000000000000e+02,1.054021162672059653e+01
1.710000000000000000e+02,1.055835003570764563e+01
1.720000000000000000e+02,1.057720883827547098e+01
1.730000000000000000e+02,1.059684779469828086e+01
1.740000000000000000e+02,1.061733591571758062e+01
1.750000000000000000e+02,1.063874642101964874e+01
1.760000000000000000e+02,1.066116795973401210e+01
1.770000000000000000e+02,1.069432971345780992e+01
1.780000000000000000e+02,1.072014118501216196e+01
1.790000000000000000e+02,1.074495402108521702e+01
1.800000000000000000e+02,1.077193334663067681e+01
1.810000000000000000e+02,1.080128689194891400e+01
1.820000000000000000e+02,1.083236637880979991e+01
1.830000000000000000e+02,1.086566455497575312e+01
1.840000000000000000e+02,1.090119578580063120e+01
1.850000000000000000e+02,1.093928188085088848e+01
1.860000000000000000e+02,1.098023984274197140e+01
1.870000000000000000e+02,1.102438929834645975e+01
1.880000000000000000e+02,1.107220670557549447e+01
1.890000000000000000e+02,1.112412968100405664e+01
1.900000000000000000e+02,1.118080168747292369e+01
1.910000000000000000e+02,1.124281788072337029e+01
1.920000000000000000e+02,1.131103557472022025e+01
1.930000000000000000e+02,1.138623700630496849e+01
1.940000000000000000e+02,1.146924276266036280e+01
1.950000000000000000e+02,1.156022913653323769e+01
1.960000000000000000e+02,1.165802927835081171e+01
1.970000000000000000e+02,1.175877296224951429e+01
1.980000000000000000e+02,1.185639722534992480e+01
1.990000000000000000e+02,1.194603928664958126e+01
2.000000000000000000e+02,1.202696277270857905e+01
2.010000000000000000e+02,1.210062155043873133e+01
2.020000000000000000e+02,1.216852723552007554e+01
2.030000000000000000e+02,1.223180985238789376e+01
2.040000000000000000e+02,1.229125242156879061e+01
2.050000000000000000e+02,1.234742909988231574e+01
2.060000000000000000e+02,1.240077570521869887e+01
2.070000000000000000e+02,1.245163438288345326e+01
2.080000000000000000e+02,1.250027051460223859e+01
2.090000000000000000e+02,1.254690736980388088e+01
2.100000000000000000e+02,1.259171551064456196e+01
2.110000000000000000e+02,1.263485233712141564e+01
2.120000000000000000e+02,1.267644863738684435e+01
2.130000000000000000e+02,1.271660397115800123e+01
2.140000000000000000e+02,1.275542305750071570e+01
2.150000000000000000e+02,1.279297675111953758e+01
2.160000000000000000e+02,1.282934542502600905e+01
2.170000000000000000e+02,1.286458352681467865e+01
2.180000000000000000e+02,1.289875837862043184e+01
2.190000000000000000e+02,1.293191450509250728e+01
2.200000000000000000e+02,1.296409720449770653e+01
2.210000000000000000e+02,1.299534717968344566e+01
2.220000000000000000e+02,1.302570732347000160e+01
2.230000000000000000e+02,1.305520932356297159e+01
2.240000000000000000e+02,1.308389043578103639e+01
2.250000000000000000e+02,1.311177733002197421e+01
2.260000000000000000e+02,1.313889957000354691e+01
2.270000000000000000e+02,1.316528215226713883e+01
2.280000000000000000e+02,1.319095214901820512e+01
2.290000000000000000e+02,1.321593272699957744e+01
2.300000000000000000e+02,1.324024464570840642e+01
2.310000000000000000e+02,1.326391244172391026e+01
2.320000000000000000e+02,1.328695456713924905e+01
2.330000000000000000e+02,1.330939560539222555e+01
2.340000000000000000e+02,1.333124583234701710e+01
2.350000000000000000e+02,1.335252976138351144e+01
2.360000000000000000e+02,1.337326151583146583e+01
2.370000000000000000e+02,1.339345877259871465e+01
2.380000000000000000e+02,1.341313627835919675e+01
2.390000000000000000e+02,1.343231310504463138e+01
2.400000000000000000e+02,1.345099655404574079e+01
2.410000000000000000e+02,1.346920929888888985e+01
2.420000000000000000e+02,1.348695733173744848e+01
2.430000000000000000e+02,1.350425920492930132e+01
2.440000000000000000e+02,1.352112250675622107e+01
2.450000000000000000e+02,1.353756527563066925e+01
2.460000000000000000e+02,1.355359370487270709e+01
2.470000000000000000e+02,1.356922346016382086e+01
2.480000000000000000e+02,1.358446416195466000e+01
2.490000000000000000e+02,1.359932616905064329e+01
2.500000000000000000e+02,1.361381962814971303e+01
2.510000000000000000e+02,1.362795372476109179e+01
2.520000000000000000e+02,1.364174110096465498e+01
2.530000000000000000e+02,1.365518759269523663e+01
2.540000000000000000e+02,1.366830514581089240e+01
2.550000000000000000e+02,1.368110175488627966e+01
2.560000000000000000e+02,1.369358562462106299e+01
2.570000000000000000e+02,1.370576498436822988e+01
2.580000000000000000e+02,1.371764709594156884e+01
2.590000000000000000e+02,1.372924099762776784e+01
2.600000000000000000e+02,1.374055278029121574e+01
2.610000000000000000e+02,1.375159205226303527e+01
2.620000000000000000e+02,1.376236313775947018e+01
2.630000000000000000e+02,1.377287641373848359e+01
2.640000000000000000e+02,1.378313440212907359e+01
2.650000000000000000e+02,1.379314622830089654e+01
2.660000000000000000e+02,1.380291774437692531e+01
2.670000000000000000e+02,1.381245523628451721e+01
2.680000000000000000e+02,1.382176536142137557e+01
2.690000000000000000e+02,1.383085257800681589e+01
2.700000000000000000e+02,1.383972313373099006e+01
2.710000000000000000e+02,1.384838121038902337e+01
2.720000000000000000e+02,1.385683454707947249e+01
2.730000000000000000e+02,1.386508583436290465e+01
2.740000000000000000e+02,1.387314205145430712e+01
2.750000000000000000e+02,1.388100794207557165e+01
2.760000000000000000e+02,1.388868572521828604e+01
2.770000000000000000e+02,1.389618256627203330e+01
2.780000000000000000e+02,1.390350243696474841e+01
2.790000000000000000e+02,1.391064958169817878e+01
2.800000000000000000e+02,1.391762815451966517e+01
2.810000000000000000e+02,1.392444282429383229e+01
2.820000000000000000e+02,1.393109726526298964e+01
2.830000000000000000e+02,1.393759566923148263e+01
2.840000000000000000e+02,1.394394069700448036e+01
2.850000000000000000e+02,1.395013709521001743e+01
2.860000000000000000e+02,1.395618898329587942e+01
2.870000000000000000e+02,1.396209853605404483e+01
2.880000000000000000e+02,1.396787055243803621e+01
2.890000000000000000e+02,1.397350716967985029e+01
2.900000000000000000e+02,1.397901200805031685e+01
2.910000000000000000e+02,1.398438830994818538e+01
2.920000000000000000e+02,1.398964037747970046e+01
2.930000000000000000e+02,1.399476878759758591e+01
2.940000000000000000e+02,1.399977864841645570e+01
2.950000000000000000e+02,1.400467164540399878e+01
2.960000000000000000e+02,1.400945130256172888e+01
2.970000000000000000e+02,1.401411928109849647e+01
2.980000000000000000e+02,1.401867979388508267e+01
2.990000000000000000e+02,1.402313412105047874e+01
3.000000000000000000e+02,1.402748549794347888e+01
3.010000000000000000e+02,1.403173577992782306e+01
3.020000000000000000e+02,1.403588806138078127e+01
3.030000000000000000e+02,1.403994370310567419e+01
3.040000000000000000e+02,1.404390607679794201e+01
3.050000000000000000e+02,1.404777646666865465e+01
3.060000000000000000e+02,1.405155816630491827e+01
3.070000000000000000e+02,1.405525143679157551e+01
3.080000000000000000e+02,1.405886103654254882e+01
3.090000000000000000e+02,1.406238573238979050e+01
3.100000000000000000e+02,1.406583097651916248e+01
3.110000000000000000e+02,1.406919481536042760e+01
3.120000000000000000e+02,1.407248339456136321e+01
3.130000000000000000e+02,1.407569475128669190e+01
3.140000000000000000e+02,1.407883359735042106e+01
3.150000000000000000e+02,1.408189861261744014e+01
3.160000000000000000e+02,1.408489532179441817e+01
3.170000000000000000e+02,1.408782056773434377e+01
3.180000000000000000e+02,1.409068163209825642e+01
3.190000000000000000e+02,1.409347429054774103e+01
3.200000000000000000e+02,1.409620539905634118e+01
3.210000000000000000e+02,1.409887143665298481e+01
3.220000000000000000e+02,1.410147865809631895e+01
3.230000000000000000e+02,1.410402353876657067e+01
3.240000000000000000e+02,1.410651320509645501e+01
3.250000000000000000e+02,1.410894248165499931e+01
3.260000000000000000e+02,1.411131995464065092e+01
3.270000000000000000e+02,1.411363921192711324e+01
3.280000000000000000e+02,1.411590929918745907e+01
3.290000000000000000e+02,1.411812309874649429e+01
3.300000000000000000e+02,1.412029111406371662e+01
3.310000000000000000e+02,1.412240464182858801e+01
3.320000000000000000e+02,1.412447499676998852e+01
3.330000000000000000e+02,1.412649277252823765e+01
3.340000000000000000e+02,1.412847027055005888e+01
3.350000000000000000e+02,1.413039638536930553e+01
3.360000000000000000e+02,1.413228546020667231e+01
3.370000000000000000e+02,1.413412363733305455e+01
3.380000000000000000e+02,1.413592812080458394e+01
3.390000000000000000e+02,1.413768312328684473e+01
3.400000000000000000e+02,1.413940695004308523e+01
3.410000000000000000e+02,1.414108176949121720e+01
3.420000000000000000e+02,1.414272868551189788e+01
3.430000000000000000e+02,1.414432776498969346e+01
3.440000000000000000e+02,1.414590144546627215e+01
3.450000000000000000e+02,1.414742693420785358e+01
3.460000000000000000e+02,1.414893110193167836e+01
3.470000000000000000e+02,1.415038706978052652e+01
3.480000000000000000e+02,1.415182456014310297e+01
3.490000000000000000e+02,1.415321395596987486e+01
3.500000000000000000e+02,1.415458812171507574e+01
3.510000000000000000e+02,1.415591353537157104e+01
3.520000000000000000e+02,1.415722760385912338e+01
3.530000000000000000e+02,1.415849155930940562e+01
3.540000000000000000e+02,1.415974857490095040e+01
3.550000000000000000e+02,1.416095364757500441e+01
3.560000000000000000e+02,1.416215600550019005e+01
3.570000000000000000e+02,1.416330476440271546e+01
3.580000000000000000e+02,1.416445578751285872e+01
3.590000000000000000e+02,1.416555044547082076e+01
3.600000000000000000e+02,1.416665234189814981e+01
3.610000000000000000e+02,1.416769533981114115e+01
3.620000000000000000e+02,1.416875066262712579e+01
3.630000000000000000e+02,1.416974356170069171e+01
3.640000000000000000e+02,1.417075480085407868e+01
3.650000000000000000e+02,1.417169974119172338e+01
3.660000000000000000e+02,1.417266979004073590e+01
3.670000000000000000e+02,1.417356791683103090e+01
3.680000000000000000e+02,1.417449896510556151e+01
3.690000000000000000e+02,1.417535165349882398e+01
3.700000000000000000e+02,1.417624658632601786e+01
3.710000000000000000e+02,1.417705532479157426e+01
3.720000000000000000e+02,1.417791591688418684e+01
3.730000000000000000e+02,1.417868254032943476e+01
3.740000000000000000e+02,1.417951091290043664e+01
3.750000000000000000e+02,1.418023579777529086e+01
3.760000000000000000e+02,1.418103523347824968e+01
3.770000000000000000e+02,1.418171916175284686e+01
3.780000000000000000e+02,1.418249177583068210e+01
3.790000000000000000e+02,1.418313570207890706e+01
3.800000000000000000e+02,1.418388407284771091e+01
3.810000000000000000e+02,1.418448778600536819e+01
3.820000000000000000e+02,1.418521425663827351e+01
3.830000000000000000e+02,1.418577847523273405e+01
3.840000000000000000e+02,1.418648602649808410e+01
3.850000000000000000e+02,1.418701036230825352e+01
3.860000000000000000e+02,1.418770220524927694e+01
3.870000000000000000e+02,1.418818632723244555e+01
3.880000000000000000e+02,1.418886491468895095e+01
3.890000000000000000e+02,1.418930814204224333e+01
3.900000000000000000e+02,1.418997702975656416e+01
3.910000000000000000e+02,1.419037833211820576e+01
3.920000000000000000e+02,1.419104078306753713e+01
3.930000000000000000e+02,1.419139907141015122e+01
3.940000000000000000e+02,1.419205892795406321e+01
3.950000000000000000e+02,1.419237212474028453e+01
3.960000000000000000e+02,1.419303363414483066e+01
3.970000000000000000e+02,1.419329931308946513e+01
3.980000000000000000e+02,1.419396747607868825e+01
