# Time [s], Thickness [m]
1.000000000000000000e+00,8.000000400000000303e-03
2.000000000000000000e+00,8.000000400000000303e-03
3.000000000000000000e+00,8.000000400000000303e-03
4.000000000000000000e+00,8.000000400000000303e-03
5.000000000000000000e+00,8.000000400000000303e-03
6.000000000000000000e+00,8.000000400000000303e-03
7.000000000000000000e+00,8.000000400000000303e-03
8.000000000000000000e+00,8.000000400000000303e-03
9.000000000000000000e+00,7.999999400000000829e-03
1.000000000000000000e+01,7.999999400000000829e-03
1.100000000000000000e+01,7.999999400000000829e-03
1.200000000000000000e+01,7.999997599999999348e-03
1.300000000000000000e+01,7.999993900000000255e-03
1.400000000000000000e+01,7.999986400000000733e-03
1.500000000000000000e+01,7.999971499999999555e-03
1.600000000000000000e+01,7.999943600000000016e-03
1.700000000000000000e+01,7.999894199999999650e-03
1.800000000000000000e+01,7.999809499999999823e-03
1.900000000000000000e+01,7.999670699999999329e-03
2.000000000000000000e+01,7.999450899999999837e-03
2.100000000000000000e+01,7.999114700000000550e-03
2.200000000000000000e+01,7.998619199999999416e-03
2.300000000000000000e+01,7.997911400000000046e-03
2.400000000000000000e+01,7.996932599999999336e-03
2.500000000000000000e+01,7.995620400000000294e-03
2.600000000000000000e+01,7.993913300000000596e-03
2.700000000000000000e+01,7.991755399999999829e-03
2.800000000000000000e+01,7.989107599999999837e-03
2.900000000000000000e+01,7.985945799999999775e-03
3.000000000000000000e+01,7.982253999999999391e-03
3.100000000000000000e+01,7.978050000000000419e-03
3.200000000000000000e+01,7.973355200000000614e-03
3.300000000000000000e+01,7.968179900000000454e-03
3.400000000000000000e+01,7.962578899999999543e-03
3.500000000000000000e+01,7.956593300000000188e-03
3.600000000000000000e+01,7.949350399999999262e-03
3.700000000000000000e+01,7.942734300000000441e-03
3.800000000000000000e+01,7.935664599999999597e-03
3.900000000000000000e+01,7.928371400000000166e-03
4.000000000000000000e+01,7.920823999999999920e-03
4.100000000000000000e+01,7.913087500000000676e-03
4.200000000000000000e+01,7.905105100000000412e-03
4.300000000000000000e+01,7.896976499999999732e-03
4.400000000000000000e+01,7.888715699999999942e-03
4.500000000000000000e+01,7.880268600000000373e-03
4.600000000000000000e+01,7.871730299999999195e-03
4.700000000000000000e+01,7.863109899999999944e-03
4.800000000000000000e+01,7.854337799999999703e-03
4.900000000000000000e+01,7.845506999999999828e-03
5.000000000000000000e+01,7.836622200000000621e-03
5.100000000000000000e+01,7.827605099999999233e-03
5.200000000000000000e+01,7.818538700000000549e-03
5.300000000000000000e+01,7.809431300000000027e-03
5.400000000000000000e+01,7.800199600000000053e-03
5.500000000000000000e+01,7.790915699999999625e-03
5.600000000000000000e+01,7.781593600000000048e-03
5.700000000000000000e+01,7.772155600000000414e-03
5.800000000000000000e+01,7.762662099999999635e-03
5.900000000000000000e+01,7.753134699999999872e-03
6.000000000000000000e+01,7.743507600000000372e-03
6.100000000000000000e+01,7.733828400000000020e-03
6.200000000000000000e+01,7.724127299999999571e-03
6.300000000000000000e+01,7.714349799999999958e-03
6.400000000000000000e+01,7.704535000000000203e-03
6.500000000000000000e+01,7.694711400000000048e-03
6.600000000000000000e+01,7.684838999999999733e-03
6.700000000000000000e+01,7.674944099999999984e-03
6.800000000000000000e+01,7.665050700000000314e-03
6.900000000000000000e+01,7.655129299999999769e-03
7.000000000000000000e+01,7.645193500000000385e-03
7.100000000000000000e+01,7.635261899999999831e-03
7.200000000000000000e+01,7.625311600000000273e-03
7.300000000000000000e+01,7.615347399999999878e-03
7.400000000000000000e+01,7.605381300000000136e-03
7.500000000000000000e+01,7.595397999999999733e-03
7.600000000000000000e+01,7.585398900000000014e-03
7.700000000000000000e+01,7.575390900000000295e-03
7.800000000000000000e+01,7.565367499999999662e-03
7.900000000000000000e+01,7.555326900000000102e-03
8.000000000000000000e+01,7.545277500000000144e-03
8.100000000000000000e+01,7.535216899999999836e-03
8.200000000000000000e+01,7.523293099999999942e-03
8.300000000000000000e+01,7.511894699999999668e-03
8.400000000000000000e+01,7.501343300000000262e-03
8.500000000000000000e+01,7.491015400000000310e-03
8.600000000000000000e+01,7.480858800000000225e-03
8.700000000000000000e+01,7.470767900000000426e-03
8.800000000000000000e+01,7.460701699999999943e-03
8.900000000000000000e+01,7.450642500000000112e-03
9.000000000000000000e+01,7.440571699999999795e-03
9.100000000000000000e+01,7.430478499999999646e-03
9.200000000000000000e+01,7.420360099999999577e-03
9.300000000000000000e+01,7.410213799999999969e-03
9.400000000000000000e+01,7.400037299999999603e-03
9.500000000000000000e+01,7.389833699999999971e-03
9.600000000000000000e+01,7.379605400000000155e-03
9.700000000000000000e+01,7.369356700000000322e-03
9.800000000000000000e+01,7.359088899999999614e-03
9.900000000000000000e+01,7.348806099999999862e-03
1.000000000000000000e+02,7.338510799999999751e-03
1.010000000000000000e+02,7.328206700000000108e-03
1.020000000000000000e+02,7.317894600000000339e-03
1.030000000000000000e+02,7.307575499999999918e-03
1.040000000000000000e+02,7.297250400000000053e-03
1.050000000000000000e+02,7.286917900000000267e-03
1.060000000000000000e+02,7.276577900000000092e-03
1.070000000000000000e+02,7.266227200000000171e-03
1.080000000000000000e+02,7.255865700000000036e-03
1.090000000000000000e+02,7.245489400000000059e-03
1.100000000000000000e+02,7.235097200000000298e-03
1.110000000000000000e+02,7.224686900000000002e-03
1.120000000000000000e+02,7.214256100000000088e-03
1.130000000000000000e+02,7.203803400000000079e-03
1.140000000000000000e+02,7.193327900000000101e-03
1.150000000000000000e+02,7.182829100000000418e-03
1.160000000000000000e+02,7.172305599999999684e-03
1.170000000000000000e+02,7.161757900000000239e-03
1.180000000000000000e+02,7.151184599999999870e-03
1.190000000000000000e+02,7.140587999999999796e-03
1.200000000000000000e+02,7.129965799999999666e-03
1.210000000000000000e+02,7.119319399999999957e-03
1.220000000000000000e+02,7.108205499999999989e-03
1.230000000000000000e+02,7.097262899999999888e-03
1.240000000000000000e+02,7.086436300000000313e-03
1.250000000000000000e+02,7.075665499999999816e-03
1.260000000000000000e+02,7.064921299999999717e-03
1.270000000000000000e+02,7.054178999999999831e-03
1.280000000000000000e+02,7.043424500000000123e-03
1.290000000000000000e+02,7.032646800000000309e-03
1.300000000000000000e+02,7.021840700000000351e-03
1.310000000000000000e+02,7.011001499999999949e-03
1.320000000000000000e+02,7.000125900000000144e-03
1.330000000000000000e+02,6.989213200000000265e-03
1.340000000000000000e+02,6.978262199999999901e-03
1.350000000000000000e+02,6.967272600000000253e-03
1.360000000000000000e+02,6.956244399999999585e-03
1.370000000000000000e+02,6.945176100000000421e-03
1.380000000000000000e+02,6.934067200000000424e-03
1.390000000000000000e+02,6.922917399999999923e-03
1.400000000000000000e+02,6.911725700000000312e-03
1.410000000000000000e+02,6.900488899999999634e-03
1.420000000000000000e+02,6.889205899999999681e-03
1.430000000000000000e+02,6.877875000000000308e-03
1.440000000000000000e+02,6.866495099999999838e-03
1.450000000000000000e+02,6.855064099999999723e-03
1.460000000000000000e+02,6.843580400000000286e-03
1.470000000000000000e+02,6.832042200000000044e-03
1.480000000000000000e+02,6.820447700000000120e-03
1.490000000000000000e+02,6.808796399999999908e-03
1.500000000000000000e+02,6.797086899999999800e-03
1.510000000000000000e+02,6.785317800000000184e-03
1.520000000000000000e+02,6.773487199999999979e-03
1.530000000000000000e+02,6.761595599999999789e-03
1.540000000000000000e+02,6.749641600000000005e-03
1.550000000000000000e+02,6.737624299999999886e-03
1.560000000000000000e+02,6.725543199999999694e-03
1.570000000000000000e+02,6.713397799999999693e-03
1.580000000000000000e+02,6.701187200000000010e-03
1.590000000000000000e+02,6.688556200000000083e-03
1.600000000000000000e+02,6.675984200000000326e-03
1.610000000000000000e+02,6.663433300000000392e-03
1.620000000000000000e+02,6.650866000000000069e-03
1.630000000000000000e+02,6.638268000000000120e-03
1.640000000000000000e+02,6.625625799999999843e-03
1.650000000000000000e+02,6.612931399999999980e-03
1.660000000000000000e+02,6.600177799999999879e-03
1.670000000000000000e+02,6.587361499999999648e-03
1.680000000000000000e+02,6.574477999999999919e-03
1.690000000000000000e+02,6.561525200000000412e-03
1.700000000000000000e+02,6.548498800000000092e-03
1.710000000000000000e+02,6.535396899999999613e-03
1.720000000000000000e+02,6.522218199999999834e-03
1.730000000000000000e+02,6.508960400000000403e-03
1.740000000000000000e+02,6.495622900000000248e-03
1.750000000000000000e+02,6.482203500000000354e-03
1.760000000000000000e+02,6.468702599999999990e-03
1.770000000000000000e+02,6.455119700000000287e-03
1.780000000000000000e+02,6.441453500000000366e-03
1.790000000000000000e+02,6.427705300000000239e-03
1.800000000000000000e+02,6.413875599999999642e-03
1.810000000000000000e+02,6.399966299999999657e-03
1.820000000000000000e+02,6.385978799999999893e-03
1.830000000000000000e+02,6.371914900000000097e-03
1.840000000000000000e+02,6.357777400000000356e-03
1.850000000000000000e+02,6.343568699999999755e-03
1.860000000000000000e+02,6.329292000000000251e-03
1.870000000000000000e+02,6.314951499999999808e-03
1.880000000000000000e+02,6.300549499999999643e-03
1.890000000000000000e+02,6.286089800000000186e-03
1.900000000000000000e+02,6.271576499999999797e-03
1.910000000000000000e+02,6.256721399999999947e-03
1.920000000000000000e+02,6.241903600000000239e-03
1.930000000000000000e+02,6.227103500000000062e-03
1.940000000000000000e+02,6.212306199999999973e-03
1.950000000000000000e+02,6.197505199999999922e-03
1.960000000000000000e+02,6.182697600000000224e-03
1.970000000000000000e+02,6.167884000000000214e-03
1.980000000000000000e+02,6.153063400000000419e-03
1.990000000000000000e+02,6.138236699999999844e-03
2.000000000000000000e+02,6.123406300000000177e-03
2.010000000000000000e+02,6.108574099999999896e-03
2.020000000000000000e+02,6.093741899999999614e-03
2.030000000000000000e+02,6.078911499999999947e-03
2.040000000000000000e+02,6.064084800000000240e-03
2.050000000000000000e+02,6.049264700000000182e-03
2.060000000000000000e+02,6.034454300000000396e-03
2.070000000000000000e+02,6.019654200000000219e-03
2.080000000000000000e+02,6.004867599999999875e-03
2.090000000000000000e+02,5.990096399999999578e-03
2.100000000000000000e+02,5.975342800000000079e-03
2.110000000000000000e+02,5.960609300000000062e-03
2.120000000000000000e+02,5.945898100000000276e-03
2.130000000000000000e+02,5.931210699999999933e-03
2.140000000000000000e+02,5.916549800000000386e-03
2.150000000000000000e+02,5.901916400000000243e-03
2.160000000000000000e+02,5.887313299999999590e-03
2.170000000000000000e+02,5.872741299999999567e-03
2.180000000000000000e+02,5.858202899999999727e-03
2.190000000000000000e+02,5.843465699999999749e-03
2.200000000000000000e+02,5.828819199999999909e-03
2.210000000000000000e+02,5.814251500000000052e-03
2.220000000000000000e+02,5.799750799999999623e-03
2.230000000000000000e+02,5.785313000000000261e-03
2.240000000000000000e+02,5.770932900000000192e-03
2.250000000000000000e+02,5.756608199999999932e-03
2.260000000000000000e+02,5.742337099999999736e-03
2.270000000000000000e+02,5.728118100000000393e-03
2.280000000000000000e+02,5.713950800000000031e-03
2.290000000000000000e+02,5.699834299999999646e-03
2.300000000000000000e+02,5.685767599999999762e-03
2.310000000000000000e+02,5.671751200000000118e-03
2.320000000000000000e+02,5.657784199999999972e-03
2.330000000000000000e+02,5.643867000000000328e-03
2.340000000000000000e+02,5.629998199999999842e-03
2.350000000000000000e+02,5.616178700000000121e-03
2.360000000000000000e+02,5.602408199999999762e-03
2.370000000000000000e+02,5.588686600000000032e-03
2.380000000000000000e+02,5.575014300000000200e-03
2.390000000000000000e+02,5.561391399999999867e-03
2.400000000000000000e+02,5.547818300000000036e-03
2.410000000000000000e+02,5.534294500000000103e-03
2.420000000000000000e+02,5.520821999999999882e-03
2.430000000000000000e+02,5.507399799999999901e-03
2.440000000000000000e+02,5.494029299999999769e-03
2.450000000000000000e+02,5.480710899999999622e-03
2.460000000000000000e+02,5.467445100000000065e-03
2.470000000000000000e+02,5.454232899999999704e-03
2.480000000000000000e+02,5.441074300000000273e-03
2.490000000000000000e+02,5.427770799999999569e-03
2.500000000000000000e+02,5.414565999999999997e-03
2.510000000000000000e+02,5.401448300000000202e-03
2.520000000000000000e+02,5.388411200000000137e-03
2.530000000000000000e+02,5.375451399999999977e-03
2.540000000000000000e+02,5.362565599999999898e-03
2.550000000000000000e+02,5.349752499999999890e-03
2.560000000000000000e+02,5.337010599999999876e-03
2.570000000000000000e+02,5.324340399999999592e-03
2.580000000000000000e+02,5.311740599999999896e-03
2.590000000000000000e+02,5.299211899999999725e-03
2.600000000000000000e+02,5.286754099999999880e-03
2.610000000000000000e+02,5.274368500000000369e-03
2.620000000000000000e+02,5.262055399999999994e-03
2.630000000000000000e+02,5.249815500000000294e-03
2.640000000000000000e+02,5.237649700000000276e-03
2.650000000000000000e+02,5.225559200000000348e-03
2.660000000000000000e+02,5.213545600000000189e-03
2.670000000000000000e+02,5.201610700000000413e-03
2.680000000000000000e+02,5.189755899999999762e-03
2.690000000000000000e+02,5.177983100000000186e-03
2.700000000000000000e+02,5.166294499999999831e-03
2.710000000000000000e+02,5.154692100000000249e-03
2.720000000000000000e+02,5.143178600000000190e-03
2.730000000000000000e+02,5.131756900000000211e-03
2.740000000000000000e+02,5.120429200000000194e-03
2.750000000000000000e+02,5.109198900000000432e-03
2.760000000000000000e+02,5.098068600000000075e-03
2.770000000000000000e+02,5.087041799999999885e-03
2.780000000000000000e+02,5.076121500000000016e-03
2.790000000000000000e+02,5.065311700000000097e-03
2.800000000000000000e+02,5.054616399999999760e-03
2.810000000000000000e+02,5.044039299999999830e-03
2.820000000000000000e+02,5.033584800000000074e-03
2.830000000000000000e+02,5.023257300000000258e-03
2.840000000000000000e+02,5.012949499999999788e-03
2.850000000000000000e+02,5.002805499999999662e-03
2.860000000000000000e+02,4.992826399999999824e-03
2.870000000000000000e+02,4.983014000000000020e-03
2.880000000000000000e+02,4.973371499999999605e-03
2.890000000000000000e+02,4.963902800000000344e-03
2.900000000000000000e+02,4.954611900000000131e-03
2.910000000000000000e+02,4.945503999999999872e-03
2.920000000000000000e+02,4.936585200000000347e-03
2.930000000000000000e+02,4.927860600000000257e-03
2.940000000000000000e+02,4.919337600000000393e-03
2.950000000000000000e+02,4.911023199999999672e-03
2.960000000000000000e+02,4.902925300000000354e-03
2.970000000000000000e+02,4.895051000000000090e-03
2.980000000000000000e+02,4.887409500000000281e-03
2.990000000000000000e+02,4.880008299999999584e-03
3.000000000000000000e+02,4.872856699999999867e-03
3.010000000000000000e+02,4.865962100000000186e-03
3.020000000000000000e+02,4.859334300000000412e-03
3.030000000000000000e+02,4.852981299999999804e-03
3.040000000000000000e+02,4.846911899999999628e-03
3.050000000000000000e+02,4.841134000000000409e-03
3.060000000000000000e+02,4.835655900000000208e-03
3.070000000000000000e+02,4.830486099999999755e-03
3.080000000000000000e+02,4.825631599999999702e-03
3.090000000000000000e+02,4.821100299999999707e-03
3.100000000000000000e+02,4.816898600000000218e-03
3.110000000000000000e+02,4.813034100000000357e-03
3.120000000000000000e+02,4.809511800000000094e-03
3.130000000000000000e+02,4.806336900000000335e-03
3.140000000000000000e+02,4.803512200000000301e-03
3.150000000000000000e+02,4.801038199999999728e-03
3.160000000000000000e+02,4.798912399999999932e-03
3.170000000000000000e+02,4.797125699999999979e-03
3.180000000000000000e+02,4.795663999999999830e-03
3.190000000000000000e+02,4.794505000000000121e-03
3.200000000000000000e+02,4.793620200000000241e-03
3.210000000000000000e+02,4.792973399999999988e-03
3.220000000000000000e+02,4.792524000000000263e-03
3.230000000000000000e+02,4.792229299999999949e-03
3.240000000000000000e+02,4.792048600000000345e-03
3.250000000000000000e+02,4.791947500000000131e-03
3.260000000000000000e+02,4.791896300000000018e-03
3.270000000000000000e+02,4.791874399999999923e-03
3.280000000000000000e+02,4.791867899999999875e-03
3.290000000000000000e+02,4.791867000000000001e-03
3.300000000000000000e+02,4.791867499999999738e-03
3.310000000000000000e+02,4.791867899999999875e-03
3.320000000000000000e+02,4.791868900000000216e-03
3.330000000000000000e+02,4.791870699999999962e-03
3.340000000000000000e+02,4.791873000000000313e-03
3.350000000000000000e+02,4.791873500000000050e-03
3.360000000000000000e+02,4.791873500000000050e-03
3.370000000000000000e+02,4.791873500000000050e-03
3.380000000000000000e+02,4.791873500000000050e-03
3.390000000000000000e+02,4.791873500000000050e-03
3.400000000000000000e+02,4.791873500000000050e-03
3.410000000000000000e+02,4.791873500000000050e-03
3.420000000000000000e+02,4.791873500000000050e-03
3.430000000000000000e+02,4.791873500000000050e-03
3.440000000000000000e+02,4.791873500000000050e-03
3.450000000000000000e+02,4.791873500000000050e-03
3.460000000000000000e+02,4.791873500000000050e-03
3.470000000000000000e+02,4.791873500000000050e-03
3.480000000000000000e+02,4.791873500000000050e-03
3.490000000000000000e+02,4.791873500000000050e-03
3.500000000000000000e+02,4.791873500000000050e-03
3.510000000000000000e+02,4.791873500000000050e-03
3.520000000000000000e+02,4.791873500000000050e-03
3.530000000000000000e+02,4.791873500000000050e-03
3.540000000000000000e+02,4.791873500000000050e-03
3.550000000000000000e+02,4.791873500000000050e-03
3.560000000000000000e+02,4.791873500000000050e-03
3.570000000000000000e+02,4.791873500000000050e-03
3.580000000000000000e+02,4.791873500000000050e-03
3.590000000000000000e+02,4.791873500000000050e-03
3.600000000000000000e+02,4.791873500000000050e-03
3.610000000000000000e+02,4.791873500000000050e-03
3.620000000000000000e+02,4.791873500000000050e-03
3.630000000000000000e+02,4.791873500000000050e-03
3.640000000000000000e+02,4.791873500000000050e-03
3.650000000000000000e+02,4.791873500000000050e-03
3.660000000000000000e+02,4.791873500000000050e-03
3.670000000000000000e+02,4.791873500000000050e-03
3.680000000000000000e+02,4.791873500000000050e-03
3.690000000000000000e+02,4.791873500000000050e-03
3.700000000000000000e+02,4.791873500000000050e-03
3.710000000000000000e+02,4.791873500000000050e-03
3.720000000000000000e+02,4.791873500000000050e-03
3.730000000000000000e+02,4.791873500000000050e-03
3.740000000000000000e+02,4.791873500000000050e-03
3.750000000000000000e+02,4.791873500000000050e-03
3.760000000000000000e+02,4.791873500000000050e-03
3.770000000000000000e+02,4.791873500000000050e-03
3.780000000000000000e+02,4.791873500000000050e-03
3.790000000000000000e+02,4.791873500000000050e-03
3.800000000000000000e+02,4.791873500000000050e-03
3.810000000000000000e+02,4.791873500000000050e-03
3.820000000000000000e+02,4.791873500000000050e-03
3.830000000000000000e+02,4.791873500000000050e-03
3.840000000000000000e+02,4.791873500000000050e-03
3.850000000000000000e+02,4.791873500000000050e-03
3.860000000000000000e+02,4.791873500000000050e-03
3.870000000000000000e+02,4.791873500000000050e-03
3.880000000000000000e+02,4.791873500000000050e-03
3.890000000000000000e+02,4.791873500000000050e-03
3.900000000000000000e+02,4.791873500000000050e-03
3.910000000000000000e+02,4.791873500000000050e-03
3.920000000000000000e+02,4.791873500000000050e-03
3.930000000000000000e+02,4.791873500000000050e-03
3.940000000000000000e+02,4.791873500000000050e-03
3.950000000000000000e+02,4.791873500000000050e-03
3.960000000000000000e+02,4.791873500000000050e-03
3.970000000000000000e+02,4.791873500000000050e-03
3.980000000000000000e+02,4.791873500000000050e-03
3.990000000000000000e+02,4.791873500000000050e-03
