# Time [s], Convective Heat Transfer Coefficient [W/m2K]
1.000000000000000000e+00,0.000000000000000000e+00
2.000000000000000000e+00,0.000000000000000000e+00
3.000000000000000000e+00,0.000000000000000000e+00
4.000000000000000000e+00,0.000000000000000000e+00
5.000000000000000000e+00,2.762023300960968902e-02
6.000000000000000000e+00,4.774898591629385403e-02
7.000000000000000000e+00,7.911338352345732849e-02
8.000000000000000000e+00,1.221516601768705690e-01
9.000000000000000000e+00,1.772229698782193941e-01
1.000000000000000000e+01,2.449488521854777667e-01
1.100000000000000000e+01,3.249771962982256901e-01
1.200000000000000000e+01,4.165958837135955717e-01
1.300000000000000000e+01,5.186778282641787419e-01
1.400000000000000000e+01,6.299770368316084390e-01
1.500000000000000000e+01,7.491574090651066387e-01
1.600000000000000000e+01,8.749255777407981549e-01
1.700000000000000000e+01,1.006071722695831783e+00
1.800000000000000000e+01,1.141482492025569506e+00
1.900000000000000000e+01,1.280176023917313444e+00
2.000000000000000000e+01,1.421262952019092918e+00
2.100000000000000000e+01,1.570497548677601607e+00
2.200000000000000000e+01,1.716886267269475352e+00
2.300000000000000000e+01,1.862643440542599116e+00
2.400000000000000000e+01,2.007800904097213568e+00
2.500000000000000000e+01,2.152046222212148141e+00
2.600000000000000000e+01,2.295100000028919229e+00
2.700000000000000000e+01,2.436702111252927239e+00
2.800000000000000000e+01,2.576647862382742460e+00
2.900000000000000000e+01,2.714771835436975866e+00
3.000000000000000000e+01,2.850948578585946969e+00
3.100000000000000000e+01,2.985089086973525152e+00
3.200000000000000000e+01,3.117137700757623531e+00
3.300000000000000000e+01,3.247055397745923777e+00
3.400000000000000000e+01,3.374825766691413431e+00
3.500000000000000000e+01,3.500448502172263332e+00
3.600000000000000000e+01,3.623936628597831611e+00
3.700000000000000000e+01,3.745320862719681454e+00
3.800000000000000000e+01,3.864627068775974728e+00
3.900000000000000000e+01,3.981894922639706458e+00
4.000000000000000000e+01,4.097161190086303861e+00
4.100000000000000000e+01,4.210475804827543911e+00
4.200000000000000000e+01,4.321875145807258178e+00
4.300000000000000000e+01,4.431403294052523201e+00
4.400000000000000000e+01,4.539109888056128916e+00
4.500000000000000000e+01,4.645177635725751486e+00
4.600000000000000000e+01,4.749438816176796863e+00
4.700000000000000000e+01,4.851986249718911459e+00
4.800000000000000000e+01,4.952864369057619953e+00
4.900000000000000000e+01,5.052116092694321381e+00
5.000000000000000000e+01,5.149790056208035871e+00
5.100000000000000000e+01,5.245926307085289508e+00
5.200000000000000000e+01,5.340568755507547394e+00
5.300000000000000000e+01,5.433759854808692502e+00
5.400000000000000000e+01,5.525533858194408232e+00
5.500000000000000000e+01,5.615932321346291722e+00
5.600000000000000000e+01,5.704988618779781362e+00
5.700000000000000000e+01,5.792738568388605458e+00
5.800000000000000000e+01,5.879206790255659953e+00
5.900000000000000000e+01,5.964421328688424673e+00
6.000000000000000000e+01,6.048411592860611918e+00
6.100000000000000000e+01,6.131196361703210584e+00
6.200000000000000000e+01,6.212806944756781746e+00
6.300000000000000000e+01,6.293261504734310563e+00
6.400000000000000000e+01,6.372582032231716376e+00
6.500000000000000000e+01,6.450793110965505228e+00
6.600000000000000000e+01,6.527915947311011990e+00
6.700000000000000000e+01,6.603969937252805344e+00
6.800000000000000000e+01,6.678975389890914549e+00
6.900000000000000000e+01,6.752952226610623221e+00
7.000000000000000000e+01,6.826065194349636656e+00
7.100000000000000000e+01,6.898101504639016390e+00
7.200000000000000000e+01,6.969142357828957302e+00
7.300000000000000000e+01,7.039224619837522567e+00
7.400000000000000000e+01,7.108369223044877394e+00
7.500000000000000000e+01,7.176599253949264678e+00
7.600000000000000000e+01,7.243940849428734730e+00
7.700000000000000000e+01,7.310405819657063375e+00
7.800000000000000000e+01,7.376012054977215904e+00
7.900000000000000000e+01,7.440766488110738486e+00
8.000000000000000000e+01,7.504683469767257087e+00
8.100000000000000000e+01,7.567767372998428499e+00
8.200000000000000000e+01,7.630027266015781962e+00
8.300000000000000000e+01,7.691476519921212507e+00
8.400000000000000000e+01,7.752122135715064033e+00
8.500000000000000000e+01,7.811973085933761496e+00
8.600000000000000000e+01,7.871042043601983451e+00
8.700000000000000000e+01,7.929338770514382517e+00
8.800000000000000000e+01,7.986869585751590783e+00
8.900000000000000000e+01,8.043643932393106155e+00
9.000000000000000000e+01,8.099667014877381277e+00
9.100000000000000000e+01,8.154948527905908406e+00
9.200000000000000000e+01,8.209493838761851237e+00
9.300000000000000000e+01,8.263306320604876021e+00
9.400000000000000000e+01,8.316392718203113432e+00
9.500000000000000000e+01,8.368757245468470884e+00
9.600000000000000000e+01,8.420406687481932551e+00
9.700000000000000000e+01,8.471344203439677756e+00
9.800000000000000000e+01,8.521614349038319602e+00
9.900000000000000000e+01,8.571162054823963317e+00
1.000000000000000000e+02,8.620013947269560717e+00
1.010000000000000000e+02,8.668188695855084447e+00
1.020000000000000000e+02,8.715704087482240681e+00
1.030000000000000000e+02,8.762564123124802151e+00
1.040000000000000000e+02,8.808756126423860522e+00
1.050000000000000000e+02,8.854263838834830480e+00
1.060000000000000000e+02,8.899075561497660658e+00
1.070000000000000000e+02,8.943179369132577605e+00
1.080000000000000000e+02,8.986569043514860411e+00
1.090000000000000000e+02,9.029234019502354158e+00
1.100000000000000000e+02,9.071164549620215567e+00
1.110000000000000000e+02,9.112349250262768763e+00
1.120000000000000000e+02,9.152773058099393566e+00
1.130000000000000000e+02,9.192421245255106399e+00
1.140000000000000000e+02,9.231277042527970877e+00
1.150000000000000000e+02,9.269321967776891213e+00
1.160000000000000000e+02,9.306534511385008202e+00
1.170000000000000000e+02,9.342893169391235375e+00
1.180000000000000000e+02,9.378372676129405505e+00
1.190000000000000000e+02,9.412947931632738019e+00
1.200000000000000000e+02,9.446590141972064814e+00
1.210000000000000000e+02,9.479270933771070773e+00
1.220000000000000000e+02,9.510957880664282271e+00
1.230000000000000000e+02,9.541724504906486715e+00
1.240000000000000000e+02,9.571469004509218337e+00
1.250000000000000000e+02,9.600221661511483262e+00
1.260000000000000000e+02,9.627951037990754912e+00
1.270000000000000000e+02,9.654576655587469247e+00
1.280000000000000000e+02,9.680030803699530395e+00
1.290000000000000000e+02,9.704283516189375902e+00
1.300000000000000000e+02,9.727334954535836076e+00
1.310000000000000000e+02,9.749202828957185929e+00
1.320000000000000000e+02,9.769909017481982261e+00
1.330000000000000000e+02,9.789487575637092931e+00
1.340000000000000000e+02,9.807978098375034648e+00
1.350000000000000000e+02,9.825430902301580005e+00
1.360000000000000000e+02,9.841905472574421054e+00
1.370000000000000000e+02,9.857466316668173079e+00
1.380000000000000000e+02,9.872186959220659475e+00
1.390000000000000000e+02,9.886142257182294557e+00
1.400000000000000000e+02,9.899409808668396593e+00
1.410000000000000000e+02,9.912068592546116719e+00
1.420000000000000000e+02,9.924196433404986806e+00
1.430000000000000000e+02,9.935869034311592074e+00
1.440000000000000000e+02,9.948291909230968955e+00
1.450000000000000000e+02,9.960063425343001597e+00
1.460000000000000000e+02,9.971393603716618870e+00
1.470000000000000000e+02,9.982325004984200945e+00
1.480000000000000000e+02,9.992934068969010042e+00
1.490000000000000000e+02,1.000334647119026776e+01
1.500000000000000000e+02,1.001367735442511631e+01
1.510000000000000000e+02,1.002400129482043489e+01
1.520000000000000000e+02,1.003436318982753761e+01
1.530000000000000000e+02,1.004480176516428003e+01
1.540000000000000000e+02,1.005534592844180075e+01
1.550000000000000000e+02,1.006602595598309691e+01
1.560000000000000000e+02,1.007686251884033091e+01
1.570000000000000000e+02,1.008787724561724986e+01
1.580000000000000000e+02,1.009908696574415821e+01
1.590000000000000000e+02,1.011051291621584269e+01
1.600000000000000000e+02,1.012216902990785172e+01
1.610000000000000000e+02,1.013407363747033507e+01
1.620000000000000000e+02,1.014623962850556005e+01
1.630000000000000000e+02,1.015869367814604374e+01
1.640000000000000000e+02,1.017145253235425173e+01
1.650000000000000000e+02,1.018949508447634322e+01
1.660000000000000000e+02,1.020422264589962857e+01
1.670000000000000000e+02,1.021809010428151865e+01
1.680000000000000000e+02,1.023209948203468223e+01
1.690000000000000000e+02,1.024648605357033304e+01
1.700000000000000000e+02,1.026148483969715919e+01
1.710000000000000000e+02,1.027703556484214076e+01
1.720000000000000000e+02,1.029316288744999497e+01
1.730000000000000000e+02,1.030989447863694863e+01
1.740000000000000000e+02,1.032724535503051300e+01
1.750000000000000000e+02,1.034525076649522290e+01
1.760000000000000000e+02,1.036396570206202838e+01
1.770000000000000000e+02,1.038343515551671814e+01
1.780000000000000000e+02,1.040371673165026856e+01
1.790000000000000000e+02,1.042488214877486463e+01
1.800000000000000000e+02,1.044698948924560078e+01
1.810000000000000000e+02,1.047015127877515361e+01
1.820000000000000000e+02,1.049444563530246555e+01
1.830000000000000000e+02,1.051996783182634054e+01
1.840000000000000000e+02,1.054682703982075687e+01
1.850000000000000000e+02,1.057515586053926349e+01
1.860000000000000000e+02,1.060509530139531442e+01
1.870000000000000000e+02,1.063677817554060212e+01
1.880000000000000000e+02,1.067036568090411208e+01
1.890000000000000000e+02,1.070605525485091469e+01
1.900000000000000000e+02,1.074402783376917725e+01
1.910000000000000000e+02,1.079712584378860107e+01
1.920000000000000000e+02,1.084385747987208148e+01
1.930000000000000000e+02,1.088814580092587292e+01
1.940000000000000000e+02,1.093788726540054945e+01
1.950000000000000000e+02,1.099119802955660496e+01
1.960000000000000000e+02,1.104911131897577192e+01
1.970000000000000000e+02,1.111177957843426078e+01
1.980000000000000000e+02,1.117950499104117590e+01
1.990000000000000000e+02,1.125191133512820585e+01
2.000000000000000000e+02,1.132765081211608305e+01
2.010000000000000000e+02,1.140428195412046186e+01
2.020000000000000000e+02,1.147898162778986730e+01
2.030000000000000000e+02,1.154970682551639527e+01
2.040000000000000000e+02,1.161578713576539990e+01
2.050000000000000000e+02,1.167747696837374782e+01
2.060000000000000000e+02,1.173536994049627147e+01
2.070000000000000000e+02,1.178999186763685536e+01
2.080000000000000000e+02,1.184175658802752551e+01
2.090000000000000000e+02,1.189113923038647336e+01
2.100000000000000000e+02,1.193842692265625338e+01
2.110000000000000000e+02,1.198386949039779914e+01
2.120000000000000000e+02,1.202764835369835161e+01
2.130000000000000000e+02,1.206992991174432639e+01
2.140000000000000000e+02,1.211082670159736807e+01
2.150000000000000000e+02,1.215045522245543630e+01
2.160000000000000000e+02,1.218890363077408168e+01
2.170000000000000000e+02,1.222625926727018175e+01
2.180000000000000000e+02,1.226259418053552253e+01
2.190000000000000000e+02,1.229796669638589357e+01
2.200000000000000000e+02,1.233243982937097449e+01
2.210000000000000000e+02,1.236605933388288037e+01
2.220000000000000000e+02,1.239887281289694521e+01
2.230000000000000000e+02,1.243091987194846482e+01
2.240000000000000000e+02,1.246223169044062296e+01
2.250000000000000000e+02,1.249284724222860454e+01
2.260000000000000000e+02,1.252279776096703401e+01
2.270000000000000000e+02,1.255210777246126597e+01
2.280000000000000000e+02,1.258080392687819149e+01
2.290000000000000000e+02,1.260890694524539413e+01
2.300000000000000000e+02,1.263644005298034756e+01
2.310000000000000000e+02,1.266342018203691744e+01
2.320000000000000000e+02,1.268986793211010244e+01
2.330000000000000000e+02,1.271580062959273505e+01
2.340000000000000000e+02,1.274123197389696038e+01
2.350000000000000000e+02,1.276617729083003638e+01
2.360000000000000000e+02,1.279065028996406639e+01
2.370000000000000000e+02,1.281466502876029701e+01
2.380000000000000000e+02,1.283823250501652424e+01
2.390000000000000000e+02,1.286136560277956775e+01
2.400000000000000000e+02,1.288407617381004222e+01
2.410000000000000000e+02,1.290637330544270256e+01
2.420000000000000000e+02,1.292826708550464865e+01
2.430000000000000000e+02,1.294976565842323168e+01
2.440000000000000000e+02,1.297087679252148895e+01
2.450000000000000000e+02,1.299161378512092568e+01
2.460000000000000000e+02,1.301197968513140424e+01
2.470000000000000000e+02,1.303198668718837361e+01
2.480000000000000000e+02,1.305164266359239633e+01
2.490000000000000000e+02,1.307095356324952462e+01
2.500000000000000000e+02,1.308992651723027123e+01
2.510000000000000000e+02,1.310856648634426946e+01
2.520000000000000000e+02,1.312688288393800562e+01
2.530000000000000000e+02,1.314488192914033782e+01
2.540000000000000000e+02,1.316256797737744222e+01
2.550000000000000000e+02,1.317995035353020761e+01
2.560000000000000000e+02,1.319703387935165217e+01
2.570000000000000000e+02,1.321382570560882463e+01
2.580000000000000000e+02,1.323032645719448652e+01
2.590000000000000000e+02,1.324654465870931475e+01
2.600000000000000000e+02,1.326248645719889652e+01
2.610000000000000000e+02,1.327815658282364630e+01
2.620000000000000000e+02,1.329355936102462188e+01
2.630000000000000000e+02,1.330869937961394278e+01
2.640000000000000000e+02,1.332358458657612843e+01
2.650000000000000000e+02,1.333821763515848602e+01
2.660000000000000000e+02,1.335260310008016660e+01
2.670000000000000000e+02,1.336674450969783479e+01
2.680000000000000000e+02,1.338064736584553849e+01
2.690000000000000000e+02,1.339431547086532959e+01
2.700000000000000000e+02,1.340775420218950487e+01
2.710000000000000000e+02,1.342096698853344527e+01
2.720000000000000000e+02,1.343395824918646220e+01
2.730000000000000000e+02,1.344673157283729203e+01
2.740000000000000000e+02,1.345929017891048574e+01
2.750000000000000000e+02,1.347163840546578406e+01
2.760000000000000000e+02,1.348378086298782463e+01
2.770000000000000000e+02,1.349571838405693747e+01
2.780000000000000000e+02,1.350745774551188916e+01
2.790000000000000000e+02,1.351900201036040983e+01
2.800000000000000000e+02,1.353035254293328293e+01
2.810000000000000000e+02,1.354151457749026122e+01
2.820000000000000000e+02,1.355249100499718651e+01
2.830000000000000000e+02,1.356328493837344418e+01
2.840000000000000000e+02,1.357389894904389926e+01
2.850000000000000000e+02,1.358433716520156231e+01
2.860000000000000000e+02,1.359460209365738770e+01
2.870000000000000000e+02,1.360469671993253726e+01
2.880000000000000000e+02,1.361462488424553641e+01
2.890000000000000000e+02,1.362438850127115408e+01
2.900000000000000000e+02,1.363399053433302299e+01
2.910000000000000000e+02,1.364343360502738101e+01
2.920000000000000000e+02,1.365272024737831735e+01
2.930000000000000000e+02,1.366185303439965892e+01
2.940000000000000000e+02,1.367083526734258925e+01
2.950000000000000000e+02,1.367966859444071481e+01
2.960000000000000000e+02,1.368835745778708812e+01
2.970000000000000000e+02,1.369690283650653839e+01
2.980000000000000000e+02,1.370530781538597509e+01
2.990000000000000000e+02,1.371357290394096573e+01
3.000000000000000000e+02,1.372170251811194142e+01
3.010000000000000000e+02,1.372969961705159214e+01
3.020000000000000000e+02,1.373756447170239525e+01
3.030000000000000000e+02,1.374530000887770598e+01
3.040000000000000000e+02,1.375290826887657403e+01
3.050000000000000000e+02,1.376039146179440742e+01
3.060000000000000000e+02,1.376775165817449320e+01
3.070000000000000000e+02,1.377499134533265135e+01
3.080000000000000000e+02,1.378211169995780594e+01
3.090000000000000000e+02,1.378911579656800512e+01
3.100000000000000000e+02,1.379600540001312226e+01
3.110000000000000000e+02,1.380278121815897308e+01
3.120000000000000000e+02,1.380944628338863112e+01
3.130000000000000000e+02,1.381600232344167090e+01
3.140000000000000000e+02,1.382245117713532778e+01
3.150000000000000000e+02,1.382879503895567375e+01
3.160000000000000000e+02,1.383503419489281150e+01
3.170000000000000000e+02,1.384117143064005440e+01
3.180000000000000000e+02,1.384720866298780351e+01
3.190000000000000000e+02,1.385314712692446015e+01
3.200000000000000000e+02,1.385898792728238860e+01
3.210000000000000000e+02,1.386473423168274088e+01
3.220000000000000000e+02,1.387038584697548060e+01
3.230000000000000000e+02,1.387594537363927039e+01
3.240000000000000000e+02,1.388141436753536340e+01
3.250000000000000000e+02,1.388679382989773359e+01
3.260000000000000000e+02,1.389208584734973151e+01
3.270000000000000000e+02,1.389729098169871513e+01
3.280000000000000000e+02,1.390241166749735058e+01
3.290000000000000000e+02,1.390744911869425593e+01
3.300000000000000000e+02,1.391240393805168019e+01
3.310000000000000000e+02,1.391727811383291424e+01
3.320000000000000000e+02,1.392207296166350972e+01
3.330000000000000000e+02,1.392678973056891323e+01
3.340000000000000000e+02,1.393142930176699679e+01
3.350000000000000000e+02,1.393599297357244993e+01
3.360000000000000000e+02,1.394048306250168068e+01
3.370000000000000000e+02,1.394490007089735606e+01
3.380000000000000000e+02,1.394924449761348839e+01
3.390000000000000000e+02,1.395351840127713317e+01
3.400000000000000000e+02,1.395772287198582795e+01
3.410000000000000000e+02,1.396185887509422585e+01
3.420000000000000000e+02,1.396592755176185285e+01
3.430000000000000000e+02,1.396993057843085850e+01
3.440000000000000000e+02,1.397386758764894488e+01
3.450000000000000000e+02,1.397774132657270485e+01
3.460000000000000000e+02,1.398155154044819604e+01
3.470000000000000000e+02,1.398530012801733768e+01
3.480000000000000000e+02,1.398898796542813727e+01
3.490000000000000000e+02,1.399261538734763732e+01
3.500000000000000000e+02,1.399618445918798848e+01
3.510000000000000000e+02,1.399969485161505744e+01
3.520000000000000000e+02,1.400314915972189844e+01
3.530000000000000000e+02,1.400654639200867635e+01
3.540000000000000000e+02,1.400988883778014760e+01
3.550000000000000000e+02,1.401317699232122216e+01
3.560000000000000000e+02,1.401641152750984531e+01
3.570000000000000000e+02,1.401959406570388822e+01
3.580000000000000000e+02,1.402272467735762795e+01
3.590000000000000000e+02,1.402580444326337350e+01
3.600000000000000000e+02,1.402883390591067325e+01
3.610000000000000000e+02,1.403181449760336719e+01
3.620000000000000000e+02,1.403474669633074967e+01
3.630000000000000000e+02,1.403763157235072079e+01
3.640000000000000000e+02,1.404046965878843523e+01
3.650000000000000000e+02,1.404326124955976063e+01
3.660000000000000000e+02,1.404600758655308290e+01
3.670000000000000000e+02,1.404870937504525941e+01
3.680000000000000000e+02,1.405136749625893344e+01
3.690000000000000000e+02,1.405398223661119239e+01
3.700000000000000000e+02,1.405655476997995201e+01
3.710000000000000000e+02,1.405908555708428587e+01
3.720000000000000000e+02,1.406157564927483250e+01
3.730000000000000000e+02,1.406402479370482972e+01
3.740000000000000000e+02,1.406643474868445942e+01
3.750000000000000000e+02,1.406880531777290244e+01
3.760000000000000000e+02,1.407113790044996549e+01
3.770000000000000000e+02,1.407343217973626182e+01
3.780000000000000000e+02,1.407568967006156235e+01
3.790000000000000000e+02,1.407791005230510883e+01
3.800000000000000000e+02,1.408009471954185976e+01
3.810000000000000000e+02,1.408224417713551446e+01
3.820000000000000000e+02,1.408435869326462608e+01
3.830000000000000000e+02,1.408643877124843513e+01
3.840000000000000000e+02,1.408848550307873104e+01
3.850000000000000000e+02,1.409049885876535058e+01
3.860000000000000000e+02,1.409247922049019408e+01
3.870000000000000000e+02,1.409442814808756061e+01
3.880000000000000000e+02,1.409634525517656733e+01
3.890000000000000000e+02,1.409823127438616908e+01
3.900000000000000000e+02,1.410008658387218183e+01
3.910000000000000000e+02,1.410191197304608757e+01
3.920000000000000000e+02,1.410370781817419328e+01
3.930000000000000000e+02,1.410547478894502227e+01
3.940000000000000000e+02,1.410721296581895601e+01
3.950000000000000000e+02,1.410892272285938986e+01
3.960000000000000000e+02,1.411060519772194155e+01
3.970000000000000000e+02,1.411226029231451307e+01
3.980000000000000000e+02,1.411388849597024553e+01
