# Time [s], Convective Heat Transfer Coefficient [W/m2K]
1.000000000000000000e+00,0.000000000000000000e+00
2.000000000000000000e+00,0.000000000000000000e+00
3.000000000000000000e+00,0.000000000000000000e+00
4.000000000000000000e+00,1.915079995362458862e-02
5.000000000000000000e+00,3.274740728807139234e-02
6.000000000000000000e+00,5.636813249252742991e-02
7.000000000000000000e+00,9.244947033276551540e-02
8.000000000000000000e+00,1.411630695200618846e-01
9.000000000000000000e+00,2.032245738771588650e-01
1.000000000000000000e+01,2.787113243397865703e-01
1.100000000000000000e+01,3.671510195837305313e-01
1.200000000000000000e+01,4.675925705270608246e-01
1.300000000000000000e+01,5.787241265921456712e-01
1.400000000000000000e+01,6.991161840299161545e-01
1.500000000000000000e+01,8.273091947182772410e-01
1.600000000000000000e+01,9.619157184530701121e-01
1.700000000000000000e+01,1.101652754643591026e+00
1.800000000000000000e+01,1.245369086081211218e+00
1.900000000000000000e+01,1.392038972793546492e+00
2.000000000000000000e+01,1.540774375757089310e+00
2.100000000000000000e+01,1.690794231579627382e+00
2.200000000000000000e+01,1.841414194608892885e+00
2.300000000000000000e+01,1.992046987338075947e+00
2.400000000000000000e+01,2.142195676513269476e+00
2.500000000000000000e+01,2.291439562510720673e+00
2.600000000000000000e+01,2.439417634359346998e+00
2.700000000000000000e+01,2.585838820333455246e+00
2.800000000000000000e+01,2.730468660281023752e+00
2.900000000000000000e+01,2.873124209651671368e+00
3.000000000000000000e+01,3.013672865497377451e+00
3.100000000000000000e+01,3.152006272759296568e+00
3.200000000000000000e+01,3.288054347457819215e+00
3.300000000000000000e+01,3.421770939935251832e+00
3.400000000000000000e+01,3.553131591683157620e+00
3.500000000000000000e+01,3.682134176636193690e+00
3.600000000000000000e+01,3.808778922141134338e+00
3.700000000000000000e+01,3.933141071495548591e+00
3.800000000000000000e+01,4.055153597158970946e+00
3.900000000000000000e+01,4.174875599844689589e+00
4.000000000000000000e+01,4.292355904064881322e+00
4.100000000000000000e+01,4.407633615207546818e+00
4.200000000000000000e+01,4.520765752175305074e+00
4.300000000000000000e+01,4.631805401298254132e+00
4.400000000000000000e+01,4.740811189775497425e+00
4.500000000000000000e+01,4.847846685156542712e+00
4.600000000000000000e+01,4.952973930796227719e+00
4.700000000000000000e+01,5.056247908015979675e+00
4.800000000000000000e+01,5.157730916272520005e+00
4.900000000000000000e+01,5.257472679428397022e+00
5.000000000000000000e+01,5.355522362813148973e+00
5.100000000000000000e+01,5.451926292404551511e+00
5.200000000000000000e+01,5.546726357037415234e+00
5.300000000000000000e+01,5.639962136926035541e+00
5.400000000000000000e+01,5.731675036585900607e+00
5.500000000000000000e+01,5.821903212579225162e+00
5.600000000000000000e+01,5.910678431649984077e+00
5.700000000000000000e+01,5.998041091379177736e+00
5.800000000000000000e+01,6.084024512148293873e+00
5.900000000000000000e+01,6.168659442652446145e+00
6.000000000000000000e+01,6.251980820747321310e+00
6.100000000000000000e+01,6.334019609359096137e+00
6.200000000000000000e+01,6.414805457924806831e+00
6.300000000000000000e+01,6.494367647189053905e+00
6.400000000000000000e+01,6.572804513810400096e+00
6.500000000000000000e+01,6.650041707711204175e+00
6.600000000000000000e+01,6.726127937813485502e+00
6.700000000000000000e+01,6.801091528327595448e+00
6.800000000000000000e+01,6.874965853197195997e+00
6.900000000000000000e+01,6.947776406734378796e+00
7.000000000000000000e+01,7.019554407627721204e+00
7.100000000000000000e+01,7.090330148187950599e+00
7.200000000000000000e+01,7.160123702832455805e+00
7.300000000000000000e+01,7.228955063759672228e+00
7.400000000000000000e+01,7.296846325434789726e+00
7.500000000000000000e+01,7.363810681509566969e+00
7.600000000000000000e+01,7.429865921221319169e+00
7.700000000000000000e+01,7.495028385582399366e+00
7.800000000000000000e+01,7.559312871333724537e+00
7.900000000000000000e+01,7.622734156017661356e+00
8.000000000000000000e+01,7.685303023050694904e+00
8.100000000000000000e+01,7.747037685341330970e+00
8.200000000000000000e+01,7.807951866081035419e+00
8.300000000000000000e+01,7.868056647841902063e+00
8.400000000000000000e+01,7.927364387046855754e+00
8.500000000000000000e+01,7.985886592936093820e+00
8.600000000000000000e+01,8.043633800457797633e+00
8.700000000000000000e+01,8.100616345602578150e+00
8.800000000000000000e+01,8.156844020733274192e+00
8.900000000000000000e+01,8.212329229677303388e+00
9.000000000000000000e+01,8.267080643811507201e+00
9.100000000000000000e+01,8.321108005838491195e+00
9.200000000000000000e+01,8.374475135963942662e+00
9.300000000000000000e+01,8.427105845106325432e+00
9.400000000000000000e+01,8.479037090000495880e+00
9.500000000000000000e+01,8.530293234173417005e+00
9.600000000000000000e+01,8.580893486680366777e+00
9.700000000000000000e+01,8.630851738830731534e+00
9.800000000000000000e+01,8.680174852544572772e+00
9.900000000000000000e+01,8.728861364344586704e+00
1.000000000000000000e+02,8.776907408222916374e+00
1.010000000000000000e+02,8.824312097124202836e+00
1.020000000000000000e+02,8.871072298023840119e+00
1.030000000000000000e+02,8.917185536749226316e+00
1.040000000000000000e+02,8.962648788795478438e+00
1.050000000000000000e+02,9.007458641532267052e+00
1.060000000000000000e+02,9.051614875136612781e+00
1.070000000000000000e+02,9.095112941463373346e+00
1.080000000000000000e+02,9.137947243645315964e+00
1.090000000000000000e+02,9.180114784466349320e+00
1.100000000000000000e+02,9.221608429850737920e+00
1.110000000000000000e+02,9.262424449221148492e+00
1.120000000000000000e+02,9.302554103417747910e+00
1.130000000000000000e+02,9.341988942280348596e+00
1.140000000000000000e+02,9.380717717074903206e+00
1.150000000000000000e+02,9.418729248298873813e+00
1.160000000000000000e+02,9.456008737732215508e+00
1.170000000000000000e+02,9.492540225958276068e+00
1.180000000000000000e+02,9.528305966233972413e+00
1.190000000000000000e+02,9.563323197174565138e+00
1.200000000000000000e+02,9.597534718951230559e+00
1.210000000000000000e+02,9.630979971194543410e+00
1.220000000000000000e+02,9.663662074440919625e+00
1.230000000000000000e+02,9.695531387271936197e+00
1.240000000000000000e+02,9.726521337753775143e+00
1.250000000000000000e+02,9.756575302825323703e+00
1.260000000000000000e+02,9.785649129274268887e+00
1.270000000000000000e+02,9.813711277178221337e+00
1.280000000000000000e+02,9.840737669280143152e+00
1.290000000000000000e+02,9.866708419535349606e+00
1.300000000000000000e+02,9.891608150163497370e+00
1.310000000000000000e+02,9.915430835545182120e+00
1.320000000000000000e+02,9.938176822531881172e+00
1.330000000000000000e+02,9.959854913396508636e+00
1.340000000000000000e+02,9.980480891467056637e+00
1.350000000000000000e+02,1.000008207732952847e+01
1.360000000000000000e+02,1.001869212477439142e+01
1.370000000000000000e+02,1.003635421025737529e+01
1.380000000000000000e+02,1.005311954185315315e+01
1.390000000000000000e+02,1.006904730438849427e+01
1.400000000000000000e+02,1.008495222795139945e+01
1.410000000000000000e+02,1.009998281576476842e+01
1.420000000000000000e+02,1.011433089970303811e+01
1.430000000000000000e+02,1.012802435059744965e+01
1.440000000000000000e+02,1.014110984418804762e+01
1.450000000000000000e+02,1.015368320536116187e+01
1.460000000000000000e+02,1.016584492443915622e+01
1.470000000000000000e+02,1.017768549522094013e+01
1.480000000000000000e+02,1.018928345435861083e+01
1.490000000000000000e+02,1.020070724902233117e+01
1.500000000000000000e+02,1.021201807176688980e+01
1.510000000000000000e+02,1.022327040534638165e+01
1.520000000000000000e+02,1.023451568098449727e+01
1.530000000000000000e+02,1.024579974922445658e+01
1.540000000000000000e+02,1.025716049085801629e+01
1.550000000000000000e+02,1.026863700266341084e+01
1.560000000000000000e+02,1.028026104679901920e+01
1.570000000000000000e+02,1.029206452786081449e+01
1.580000000000000000e+02,1.030407319584270631e+01
1.590000000000000000e+02,1.031981293857194615e+01
1.600000000000000000e+02,1.033356777833965445e+01
1.610000000000000000e+02,1.034673721007925451e+01
1.620000000000000000e+02,1.035998837791414395e+01
1.630000000000000000e+02,1.037344408422422859e+01
1.640000000000000000e+02,1.038725806359649440e+01
1.650000000000000000e+02,1.040147686488537282e+01
1.660000000000000000e+02,1.041612571824258993e+01
1.670000000000000000e+02,1.043124441305950079e+01
1.680000000000000000e+02,1.044685992072077774e+01
1.690000000000000000e+02,1.046300772458512363e+01
1.700000000000000000e+02,1.047973069662077528e+01
1.710000000000000000e+02,1.049707011783156574e+01
1.720000000000000000e+02,1.051508164003232437e+01
1.730000000000000000e+02,1.053381767535808855e+01
1.740000000000000000e+02,1.055333031997690085e+01
1.750000000000000000e+02,1.057369389567279505e+01
1.760000000000000000e+02,1.059500577436642743e+01
1.770000000000000000e+02,1.061733363116495177e+01
1.780000000000000000e+02,1.064078723971090668e+01
1.790000000000000000e+02,1.066547783899810575e+01
1.800000000000000000e+02,1.069154425844766187e+01
1.810000000000000000e+02,1.072935353208046294e+01
1.820000000000000000e+02,1.076093787940094693e+01
1.830000000000000000e+02,1.079220774843084385e+01
1.840000000000000000e+02,1.082554887961603107e+01
1.850000000000000000e+02,1.086144880543489144e+01
1.860000000000000000e+02,1.089991496310057428e+01
1.870000000000000000e+02,1.094133896207351597e+01
1.880000000000000000e+02,1.098596260077788145e+01
1.890000000000000000e+02,1.103413051281054003e+01
1.900000000000000000e+02,1.108610628444136381e+01
1.910000000000000000e+02,1.114209942179801160e+01
1.920000000000000000e+02,1.120223430473536474e+01
1.930000000000000000e+02,1.126638203921623038e+01
1.940000000000000000e+02,1.133436588955008695e+01
1.950000000000000000e+02,1.140585289024872040e+01
1.960000000000000000e+02,1.148043866602377427e+01
1.970000000000000000e+02,1.155741579391095541e+01
1.980000000000000000e+02,1.163532792489067269e+01
1.990000000000000000e+02,1.171177591325264267e+01
2.000000000000000000e+02,1.178445019457666199e+01
2.010000000000000000e+02,1.185258334596987240e+01
2.020000000000000000e+02,1.191527521185587268e+01
2.030000000000000000e+02,1.197343223198662265e+01
2.040000000000000000e+02,1.202822414249896354e+01
2.050000000000000000e+02,1.208014725533694467e+01
2.060000000000000000e+02,1.212963077527299127e+01
2.070000000000000000e+02,1.217695435418964323e+01
2.080000000000000000e+02,1.222237020656439910e+01
2.090000000000000000e+02,1.226606364139271932e+01
2.100000000000000000e+02,1.230819121528902471e+01
2.110000000000000000e+02,1.234887940828936870e+01
2.120000000000000000e+02,1.238824961921892864e+01
2.130000000000000000e+02,1.242639770987163317e+01
2.140000000000000000e+02,1.246340747926890558e+01
2.150000000000000000e+02,1.249934726482574376e+01
2.160000000000000000e+02,1.253427980897539840e+01
2.170000000000000000e+02,1.256827606516818641e+01
2.180000000000000000e+02,1.260137274887343750e+01
2.190000000000000000e+02,1.263362544244770014e+01
2.200000000000000000e+02,1.266506803021199445e+01
2.210000000000000000e+02,1.269574088015346902e+01
2.220000000000000000e+02,1.272567735305424996e+01
2.230000000000000000e+02,1.275490357053000423e+01
2.240000000000000000e+02,1.278345171621219301e+01
2.250000000000000000e+02,1.281134580521898592e+01
2.260000000000000000e+02,1.283861175665304621e+01
2.270000000000000000e+02,1.286526690641449022e+01
2.280000000000000000e+02,1.289133569764387666e+01
2.290000000000000000e+02,1.291683187279990364e+01
2.300000000000000000e+02,1.294177819742750302e+01
2.310000000000000000e+02,1.296618889285059417e+01
2.320000000000000000e+02,1.299007861931748842e+01
2.330000000000000000e+02,1.301346489672075357e+01
2.340000000000000000e+02,1.303636007367274274e+01
2.350000000000000000e+02,1.305877705613731266e+01
2.360000000000000000e+02,1.308072855294431491e+01
2.370000000000000000e+02,1.310222422267651865e+01
2.380000000000000000e+02,1.312328201312058518e+01
2.390000000000000000e+02,1.314391177470714389e+01
2.400000000000000000e+02,1.316411755645066251e+01
2.410000000000000000e+02,1.318391493910542600e+01
2.420000000000000000e+02,1.320331166290938718e+01
2.430000000000000000e+02,1.322231966670737258e+01
2.440000000000000000e+02,1.324094762139982073e+01
2.450000000000000000e+02,1.325920311152986031e+01
2.460000000000000000e+02,1.327709511101410733e+01
2.470000000000000000e+02,1.329463105417934266e+01
2.480000000000000000e+02,1.331181923787806909e+01
2.490000000000000000e+02,1.332866881388535418e+01
2.500000000000000000e+02,1.334518498371271633e+01
2.510000000000000000e+02,1.336137868924104488e+01
2.520000000000000000e+02,1.337725326755735189e+01
2.530000000000000000e+02,1.339281909747897181e+01
2.540000000000000000e+02,1.340808088850975466e+01
2.550000000000000000e+02,1.342304599927669351e+01
2.560000000000000000e+02,1.343771974280686976e+01
2.570000000000000000e+02,1.345210851625995119e+01
2.580000000000000000e+02,1.346622030794465452e+01
2.590000000000000000e+02,1.348005637304451376e+01
2.600000000000000000e+02,1.349362872712000971e+01
2.610000000000000000e+02,1.350693809617099284e+01
2.620000000000000000e+02,1.351999138488065988e+01
2.630000000000000000e+02,1.353279560988279329e+01
2.640000000000000000e+02,1.354535413675964151e+01
2.650000000000000000e+02,1.355767282928012918e+01
2.660000000000000000e+02,1.356975506958477418e+01
2.670000000000000000e+02,1.358160742969822898e+01
2.680000000000000000e+02,1.359323495717846697e+01
2.690000000000000000e+02,1.360464036767974960e+01
2.700000000000000000e+02,1.361583012726004682e+01
2.710000000000000000e+02,1.362680717325174129e+01
2.720000000000000000e+02,1.363757799337971655e+01
2.730000000000000000e+02,1.364814317251047626e+01
2.740000000000000000e+02,1.365850998890437218e+01
2.750000000000000000e+02,1.366867989618282486e+01
2.760000000000000000e+02,1.367865901587921940e+01
2.770000000000000000e+02,1.368845017018052701e+01
2.780000000000000000e+02,1.369805783516342501e+01
2.790000000000000000e+02,1.370748395595148494e+01
2.800000000000000000e+02,1.371673306664693115e+01
2.810000000000000000e+02,1.372580898053059606e+01
2.820000000000000000e+02,1.373471535428733503e+01
2.830000000000000000e+02,1.374345432642152076e+01
2.840000000000000000e+02,1.375203178886270372e+01
2.850000000000000000e+02,1.376044734928342983e+01
2.860000000000000000e+02,1.376870709016927030e+01
2.870000000000000000e+02,1.377681051711898519e+01
2.880000000000000000e+02,1.378476495186010276e+01
2.890000000000000000e+02,1.379257158109774650e+01
2.900000000000000000e+02,1.380023286800379267e+01
2.910000000000000000e+02,1.380775113330364157e+01
2.920000000000000000e+02,1.381513015118749443e+01
2.930000000000000000e+02,1.382237189485238638e+01
2.940000000000000000e+02,1.382947985161602311e+01
2.950000000000000000e+02,1.383645620297929923e+01
2.960000000000000000e+02,1.384330360315779274e+01
2.970000000000000000e+02,1.385002395666770525e+01
2.980000000000000000e+02,1.385662019039506809e+01
2.990000000000000000e+02,1.386309417820048040e+01
3.000000000000000000e+02,1.386944918040242847e+01
3.010000000000000000e+02,1.387568667627291141e+01
3.020000000000000000e+02,1.388180922747568680e+01
3.030000000000000000e+02,1.388781932043887934e+01
3.040000000000000000e+02,1.389371833615926377e+01
3.050000000000000000e+02,1.389950916061131281e+01
3.060000000000000000e+02,1.390519284900016217e+01
3.070000000000000000e+02,1.391077292854809677e+01
3.080000000000000000e+02,1.391624964657961527e+01
3.090000000000000000e+02,1.392162547999152622e+01
3.100000000000000000e+02,1.392690283341447355e+01
3.110000000000000000e+02,1.393208379858661772e+01
3.120000000000000000e+02,1.393716973396591818e+01
3.130000000000000000e+02,1.394216229138857521e+01
3.140000000000000000e+02,1.394706347539024982e+01
3.150000000000000000e+02,1.395187455972565083e+01
3.160000000000000000e+02,1.395659759250623466e+01
3.170000000000000000e+02,1.396123389236443124e+01
3.180000000000000000e+02,1.396578615169242532e+01
3.190000000000000000e+02,1.397025489362855311e+01
3.200000000000000000e+02,1.397464249526155911e+01
3.210000000000000000e+02,1.397894988722176990e+01
3.220000000000000000e+02,1.398317817476550395e+01
3.230000000000000000e+02,1.398732905618727429e+01
3.240000000000000000e+02,1.399140452222082764e+01
3.250000000000000000e+02,1.399540607845216300e+01
3.260000000000000000e+02,1.399933426904338596e+01
3.270000000000000000e+02,1.400319064954633852e+01
3.280000000000000000e+02,1.400697718757121102e+01
3.290000000000000000e+02,1.401069435357415394e+01
3.300000000000000000e+02,1.401434446268005019e+01
3.310000000000000000e+02,1.401792755954641834e+01
3.320000000000000000e+02,1.402144594947045064e+01
3.330000000000000000e+02,1.402489972937003415e+01
3.340000000000000000e+02,1.402829113565714003e+01
3.350000000000000000e+02,1.403162073400217480e+01
3.360000000000000000e+02,1.403489033539169739e+01
3.370000000000000000e+02,1.403809966687962962e+01
3.380000000000000000e+02,1.404125136384757333e+01
3.390000000000000000e+02,1.404434585964316362e+01
3.400000000000000000e+02,1.404738358548059374e+01
3.410000000000000000e+02,1.405036645290855368e+01
3.420000000000000000e+02,1.405329559840449249e+01
3.430000000000000000e+02,1.405617144435278831e+01
3.440000000000000000e+02,1.405899482582691462e+01
3.450000000000000000e+02,1.406176716740976573e+01
3.460000000000000000e+02,1.406448929854929197e+01
3.470000000000000000e+02,1.406716234212450800e+01
3.480000000000000000e+02,1.406978712261898856e+01
3.490000000000000000e+02,1.407236398940715638e+01
3.500000000000000000e+02,1.407489447220279111e+01
3.510000000000000000e+02,1.407737862085556024e+01
3.520000000000000000e+02,1.407981831477851564e+01
3.530000000000000000e+02,1.408221318681789214e+01
3.540000000000000000e+02,1.408456505283946747e+01
3.550000000000000000e+02,1.408687442770368037e+01
3.560000000000000000e+02,1.408914200174891285e+01
3.570000000000000000e+02,1.409136893530735257e+01
3.580000000000000000e+02,1.409355520785419813e+01
3.590000000000000000e+02,1.409570233002485296e+01
3.600000000000000000e+02,1.409781033748763512e+01
3.610000000000000000e+02,1.409988032509420464e+01
3.620000000000000000e+02,1.410191273828463565e+01
3.630000000000000000e+02,1.410390860986840345e+01
3.640000000000000000e+02,1.410586873559056187e+01
3.650000000000000000e+02,1.410779308635283869e+01
3.660000000000000000e+02,1.410968286734653887e+01
3.670000000000000000e+02,1.411153845898064496e+01
3.680000000000000000e+02,1.411336053461607598e+01
3.690000000000000000e+02,1.411514982519569372e+01
3.700000000000000000e+02,1.411690676676662193e+01
3.710000000000000000e+02,1.411863173577432562e+01
3.720000000000000000e+02,1.412032587110868320e+01
3.730000000000000000e+02,1.412198978188309084e+01
3.740000000000000000e+02,1.412362325467755575e+01
3.750000000000000000e+02,1.412522736663047063e+01
3.760000000000000000e+02,1.412680278293063552e+01
3.770000000000000000e+02,1.412834928815670388e+01
3.780000000000000000e+02,1.412986819115421788e+01
3.790000000000000000e+02,1.413135997864156579e+01
3.800000000000000000e+02,1.413282455054126885e+01
3.810000000000000000e+02,1.413426280266988222e+01
3.820000000000000000e+02,1.413567527831563986e+01
3.830000000000000000e+02,1.413706216861692333e+01
3.840000000000000000e+02,1.413842448413816832e+01
3.850000000000000000e+02,1.413976182920969649e+01
3.860000000000000000e+02,1.414107497898048571e+01
3.870000000000000000e+02,1.414236470777268373e+01
3.880000000000000000e+02,1.414363132096614173e+01
3.890000000000000000e+02,1.414487483095830811e+01
3.900000000000000000e+02,1.414609606887682069e+01
3.910000000000000000e+02,1.414729557262458925e+01
3.920000000000000000e+02,1.414847317780554370e+01
3.930000000000000000e+02,1.414962983082755521e+01
3.940000000000000000e+02,1.415076565886694127e+01
3.950000000000000000e+02,1.415188090573454360e+01
3.960000000000000000e+02,1.415297604867014236e+01
3.970000000000000000e+02,1.415405173974045283e+01
3.980000000000000000e+02,1.415510804622420160e+01
