# Time [s], Convective Heat Transfer Coefficient [W/m2K]
1.000000000000000000e+00,0.000000000000000000e+00
2.000000000000000000e+00,0.000000000000000000e+00
3.000000000000000000e+00,0.000000000000000000e+00
4.000000000000000000e+00,0.000000000000000000e+00
5.000000000000000000e+00,1.915079995362458862e-02
6.000000000000000000e+00,3.040000000141642594e-02
7.000000000000000000e+00,4.669921575117047530e-02
8.000000000000000000e+00,6.983945356160360662e-02
9.000000000000000000e+00,9.944041582974000315e-02
1.000000000000000000e+01,1.354736006811268212e-01
1.100000000000000000e+01,1.776320046209623471e-01
1.200000000000000000e+01,2.254955538181427355e-01
1.300000000000000000e+01,2.783945037889558050e-01
1.400000000000000000e+01,3.356203345725892184e-01
1.500000000000000000e+01,3.965445329247823669e-01
1.600000000000000000e+01,4.604488982517976337e-01
1.700000000000000000e+01,5.267577653094236423e-01
1.800000000000000000e+01,5.949375384414107293e-01
1.900000000000000000e+01,6.645199125385907735e-01
2.000000000000000000e+01,7.351109311863890383e-01
2.100000000000000000e+01,8.063622546790637502e-01
2.200000000000000000e+01,8.779855182810035741e-01
2.300000000000000000e+01,9.497423002352666233e-01
2.400000000000000000e+01,1.021427155450727264e+00
2.500000000000000000e+01,1.092868279015919875e+00
2.600000000000000000e+01,1.163932938260406891e+00
2.700000000000000000e+01,1.234497890087664196e+00
2.800000000000000000e+01,1.304471901970240211e+00
2.900000000000000000e+01,1.373780935514626211e+00
3.000000000000000000e+01,1.442363901333421738e+00
3.100000000000000000e+01,1.510171086064630908e+00
3.200000000000000000e+01,1.577164500573547734e+00
3.300000000000000000e+01,1.643317498306665847e+00
3.400000000000000000e+01,1.708606068634384467e+00
3.500000000000000000e+01,1.773015392977308702e+00
3.600000000000000000e+01,1.836539796441912564e+00
3.700000000000000000e+01,1.899170812583288459e+00
3.800000000000000000e+01,1.960910211540488612e+00
3.900000000000000000e+01,2.021755519722070460e+00
4.000000000000000000e+01,2.081715725232050396e+00
4.100000000000000000e+01,2.140796366373685533e+00
4.200000000000000000e+01,2.199005887634602363e+00
4.300000000000000000e+01,2.256354837065493335e+00
4.400000000000000000e+01,2.312851564392702119e+00
4.500000000000000000e+01,2.368509549830239092e+00
4.600000000000000000e+01,2.423342823833579462e+00
4.700000000000000000e+01,2.477362557696201062e+00
4.800000000000000000e+01,2.530584204261195680e+00
4.900000000000000000e+01,2.583022236759250578e+00
5.000000000000000000e+01,2.634687459073252747e+00
5.100000000000000000e+01,2.685598082200046477e+00
5.200000000000000000e+01,2.735768696495361141e+00
5.300000000000000000e+01,2.785212128777036167e+00
5.400000000000000000e+01,2.833943121140597210e+00
5.500000000000000000e+01,2.881976780023927098e+00
5.600000000000000000e+01,2.929324872611064112e+00
5.700000000000000000e+01,2.976004980972123182e+00
5.800000000000000000e+01,3.022029290290427994e+00
5.900000000000000000e+01,3.067410657817581487e+00
6.000000000000000000e+01,3.112162694163864263e+00
6.100000000000000000e+01,3.156299130129065489e+00
6.200000000000000000e+01,3.199831689580864502e+00
6.300000000000000000e+01,3.242773756662935991e+00
6.400000000000000000e+01,3.285137408184306551e+00
6.500000000000000000e+01,3.326934066817696767e+00
6.600000000000000000e+01,3.368176506070668541e+00
6.700000000000000000e+01,3.408876441882964237e+00
6.800000000000000000e+01,3.449045020308832310e+00
6.900000000000000000e+01,3.488693144659015033e+00
7.000000000000000000e+01,3.527831102655334394e+00
7.100000000000000000e+01,3.566469071771235289e+00
7.200000000000000000e+01,3.604617111573596766e+00
7.300000000000000000e+01,3.642285776140687048e+00
7.400000000000000000e+01,3.679484578752286073e+00
7.500000000000000000e+01,3.716223521408756447e+00
7.600000000000000000e+01,3.752511704848390917e+00
7.700000000000000000e+01,3.788358380943550596e+00
7.800000000000000000e+01,3.823772608036280829e+00
7.900000000000000000e+01,3.858762787415813023e+00
8.000000000000000000e+01,3.893336867494550102e+00
8.100000000000000000e+01,3.927504044809827732e+00
8.200000000000000000e+01,3.961269354302406231e+00
8.300000000000000000e+01,3.994642079325250617e+00
8.400000000000000000e+01,4.027630707332802373e+00
8.500000000000000000e+01,4.060242066143122663e+00
8.600000000000000000e+01,4.092484175897443066e+00
8.700000000000000000e+01,4.124363400132858182e+00
8.800000000000000000e+01,4.155887007634926356e+00
8.900000000000000000e+01,4.187060030090803409e+00
9.000000000000000000e+01,4.217889699142004289e+00
9.100000000000000000e+01,4.248382431712536267e+00
9.200000000000000000e+01,4.278545611735517618e+00
9.300000000000000000e+01,4.308384431129050007e+00
9.400000000000000000e+01,4.337905520795842129e+00
9.500000000000000000e+01,4.367113047011929261e+00
9.600000000000000000e+01,4.396012687951991182e+00
9.700000000000000000e+01,4.424610457791566809e+00
9.800000000000000000e+01,4.452912684220115658e+00
9.900000000000000000e+01,4.480924763765049335e+00
1.000000000000000000e+02,4.508650239441174712e+00
1.010000000000000000e+02,4.536093983924669892e+00
1.020000000000000000e+02,4.563261500757562317e+00
1.030000000000000000e+02,4.590158053414613804e+00
1.040000000000000000e+02,4.616789392821667448e+00
1.050000000000000000e+02,4.643157331394100140e+00
1.060000000000000000e+02,4.669267050162534183e+00
1.070000000000000000e+02,4.695124044640381911e+00
1.080000000000000000e+02,4.720731796645289080e+00
1.090000000000000000e+02,4.746095051977447632e+00
1.100000000000000000e+02,4.771216359664191664e+00
1.110000000000000000e+02,4.796100358765006177e+00
1.120000000000000000e+02,4.820751807303842895e+00
1.130000000000000000e+02,4.845173881136193295e+00
1.140000000000000000e+02,4.869370819971703845e+00
1.150000000000000000e+02,4.893345332979867734e+00
1.160000000000000000e+02,4.917100464211810795e+00
1.170000000000000000e+02,4.940640919131065623e+00
1.180000000000000000e+02,4.963970753795393875e+00
1.190000000000000000e+02,4.987091193340639883e+00
1.200000000000000000e+02,5.010006218097867503e+00
1.210000000000000000e+02,5.032719804454865553e+00
1.220000000000000000e+02,5.055234642868355444e+00
1.230000000000000000e+02,5.077554283327950557e+00
1.240000000000000000e+02,5.099680622509833228e+00
1.250000000000000000e+02,5.121616429260704706e+00
1.260000000000000000e+02,5.143365573072514074e+00
1.270000000000000000e+02,5.164931179211272649e+00
1.280000000000000000e+02,5.186314528353449305e+00
1.290000000000000000e+02,5.207518714671672377e+00
1.300000000000000000e+02,5.228546988388421468e+00
1.310000000000000000e+02,5.249402027754443978e+00
1.320000000000000000e+02,5.270086172596436747e+00
1.330000000000000000e+02,5.290601270359433173e+00
1.340000000000000000e+02,5.310949940122144497e+00
1.350000000000000000e+02,5.331134719673471523e+00
1.360000000000000000e+02,5.351159090817780850e+00
1.370000000000000000e+02,5.371023265195312035e+00
1.380000000000000000e+02,5.390730185386947149e+00
1.390000000000000000e+02,5.410282506565416760e+00
1.400000000000000000e+02,5.429682368918937740e+00
1.410000000000000000e+02,5.448932283524992037e+00
1.420000000000000000e+02,5.468033083734073152e+00
1.430000000000000000e+02,5.486986821673880854e+00
1.440000000000000000e+02,5.505796378969806781e+00
1.450000000000000000e+02,5.524463636243686082e+00
1.460000000000000000e+02,5.542991069037416452e+00
1.470000000000000000e+02,5.561378700486264925e+00
1.480000000000000000e+02,5.579629483472440477e+00
1.490000000000000000e+02,5.597745133620583680e+00
1.500000000000000000e+02,5.615728693424567375e+00
1.510000000000000000e+02,5.633579806120413203e+00
1.520000000000000000e+02,5.651300870400909560e+00
1.530000000000000000e+02,5.668893712735630253e+00
1.540000000000000000e+02,5.686360075895747990e+00
1.550000000000000000e+02,5.703702485282482471e+00
1.560000000000000000e+02,5.720920970828619723e+00
1.570000000000000000e+02,5.738017443626341141e+00
1.580000000000000000e+02,5.754993519632456866e+00
1.590000000000000000e+02,5.771851231274085059e+00
1.600000000000000000e+02,5.788592421690152534e+00
1.610000000000000000e+02,5.805216874698953866e+00
1.620000000000000000e+02,5.821726932449064584e+00
1.630000000000000000e+02,5.838123954585189068e+00
1.640000000000000000e+02,5.854409575433195734e+00
1.650000000000000000e+02,5.870585153107701792e+00
1.660000000000000000e+02,5.886652216381233593e+00
1.670000000000000000e+02,5.902611015465866195e+00
1.680000000000000000e+02,5.918463363565493296e+00
1.690000000000000000e+02,5.934210933267260124e+00
1.700000000000000000e+02,5.949854929794518021e+00
1.710000000000000000e+02,5.965396498110930423e+00
1.720000000000000000e+02,5.980836070073333843e+00
1.730000000000000000e+02,5.996175433917853681e+00
1.740000000000000000e+02,6.011415756272494804e+00
1.750000000000000000e+02,6.026558242601380400e+00
1.760000000000000000e+02,6.041604232558057674e+00
1.770000000000000000e+02,6.056554718109350866e+00
1.780000000000000000e+02,6.071410193394207511e+00
1.790000000000000000e+02,6.086171867756451803e+00
1.800000000000000000e+02,6.100840925190446740e+00
1.810000000000000000e+02,6.115418744173680921e+00
1.820000000000000000e+02,6.129906270131484369e+00
1.830000000000000000e+02,6.144304552851276746e+00
1.840000000000000000e+02,6.158613787372701154e+00
1.850000000000000000e+02,6.172835269198453823e+00
1.860000000000000000e+02,6.186970298790320122e+00
1.870000000000000000e+02,6.201019664072322080e+00
1.880000000000000000e+02,6.214984591563936789e+00
1.890000000000000000e+02,6.228866133249614911e+00
1.900000000000000000e+02,6.242664269425004520e+00
1.910000000000000000e+02,6.256380025710689630e+00
1.920000000000000000e+02,6.270014527202336652e+00
1.930000000000000000e+02,6.283568759240698576e+00
1.940000000000000000e+02,6.297043334342399490e+00
1.950000000000000000e+02,6.310439646647385104e+00
1.960000000000000000e+02,6.323758128434060488e+00
1.970000000000000000e+02,6.337000019367108550e+00
1.980000000000000000e+02,6.350164679070053886e+00
1.990000000000000000e+02,6.363254020239192954e+00
2.000000000000000000e+02,6.376268425513009319e+00
2.010000000000000000e+02,6.389208699939778136e+00
2.020000000000000000e+02,6.402076062500800191e+00
2.030000000000000000e+02,6.414871170738019046e+00
2.040000000000000000e+02,6.427594075314980948e+00
2.050000000000000000e+02,6.440246489820956377e+00
2.060000000000000000e+02,6.452827738161199811e+00
2.070000000000000000e+02,6.465339113636328072e+00
2.080000000000000000e+02,6.477781330286388695e+00
2.090000000000000000e+02,6.490155367781233586e+00
2.100000000000000000e+02,6.502461635886422897e+00
2.110000000000000000e+02,6.514700812702288069e+00
2.120000000000000000e+02,6.526874114468753874e+00
2.130000000000000000e+02,6.538981369257297338e+00
2.140000000000000000e+02,6.551024043019998189e+00
2.150000000000000000e+02,6.563001133088787853e+00
2.160000000000000000e+02,6.574914357989245062e+00
2.170000000000000000e+02,6.586764330964754777e+00
2.180000000000000000e+02,6.598550848738471863e+00
2.190000000000000000e+02,6.610275585013217992e+00
2.200000000000000000e+02,6.621938853917473722e+00
2.210000000000000000e+02,6.633540698029363192e+00
2.220000000000000000e+02,6.645082218594637880e+00
2.230000000000000000e+02,6.656564236330075879e+00
2.240000000000000000e+02,6.667987296328163893e+00
2.250000000000000000e+02,6.679350623267263920e+00
2.260000000000000000e+02,6.690655020243608142e+00
2.270000000000000000e+02,6.701901539072118830e+00
2.280000000000000000e+02,6.713090437191037374e+00
2.290000000000000000e+02,6.724222744273982144e+00
2.300000000000000000e+02,6.735298185185058628e+00
2.310000000000000000e+02,6.746318030599125493e+00
2.320000000000000000e+02,6.757282251828599762e+00
2.330000000000000000e+02,6.768191330670351391e+00
2.340000000000000000e+02,6.779045996488112458e+00
2.350000000000000000e+02,6.789846968393159266e+00
2.360000000000000000e+02,6.800594196122706769e+00
2.370000000000000000e+02,6.811288133764564989e+00
2.380000000000000000e+02,6.821929983404194431e+00
2.390000000000000000e+02,6.832520429799514794e+00
2.400000000000000000e+02,6.843058898500752107e+00
2.410000000000000000e+02,6.853545818115136967e+00
2.420000000000000000e+02,6.863981859610141179e+00
2.430000000000000000e+02,6.874366941839898715e+00
2.440000000000000000e+02,6.884702218615084135e+00
2.450000000000000000e+02,6.894987351730362590e+00
2.460000000000000000e+02,6.905223479180210511e+00
2.470000000000000000e+02,6.915410500814937578e+00
2.480000000000000000e+02,6.925549049048502326e+00
2.490000000000000000e+02,6.935639504772373343e+00
2.500000000000000000e+02,6.945682001035561548e+00
2.510000000000000000e+02,6.955677394436611038e+00
2.520000000000000000e+02,6.965625565960709586e+00
2.530000000000000000e+02,6.975527359506703107e+00
2.540000000000000000e+02,6.985382649092148455e+00
2.550000000000000000e+02,6.995192266325187092e+00
2.560000000000000000e+02,7.004956078557667887e+00
2.570000000000000000e+02,7.014674905498218926e+00
2.580000000000000000e+02,7.024348608120187798e+00
2.590000000000000000e+02,7.033977994607057305e+00
2.600000000000000000e+02,7.043563155779548168e+00
2.610000000000000000e+02,7.053104416111357189e+00
2.620000000000000000e+02,7.062602330585940891e+00
2.630000000000000000e+02,7.072056979468977822e+00
2.640000000000000000e+02,7.081468674950406772e+00
2.650000000000000000e+02,7.090837958078489933e+00
2.660000000000000000e+02,7.100164899155006815e+00
2.670000000000000000e+02,7.109450030312439495e+00
2.680000000000000000e+02,7.118693646522168628e+00
2.690000000000000000e+02,7.127896039091012881e+00
2.700000000000000000e+02,7.137056806289561628e+00
2.710000000000000000e+02,7.146177612905687759e+00
2.720000000000000000e+02,7.155257591124691174e+00
2.730000000000000000e+02,7.164297477794714375e+00
2.740000000000000000e+02,7.173297546773861555e+00
2.750000000000000000e+02,7.182257841680446120e+00
2.760000000000000000e+02,7.191179310585881446e+00
2.770000000000000000e+02,7.200061536790928862e+00
2.780000000000000000e+02,7.208905008154854244e+00
2.790000000000000000e+02,7.217709982507986233e+00
2.800000000000000000e+02,7.226476938788479742e+00
2.810000000000000000e+02,7.235205679914566979e+00
2.820000000000000000e+02,7.243896902494967982e+00
2.830000000000000000e+02,7.252551073399037485e+00
2.840000000000000000e+02,7.261167544437002519e+00
2.850000000000000000e+02,7.269747666519248419e+00
2.860000000000000000e+02,7.278290788531560196e+00
2.870000000000000000e+02,7.286797587733191861e+00
2.880000000000000000e+02,7.295268074724805984e+00
2.890000000000000000e+02,7.303702698404285876e+00
2.900000000000000000e+02,7.312101684109917343e+00
2.910000000000000000e+02,7.320465473078793472e+00
2.920000000000000000e+02,7.328793848229516072e+00
2.930000000000000000e+02,7.337087028881060569e+00
2.940000000000000000e+02,7.345345665828249437e+00
2.950000000000000000e+02,7.353569754140288239e+00
2.960000000000000000e+02,7.361759504475648086e+00
2.970000000000000000e+02,7.369915556210433927e+00
2.980000000000000000e+02,7.378037467420878848e+00
2.990000000000000000e+02,7.386126301637715663e+00
3.000000000000000000e+02,7.394181399826868173e+00
3.010000000000000000e+02,7.402203390106536496e+00
3.020000000000000000e+02,7.410192681555530569e+00
3.030000000000000000e+02,7.418149041147731992e+00
3.040000000000000000e+02,7.426072661977788592e+00
3.050000000000000000e+02,7.433963946899705633e+00
3.060000000000000000e+02,7.441823294947097267e+00
3.070000000000000000e+02,7.449650468605521603e+00
3.080000000000000000e+02,7.457446073906510264e+00
3.090000000000000000e+02,7.465209871229222749e+00
3.100000000000000000e+02,7.472942670631783635e+00
3.110000000000000000e+02,7.480643601620053929e+00
3.120000000000000000e+02,7.488314305542213667e+00
3.130000000000000000e+02,7.495953909979957253e+00
3.140000000000000000e+02,7.503563420423446040e+00
3.150000000000000000e+02,7.511142381433029591e+00
3.160000000000000000e+02,7.518690962093712571e+00
3.170000000000000000e+02,7.526209536427919566e+00
3.180000000000000000e+02,7.533698268866730885e+00
3.190000000000000000e+02,7.541157322182331590e+00
3.200000000000000000e+02,7.548586857510535708e+00
3.210000000000000000e+02,7.555987239407487621e+00
3.220000000000000000e+02,7.563357806063431887e+00
3.230000000000000000e+02,7.570699942845457997e+00
3.240000000000000000e+02,7.578013189465870880e+00
3.250000000000000000e+02,7.585297902664222214e+00
3.260000000000000000e+02,7.592554436116019545e+00
3.270000000000000000e+02,7.599782532444076644e+00
3.280000000000000000e+02,7.606982138195248488e+00
3.290000000000000000e+02,7.614154007644878597e+00
3.300000000000000000e+02,7.621298284474413265e+00
3.310000000000000000e+02,7.628414306343881179e+00
3.320000000000000000e+02,7.635503423385372024e+00
3.330000000000000000e+02,7.642564971268753560e+00
3.340000000000000000e+02,7.649599690587728595e+00
3.350000000000000000e+02,7.656607317796882306e+00
3.360000000000000000e+02,7.663587989612973495e+00
3.370000000000000000e+02,7.670541841458903498e+00
3.380000000000000000e+02,7.677469206077415009e+00
3.390000000000000000e+02,7.684369818801472185e+00
3.400000000000000000e+02,7.691244405998986622e+00
3.410000000000000000e+02,7.698092898432538078e+00
3.420000000000000000e+02,7.704915621446010832e+00
3.430000000000000000e+02,7.711712307295007562e+00
3.440000000000000000e+02,7.718483475807979666e+00
3.450000000000000000e+02,7.725228662152601622e+00
3.460000000000000000e+02,7.731948579307717395e+00
3.470000000000000000e+02,7.738643348624092866e+00
3.480000000000000000e+02,7.745312895217116633e+00
3.490000000000000000e+02,7.751957728848057450e+00
3.500000000000000000e+02,7.758577577664979685e+00
3.510000000000000000e+02,7.765172559680600273e+00
3.520000000000000000e+02,7.771743179462291984e+00
3.530000000000000000e+02,7.778288970507693634e+00
3.540000000000000000e+02,7.784810821298551176e+00
3.550000000000000000e+02,7.791308071437177851e+00
3.560000000000000000e+02,7.797781797316090113e+00
3.570000000000000000e+02,7.804231145972274852e+00
3.580000000000000000e+02,7.810656996761650817e+00
3.590000000000000000e+02,7.817058882049111368e+00
3.600000000000000000e+02,7.823437102037789082e+00
3.610000000000000000e+02,7.829792145679993709e+00
3.620000000000000000e+02,7.836123735980556226e+00
3.630000000000000000e+02,7.842432358819025673e+00
3.640000000000000000e+02,7.848717546598166450e+00
3.650000000000000000e+02,7.854979972813029399e+00
3.660000000000000000e+02,7.861219359336338641e+00
3.670000000000000000e+02,7.867436186065992487e+00
3.680000000000000000e+02,7.873630363175047719e+00
3.690000000000000000e+02,7.879802366768100086e+00
3.700000000000000000e+02,7.885951728581230391e+00
3.710000000000000000e+02,7.892078546876367007e+00
3.720000000000000000e+02,7.898183482041849501e+00
3.730000000000000000e+02,7.904266440722428122e+00
3.740000000000000000e+02,7.910327329928066753e+00
3.750000000000000000e+02,7.916366804192720430e+00
3.760000000000000000e+02,7.922383835287842402e+00
3.770000000000000000e+02,7.928379635718889595e+00
3.780000000000000000e+02,7.934354108844344999e+00
3.790000000000000000e+02,7.940307158406787025e+00
3.800000000000000000e+02,7.946238688524642768e+00
3.810000000000000000e+02,7.952149159027555925e+00
3.820000000000000000e+02,7.958038287455706516e+00
3.830000000000000000e+02,7.963907084797078539e+00
3.840000000000000000e+02,7.969754712928875939e+00
3.850000000000000000e+02,7.975581442616674899e+00
3.860000000000000000e+02,7.981387359089711531e+00
3.870000000000000000e+02,7.987172730383565344e+00
3.880000000000000000e+02,7.992938189254490844e+00
3.890000000000000000e+02,7.998682900901478376e+00
3.900000000000000000e+02,8.004407131356655825e+00
3.910000000000000000e+02,8.010111144942891670e+00
3.920000000000000000e+02,8.015795386482100326e+00
3.930000000000000000e+02,8.021460116171898136e+00
3.940000000000000000e+02,8.027104139185128773e+00
3.950000000000000000e+02,8.032728807086494172e+00
3.960000000000000000e+02,8.038333470877816467e+00
3.970000000000000000e+02,8.043918932317460246e+00
3.980000000000000000e+02,8.049484543230821743e+00
