# Time [s], Convective Heat Transfer Coefficient [W/m2K]
1.000000000000000000e+00,0.000000000000000000e+00
2.000000000000000000e+00,0.000000000000000000e+00
3.000000000000000000e+00,0.000000000000000000e+00
4.000000000000000000e+00,0.000000000000000000e+00
5.000000000000000000e+00,1.915079995362458862e-02
6.000000000000000000e+00,2.762023300960968902e-02
7.000000000000000000e+00,4.559999999962457279e-02
8.000000000000000000e+00,6.811735214770563152e-02
9.000000000000000000e+00,9.688952853649571151e-02
1.000000000000000000e+01,1.323401329058311038e-01
1.100000000000000000e+01,1.738804897403691818e-01
1.200000000000000000e+01,2.210816785919332284e-01
1.300000000000000000e+01,2.732555335718964695e-01
1.400000000000000000e+01,3.298366321585338157e-01
1.500000000000000000e+01,3.901054158168191788e-01
1.600000000000000000e+01,4.534012174543824991e-01
1.700000000000000000e+01,5.191429948263778238e-01
1.800000000000000000e+01,5.867830528136543933e-01
1.900000000000000000e+01,6.558692350895573009e-01
2.000000000000000000e+01,7.259822062032894596e-01
2.100000000000000000e+01,7.967957406373262774e-01
2.200000000000000000e+01,8.680079302155860876e-01
2.300000000000000000e+01,9.393798563755124675e-01
2.400000000000000000e+01,1.010703034020948188e+00
2.500000000000000000e+01,1.081807935933283060e+00
2.600000000000000000e+01,1.152553591183392179e+00
2.700000000000000000e+01,1.222819104896028630e+00
2.800000000000000000e+01,1.292513124902369137e+00
2.900000000000000000e+01,1.361556928090335239e+00
3.000000000000000000e+01,1.429892660488832901e+00
3.100000000000000000e+01,1.497461780091149386e+00
3.200000000000000000e+01,1.564231965472119956e+00
3.300000000000000000e+01,1.630173205892258448e+00
3.400000000000000000e+01,1.695259226571602440e+00
3.500000000000000000e+01,1.759477620672271536e+00
3.600000000000000000e+01,1.822819829159027405e+00
3.700000000000000000e+01,1.885275703721934981e+00
3.800000000000000000e+01,1.946848238709693701e+00
3.900000000000000000e+01,2.007533137093132414e+00
4.000000000000000000e+01,2.067340244233808910e+00
4.100000000000000000e+01,2.126270758440874431e+00
4.200000000000000000e+01,2.184337048224841649e+00
4.300000000000000000e+01,2.241546513661705209e+00
4.400000000000000000e+01,2.297909791588579331e+00
4.500000000000000000e+01,2.353439738373030110e+00
4.600000000000000000e+01,2.408147448946158953e+00
4.700000000000000000e+01,2.462047808187305620e+00
4.800000000000000000e+01,2.515152567806729689e+00
4.900000000000000000e+01,2.567475572766338754e+00
5.000000000000000000e+01,2.619029960524679623e+00
5.100000000000000000e+01,2.669834865486706565e+00
5.200000000000000000e+01,2.719900096676699963e+00
5.300000000000000000e+01,2.769240772233137360e+00
5.400000000000000000e+01,2.817870251632310641e+00
5.500000000000000000e+01,2.865805733743405970e+00
5.600000000000000000e+01,2.913059678257202911e+00
5.700000000000000000e+01,2.959645666784395335e+00
5.800000000000000000e+01,3.005576857486276232e+00
5.900000000000000000e+01,3.050866855464347882e+00
6.000000000000000000e+01,3.095528850453056258e+00
6.100000000000000000e+01,3.139576803166714836e+00
6.200000000000000000e+01,3.183021936821750941e+00
6.300000000000000000e+01,3.225880137155813010e+00
6.400000000000000000e+01,3.268161226586958623e+00
6.500000000000000000e+01,3.309877591930867613e+00
6.600000000000000000e+01,3.351040499773364711e+00
6.700000000000000000e+01,3.391661215570858978e+00
6.800000000000000000e+01,3.431751372371083519e+00
6.900000000000000000e+01,3.471321542954847406e+00
7.000000000000000000e+01,3.510382473659992009e+00
7.100000000000000000e+01,3.548945508884346012e+00
7.200000000000000000e+01,3.587020325195796389e+00
7.300000000000000000e+01,3.624616957540339968e+00
7.400000000000000000e+01,3.661745834442768022e+00
7.500000000000000000e+01,3.698415499885154389e+00
7.600000000000000000e+01,3.734634293407155692e+00
7.700000000000000000e+01,3.770410769068205603e+00
7.800000000000000000e+01,3.805754957798588300e+00
7.900000000000000000e+01,3.840675287709432784e+00
8.000000000000000000e+01,3.875180355199337345e+00
8.100000000000000000e+01,3.909278289723312927e+00
8.200000000000000000e+01,3.942977388996693033e+00
8.300000000000000000e+01,3.976284988048476965e+00
8.400000000000000000e+01,4.009209280270748188e+00
8.500000000000000000e+01,4.041757093434178216e+00
8.600000000000000000e+01,4.073935050781194889e+00
8.700000000000000000e+01,4.105749512888200670e+00
8.800000000000000000e+01,4.137208645188436229e+00
8.900000000000000000e+01,4.168318843978840782e+00
9.000000000000000000e+01,4.199086655732997997e+00
9.100000000000000000e+01,4.229518698003127852e+00
9.200000000000000000e+01,4.259621587451500879e+00
9.300000000000000000e+01,4.289398629427757292e+00
9.400000000000000000e+01,4.318857886105839761e+00
9.500000000000000000e+01,4.348004982395374363e+00
9.600000000000000000e+01,4.376845282056344821e+00
9.700000000000000000e+01,4.405384928488276230e+00
9.800000000000000000e+01,4.433629721927936806e+00
9.900000000000000000e+01,4.461582023322642421e+00
1.000000000000000000e+02,4.489248806333362651e+00
1.010000000000000000e+02,4.516635236304456846e+00
1.020000000000000000e+02,4.543746082096836503e+00
1.030000000000000000e+02,4.570586355137015389e+00
1.040000000000000000e+02,4.597160907101563332e+00
1.050000000000000000e+02,4.623472248177759703e+00
1.060000000000000000e+02,4.649525930067652801e+00
1.070000000000000000e+02,4.675327003475549859e+00
1.080000000000000000e+02,4.700879727660487006e+00
1.090000000000000000e+02,4.726188032054024823e+00
1.100000000000000000e+02,4.751254444488105300e+00
1.110000000000000000e+02,4.776084012457466166e+00
1.120000000000000000e+02,4.800681126016867140e+00
1.130000000000000000e+02,4.825049651873672296e+00
1.140000000000000000e+02,4.849193059137324902e+00
1.150000000000000000e+02,4.873113502234932781e+00
1.160000000000000000e+02,4.896815692145517041e+00
1.170000000000000000e+02,4.920303389375511927e+00
1.180000000000000000e+02,4.943579880242440439e+00
1.190000000000000000e+02,4.966648141422122187e+00
1.200000000000000000e+02,4.989511042255495354e+00
1.210000000000000000e+02,5.012172374712257295e+00
1.220000000000000000e+02,5.034635334481698088e+00
1.230000000000000000e+02,5.056903691956625480e+00
1.240000000000000000e+02,5.078977774126923528e+00
1.250000000000000000e+02,5.100862350822118252e+00
1.260000000000000000e+02,5.122560557562237271e+00
1.270000000000000000e+02,5.144074937847160633e+00
1.280000000000000000e+02,5.165408564669670355e+00
1.290000000000000000e+02,5.186562190511695647e+00
1.300000000000000000e+02,5.207539779886648290e+00
1.310000000000000000e+02,5.228344141798012323e+00
1.320000000000000000e+02,5.248978037905325245e+00
1.330000000000000000e+02,5.269443931685860782e+00
1.340000000000000000e+02,5.289742494069518131e+00
1.350000000000000000e+02,5.309877612166573613e+00
1.360000000000000000e+02,5.329851694539000206e+00
1.370000000000000000e+02,5.349666912731819934e+00
1.380000000000000000e+02,5.369325859823901759e+00
1.390000000000000000e+02,5.388828995786181686e+00
1.400000000000000000e+02,5.408179446661625533e+00
1.410000000000000000e+02,5.427380009060840393e+00
1.420000000000000000e+02,5.446432372898749819e+00
1.430000000000000000e+02,5.465338335705079764e+00
1.440000000000000000e+02,5.484099565494793715e+00
1.450000000000000000e+02,5.502718223814501819e+00
1.460000000000000000e+02,5.521197102951823865e+00
1.470000000000000000e+02,5.539537392792476922e+00
1.480000000000000000e+02,5.557740855911530886e+00
1.490000000000000000e+02,5.575809168943451688e+00
1.500000000000000000e+02,5.593744037721303464e+00
1.510000000000000000e+02,5.611547865629391119e+00
1.520000000000000000e+02,5.629221995645564469e+00
1.530000000000000000e+02,5.646768432335856680e+00
1.540000000000000000e+02,5.664187559436406616e+00
1.550000000000000000e+02,5.681481960907709627e+00
1.560000000000000000e+02,5.698653578988670532e+00
1.570000000000000000e+02,5.715703697872762667e+00
1.580000000000000000e+02,5.732633711384398367e+00
1.590000000000000000e+02,5.749444588673181755e+00
1.600000000000000000e+02,5.766138365335169880e+00
1.610000000000000000e+02,5.782716537621735320e+00
1.620000000000000000e+02,5.799180843772563598e+00
1.630000000000000000e+02,5.815532080552335614e+00
1.640000000000000000e+02,5.831771953888459592e+00
1.650000000000000000e+02,5.847901000016415551e+00
1.660000000000000000e+02,5.863921545331043816e+00
1.670000000000000000e+02,5.879834847624794136e+00
1.680000000000000000e+02,5.895641966992998029e+00
1.690000000000000000e+02,5.911344575176911142e+00
1.700000000000000000e+02,5.926942573607162146e+00
1.710000000000000000e+02,5.942437918780956174e+00
1.720000000000000000e+02,5.957832227587206653e+00
1.730000000000000000e+02,5.973126655015396302e+00
1.740000000000000000e+02,5.988321938700383207e+00
1.750000000000000000e+02,6.003420195893040656e+00
1.760000000000000000e+02,6.018420720119005196e+00
1.770000000000000000e+02,6.033325711044019712e+00
1.780000000000000000e+02,6.048135946987551748e+00
1.790000000000000000e+02,6.062853112606623185e+00
1.800000000000000000e+02,6.077478129119501915e+00
1.810000000000000000e+02,6.092011929713522456e+00
1.820000000000000000e+02,6.106455365154071835e+00
1.830000000000000000e+02,6.120808893331055600e+00
1.840000000000000000e+02,6.135073583665547226e+00
1.850000000000000000e+02,6.149251226849028029e+00
1.860000000000000000e+02,6.163342377063272259e+00
1.870000000000000000e+02,6.177348098092983797e+00
1.880000000000000000e+02,6.191269402198516403e+00
1.890000000000000000e+02,6.205107038547729381e+00
1.900000000000000000e+02,6.218861317513132647e+00
1.910000000000000000e+02,6.232533386034601719e+00
1.920000000000000000e+02,6.246124429296041392e+00
1.930000000000000000e+02,6.259635401141954603e+00
1.940000000000000000e+02,6.273066969654728986e+00
1.950000000000000000e+02,6.286420263835427846e+00
1.960000000000000000e+02,6.299695654587472049e+00
1.970000000000000000e+02,6.312894298075703681e+00
1.980000000000000000e+02,6.326016071844190236e+00
1.990000000000000000e+02,6.339062339563546367e+00
2.000000000000000000e+02,6.352033860758064421e+00
2.010000000000000000e+02,6.364931670035006483e+00
2.020000000000000000e+02,6.377756323368672042e+00
2.030000000000000000e+02,6.390508653010211759e+00
2.040000000000000000e+02,6.403189562198378759e+00
2.050000000000000000e+02,6.415799540381573074e+00
2.060000000000000000e+02,6.428338614708196452e+00
2.070000000000000000e+02,6.440808080300018723e+00
2.080000000000000000e+02,6.453208648732000619e+00
2.090000000000000000e+02,6.465540459288810382e+00
2.100000000000000000e+02,6.477805042618995479e+00
2.110000000000000000e+02,6.490002793309038509e+00
2.120000000000000000e+02,6.502133821877443154e+00
2.130000000000000000e+02,6.514199339341505635e+00
2.140000000000000000e+02,6.526199987904191424e+00
2.150000000000000000e+02,6.538136125293946499e+00
2.160000000000000000e+02,6.550008921368809744e+00
2.170000000000000000e+02,6.561817624826476347e+00
2.180000000000000000e+02,6.573563119307329394e+00
2.190000000000000000e+02,6.585246814530707482e+00
2.200000000000000000e+02,6.596868754194329831e+00
2.210000000000000000e+02,6.608429784380224881e+00
2.220000000000000000e+02,6.619930471132304817e+00
2.230000000000000000e+02,6.631371371553912653e+00
2.240000000000000000e+02,6.642752768715276090e+00
2.250000000000000000e+02,6.654075469501331774e+00
2.260000000000000000e+02,6.665340005302200055e+00
2.270000000000000000e+02,6.676546899308348770e+00
2.280000000000000000e+02,6.687696404951598339e+00
2.290000000000000000e+02,6.698789293000703360e+00
2.300000000000000000e+02,6.709826063039355581e+00
2.310000000000000000e+02,6.720806429638248147e+00
2.320000000000000000e+02,6.731731143349053426e+00
2.330000000000000000e+02,6.742600944016479581e+00
2.340000000000000000e+02,6.753416561010726404e+00
2.350000000000000000e+02,6.764178201760537412e+00
2.360000000000000000e+02,6.774886325169374501e+00
2.370000000000000000e+02,6.785541637671832049e+00
2.380000000000000000e+02,6.796144075622644998e+00
2.390000000000000000e+02,6.806694838561123007e+00
2.400000000000000000e+02,6.817193850920804543e+00
2.410000000000000000e+02,6.827641539418417338e+00
2.420000000000000000e+02,6.838038324698629822e+00
2.430000000000000000e+02,6.848384871045302802e+00
2.440000000000000000e+02,6.858681336218345415e+00
2.450000000000000000e+02,6.868928371465073290e+00
2.460000000000000000e+02,6.879126124738926151e+00
2.470000000000000000e+02,6.889274988074784112e+00
2.480000000000000000e+02,6.899375839935197874e+00
2.490000000000000000e+02,6.909428566945146954e+00
2.500000000000000000e+02,6.919433545257248852e+00
2.510000000000000000e+02,6.929391389705162219e+00
2.520000000000000000e+02,6.939302221130608572e+00
2.530000000000000000e+02,6.949166400653707498e+00
2.540000000000000000e+02,6.958984768006243549e+00
2.550000000000000000e+02,6.968757188572646477e+00
2.560000000000000000e+02,6.978484249642794346e+00
2.570000000000000000e+02,6.988166291559376297e+00
2.580000000000000000e+02,6.997803411157176967e+00
2.590000000000000000e+02,7.007396418690650108e+00
2.600000000000000000e+02,7.016944926160681106e+00
2.610000000000000000e+02,7.026449971708990105e+00
2.620000000000000000e+02,7.035911635747848614e+00
2.630000000000000000e+02,7.045330233004940546e+00
2.640000000000000000e+02,7.054706074199901700e+00
2.650000000000000000e+02,7.064039231527083018e+00
2.660000000000000000e+02,7.073330711656672598e+00
2.670000000000000000e+02,7.082580109934613510e+00
2.680000000000000000e+02,7.091787956314031582e+00
2.690000000000000000e+02,7.100954774639451905e+00
2.700000000000000000e+02,7.110080619642734412e+00
2.710000000000000000e+02,7.119165775862669854e+00
2.720000000000000000e+02,7.128210524344440913e+00
2.730000000000000000e+02,7.137215832100846313e+00
2.740000000000000000e+02,7.146180822053622705e+00
2.750000000000000000e+02,7.155106454542855765e+00
2.760000000000000000e+02,7.163992995522734830e+00
2.770000000000000000e+02,7.172840480236349237e+00
2.780000000000000000e+02,7.181649623921227743e+00
2.790000000000000000e+02,7.190420455038378122e+00
2.800000000000000000e+02,7.199153227100316244e+00
2.810000000000000000e+02,7.207847965314252647e+00
2.820000000000000000e+02,7.216504918889078191e+00
2.830000000000000000e+02,7.225125231088278532e+00
2.840000000000000000e+02,7.233707796684150537e+00
2.850000000000000000e+02,7.242254198588593539e+00
2.860000000000000000e+02,7.250763777718034930e+00
2.870000000000000000e+02,7.259237213502784059e+00
2.880000000000000000e+02,7.267674513678583637e+00
2.890000000000000000e+02,7.276075906534140714e+00
2.900000000000000000e+02,7.284442058979870183e+00
2.910000000000000000e+02,7.292772530835903488e+00
2.920000000000000000e+02,7.301068203069088547e+00
2.930000000000000000e+02,7.309328852666647336e+00
2.940000000000000000e+02,7.317555132619078861e+00
2.950000000000000000e+02,7.325747253358404265e+00
2.960000000000000000e+02,7.333905205357476476e+00
2.970000000000000000e+02,7.342029413047653108e+00
2.980000000000000000e+02,7.350119646634306392e+00
2.990000000000000000e+02,7.358176542726434732e+00
3.000000000000000000e+02,7.366199868996842426e+00
3.010000000000000000e+02,7.374190471047762152e+00
3.020000000000000000e+02,7.382148112729359113e+00
3.030000000000000000e+02,7.390072773850644872e+00
3.040000000000000000e+02,7.397965289518540821e+00
3.050000000000000000e+02,7.405825206724323095e+00
3.060000000000000000e+02,7.413653566765808556e+00
3.070000000000000000e+02,7.421449701488239015e+00
3.080000000000000000e+02,7.429214856762205166e+00
3.090000000000000000e+02,7.436948574480187979e+00
3.100000000000000000e+02,7.444650822381682964e+00
3.110000000000000000e+02,7.452322200417739850e+00
3.120000000000000000e+02,7.459962672191613464e+00
3.130000000000000000e+02,7.467572201228377615e+00
3.140000000000000000e+02,7.475151798434603201e+00
3.150000000000000000e+02,7.482700584544071276e+00
3.160000000000000000e+02,7.490219564856979595e+00
3.170000000000000000e+02,7.497708695088296516e+00
3.180000000000000000e+02,7.505167723133039814e+00
3.190000000000000000e+02,7.512597850392716659e+00
3.200000000000000000e+02,7.519998405431984168e+00
3.210000000000000000e+02,7.527369961324456682e+00
3.220000000000000000e+02,7.534712467742262554e+00
3.230000000000000000e+02,7.542025668616818557e+00
3.240000000000000000e+02,7.549310541898770488e+00
3.250000000000000000e+02,7.556566827658899754e+00
3.260000000000000000e+02,7.563794676855906118e+00
3.270000000000000000e+02,7.570994238968101975e+00
3.280000000000000000e+02,7.578166273521460106e+00
3.290000000000000000e+02,7.585310720185322708e+00
3.300000000000000000e+02,7.592426706492524602e+00
3.310000000000000000e+02,7.599515595792659894e+00
3.320000000000000000e+02,7.606577122444939221e+00
3.330000000000000000e+02,7.613611426359709000e+00
3.340000000000000000e+02,7.620618646111070760e+00
3.350000000000000000e+02,7.627598717751289392e+00
3.360000000000000000e+02,7.634552581677512606e+00
3.370000000000000000e+02,7.641479767856668381e+00
3.380000000000000000e+02,7.648380809922076473e+00
3.390000000000000000e+02,7.655254839118613930e+00
3.400000000000000000e+02,7.662102986565926699e+00
3.410000000000000000e+02,7.668925180787296902e+00
3.420000000000000000e+02,7.675721549223427864e+00
3.430000000000000000e+02,7.682492416474144825e+00
3.440000000000000000e+02,7.689237708604268917e+00
3.450000000000000000e+02,7.695957549568968936e+00
3.460000000000000000e+02,7.702652062187804738e+00
3.470000000000000000e+02,7.709321368158628118e+00
3.480000000000000000e+02,7.715965194830103790e+00
3.490000000000000000e+02,7.722584841420943036e+00
3.500000000000000000e+02,7.729179834468170363e+00
3.510000000000000000e+02,7.735749899099759297e+00
3.520000000000000000e+02,7.742295543187638351e+00
3.530000000000000000e+02,7.748817075962952217e+00
3.540000000000000000e+02,7.755314220441328565e+00
3.550000000000000000e+02,7.761787284158207179e+00
3.560000000000000000e+02,7.768236378369348216e+00
3.570000000000000000e+02,7.774662194336841026e+00
3.580000000000000000e+02,7.781063871774370533e+00
3.590000000000000000e+02,7.787441906997512930e+00
3.600000000000000000e+02,7.793796407406604843e+00
3.610000000000000000e+02,7.800127864265531841e+00
3.620000000000000000e+02,7.806436189156267247e+00
3.630000000000000000e+02,7.812721485784078546e+00
3.640000000000000000e+02,7.818983856960119105e+00
3.650000000000000000e+02,7.825223022274921725e+00
3.660000000000000000e+02,7.831439657197242887e+00
3.670000000000000000e+02,7.837633670437682554e+00
3.680000000000000000e+02,7.843805351590129149e+00
3.690000000000000000e+02,7.849954608280834911e+00
3.700000000000000000e+02,7.856081727835695361e+00
3.710000000000000000e+02,7.862186427452120263e+00
3.720000000000000000e+02,7.868269371275196100e+00
3.730000000000000000e+02,7.874330463975171668e+00
3.740000000000000000e+02,7.880369610601717589e+00
3.750000000000000000e+02,7.886386716575469968e+00
3.760000000000000000e+02,7.892382627323545563e+00
3.770000000000000000e+02,7.898356869431853333e+00
3.780000000000000000e+02,7.904310283677165039e+00
3.790000000000000000e+02,7.910241834775224135e+00
3.800000000000000000e+02,7.916152361454730446e+00
3.810000000000000000e+02,7.922041764622308690e+00
3.820000000000000000e+02,7.927910318073251084e+00
3.830000000000000000e+02,7.933758107817544314e+00
3.840000000000000000e+02,7.939585404869394125e+00
3.850000000000000000e+02,7.945391922179966038e+00
3.860000000000000000e+02,7.951177559345803836e+00
3.870000000000000000e+02,7.956942955918555604e+00
3.880000000000000000e+02,7.962688193689198890e+00
3.890000000000000000e+02,7.968413169437821963e+00
3.900000000000000000e+02,7.974117596258904150e+00
3.910000000000000000e+02,7.979802475534108375e+00
3.920000000000000000e+02,7.985467334188861344e+00
3.930000000000000000e+02,7.991112251594270965e+00
3.940000000000000000e+02,7.996737306494781095e+00
3.950000000000000000e+02,8.002342759814251139e+00
3.960000000000000000e+02,8.007928505753753257e+00
3.970000000000000000e+02,8.013495168094063814e+00
3.980000000000000000e+02,8.019042274755239674e+00
