# Time [s], Convective Heat Transfer Coefficient [W/m2K]
1.000000000000000000e+00,0.000000000000000000e+00
2.000000000000000000e+00,0.000000000000000000e+00
3.000000000000000000e+00,0.000000000000000000e+00
4.000000000000000000e+00,0.000000000000000000e+00
5.000000000000000000e+00,0.000000000000000000e+00
6.000000000000000000e+00,0.000000000000000000e+00
7.000000000000000000e+00,2.412849599104084641e-02
8.000000000000000000e+00,3.574028725257893252e-02
9.000000000000000000e+00,5.366129469656785722e-02
1.000000000000000000e+01,7.700011469006323717e-02
1.100000000000000000e+01,1.060888871131543953e-01
1.200000000000000000e+01,1.415146601864863130e-01
1.300000000000000000e+01,1.829961972793052449e-01
1.400000000000000000e+01,2.305607610029115628e-01
1.500000000000000000e+01,2.838453072781617625e-01
1.600000000000000000e+01,3.424036058082611800e-01
1.700000000000000000e+01,4.058246264989601726e-01
1.800000000000000000e+01,4.736024371374532027e-01
1.900000000000000000e+01,5.452539929700582766e-01
2.000000000000000000e+01,6.202990294473136323e-01
2.100000000000000000e+01,6.982673134368380108e-01
2.200000000000000000e+01,7.787465842371605884e-01
2.300000000000000000e+01,8.613365474697466384e-01
2.400000000000000000e+01,9.456850323831501592e-01
2.500000000000000000e+01,1.031469892279427647e+00
2.600000000000000000e+01,1.118397912948938977e+00
2.700000000000000000e+01,1.206211626782972335e+00
2.800000000000000000e+01,1.294678199974587773e+00
2.900000000000000000e+01,1.383596360266696745e+00
3.000000000000000000e+01,1.472789228236407011e+00
3.100000000000000000e+01,1.562092906862231123e+00
3.200000000000000000e+01,1.651373136691068222e+00
3.300000000000000000e+01,1.740500233861560719e+00
3.400000000000000000e+01,1.829370670825061440e+00
3.500000000000000000e+01,1.917885943312601427e+00
3.600000000000000000e+01,2.005964597900021129e+00
3.700000000000000000e+01,2.093526576307490839e+00
3.800000000000000000e+01,2.180506695280812757e+00
3.900000000000000000e+01,2.266846178649038812e+00
4.000000000000000000e+01,2.352492083751737351e+00
4.100000000000000000e+01,2.437399638020019577e+00
4.200000000000000000e+01,2.521528267980586158e+00
4.300000000000000000e+01,2.604841633628547815e+00
4.400000000000000000e+01,2.687310588691769198e+00
4.500000000000000000e+01,2.768907961929540473e+00
4.600000000000000000e+01,2.852355129661128252e+00
4.700000000000000000e+01,2.933206572920813660e+00
4.800000000000000000e+01,3.012718265835306219e+00
4.900000000000000000e+01,3.091141134837737781e+00
5.000000000000000000e+01,3.168516975030733374e+00
5.100000000000000000e+01,3.244872353284601552e+00
5.200000000000000000e+01,3.320222124471675862e+00
5.300000000000000000e+01,3.394575609448333697e+00
5.400000000000000000e+01,3.467947142937791050e+00
5.500000000000000000e+01,3.540348967164880900e+00
5.600000000000000000e+01,3.611791167273088909e+00
5.700000000000000000e+01,3.682285092160675344e+00
5.800000000000000000e+01,3.751843125681151303e+00
5.900000000000000000e+01,3.820479873588261466e+00
6.000000000000000000e+01,3.888211173297552836e+00
6.100000000000000000e+01,3.955050386543450536e+00
6.200000000000000000e+01,4.021013529580327983e+00
6.300000000000000000e+01,4.086113415048560071e+00
6.400000000000000000e+01,4.150366904641097143e+00
6.500000000000000000e+01,4.213790059057527237e+00
6.600000000000000000e+01,4.276396183519366900e+00
6.700000000000000000e+01,4.338203789770759933e+00
6.800000000000000000e+01,4.399226191229599792e+00
6.900000000000000000e+01,4.459480787518251610e+00
7.000000000000000000e+01,4.518980159601954760e+00
7.100000000000000000e+01,4.577742517531961930e+00
7.200000000000000000e+01,4.635781146705316047e+00
7.300000000000000000e+01,4.693111870270030295e+00
7.400000000000000000e+01,4.749749802117499087e+00
7.500000000000000000e+01,4.805708175690928563e+00
7.600000000000000000e+01,4.861004121276052636e+00
7.700000000000000000e+01,4.915649484579119211e+00
7.800000000000000000e+01,4.969658575078513607e+00
7.900000000000000000e+01,5.023045003584774904e+00
8.000000000000000000e+01,5.075821822608507006e+00
8.100000000000000000e+01,5.128000048578541303e+00
8.200000000000000000e+01,5.179595433321819264e+00
8.300000000000000000e+01,5.230625248389370263e+00
8.400000000000000000e+01,5.281093687122786484e+00
8.500000000000000000e+01,5.331013747914465029e+00
8.600000000000000000e+01,5.380396750186064558e+00
8.700000000000000000e+01,5.429254300034839886e+00
8.800000000000000000e+01,5.477597161750500376e+00
8.900000000000000000e+01,5.525439691617381577e+00
9.000000000000000000e+01,5.572789234670861624e+00
9.100000000000000000e+01,5.619655595976226437e+00
9.200000000000000000e+01,5.666050102353382911e+00
9.300000000000000000e+01,5.711984217769008332e+00
9.400000000000000000e+01,5.757469244167624289e+00
9.500000000000000000e+01,5.802513860266347301e+00
9.600000000000000000e+01,5.847128630379919478e+00
9.700000000000000000e+01,5.891319585242203338e+00
9.800000000000000000e+01,5.935096427161975718e+00
9.900000000000000000e+01,5.978468689923597701e+00
1.000000000000000000e+02,6.021440129708008904e+00
1.010000000000000000e+02,6.064019122121621308e+00
1.020000000000000000e+02,6.106212249026191863e+00
1.030000000000000000e+02,6.148027049821674694e+00
1.040000000000000000e+02,6.189467401682241743e+00
1.050000000000000000e+02,6.230541658365535973e+00
1.060000000000000000e+02,6.271252862389922633e+00
1.070000000000000000e+02,6.311606575099466987e+00
1.080000000000000000e+02,6.351609932051982099e+00
1.090000000000000000e+02,6.391266757783133912e+00
1.100000000000000000e+02,6.430583371174288132e+00
1.110000000000000000e+02,6.469563622907410050e+00
1.120000000000000000e+02,6.508213489787485706e+00
1.130000000000000000e+02,6.546536687746336014e+00
1.140000000000000000e+02,6.584538688780501303e+00
1.150000000000000000e+02,6.622223149518166707e+00
1.160000000000000000e+02,6.659595443085829736e+00
1.170000000000000000e+02,6.696658125403381234e+00
1.180000000000000000e+02,6.733418317059682856e+00
1.190000000000000000e+02,6.769876729143308403e+00
1.200000000000000000e+02,6.806039122006467323e+00
1.210000000000000000e+02,6.841908537377895172e+00
1.220000000000000000e+02,6.877490388053410619e+00
1.230000000000000000e+02,6.912788661653235245e+00
1.240000000000000000e+02,6.947806962029108746e+00
1.250000000000000000e+02,6.982552369230993428e+00
1.260000000000000000e+02,7.017027423082126347e+00
1.270000000000000000e+02,7.051237406498247040e+00
1.280000000000000000e+02,7.085186016194105818e+00
1.290000000000000000e+02,7.118873127724985039e+00
1.300000000000000000e+02,7.152303897788191200e+00
1.310000000000000000e+02,7.185478090285051245e+00
1.320000000000000000e+02,7.218399083645833159e+00
1.330000000000000000e+02,7.251069254221308213e+00
1.340000000000000000e+02,7.283486931250149787e+00
1.350000000000000000e+02,7.315655979222973393e+00
1.360000000000000000e+02,7.347577967229923956e+00
1.370000000000000000e+02,7.379251837350957466e+00
1.380000000000000000e+02,7.410681049303255108e+00
1.390000000000000000e+02,7.441867049030877368e+00
1.400000000000000000e+02,7.472808932682645455e+00
1.410000000000000000e+02,7.503510195206549938e+00
1.420000000000000000e+02,7.533971333407810000e+00
1.430000000000000000e+02,7.564192420703019337e+00
1.440000000000000000e+02,7.594175152818857022e+00
1.450000000000000000e+02,7.623921776761836355e+00
1.460000000000000000e+02,7.653430472783038674e+00
1.470000000000000000e+02,7.682704433602768113e+00
1.480000000000000000e+02,7.711743998004449097e+00
1.490000000000000000e+02,7.740548710785470909e+00
1.500000000000000000e+02,7.769120066368739863e+00
1.510000000000000000e+02,7.797459126759709314e+00
1.520000000000000000e+02,7.825588710297364692e+00
1.530000000000000000e+02,7.853472905832547646e+00
1.540000000000000000e+02,7.881122981715071418e+00
1.550000000000000000e+02,7.908542586023966869e+00
1.560000000000000000e+02,7.935735631449761129e+00
1.570000000000000000e+02,7.962705179136589706e+00
1.580000000000000000e+02,7.989451817266139955e+00
1.590000000000000000e+02,8.015975929266645039e+00
1.600000000000000000e+02,8.042275890189303666e+00
1.610000000000000000e+02,8.068347052109125173e+00
1.620000000000000000e+02,8.094187735585448351e+00
1.630000000000000000e+02,8.119793274768134950e+00
1.640000000000000000e+02,8.145161755286613570e+00
1.650000000000000000e+02,8.170288666490675311e+00
1.660000000000000000e+02,8.195170464755021200e+00
1.670000000000000000e+02,8.219804368812594575e+00
1.680000000000000000e+02,8.244186096094631822e+00
1.690000000000000000e+02,8.268312986743362458e+00
1.700000000000000000e+02,8.292180038804259468e+00
1.710000000000000000e+02,8.315784543281887764e+00
1.720000000000000000e+02,8.339120967064010514e+00
1.730000000000000000e+02,8.362186050910688451e+00
1.740000000000000000e+02,8.384974082407298468e+00
1.750000000000000000e+02,8.407480105737766607e+00
1.760000000000000000e+02,8.429699403877453534e+00
1.770000000000000000e+02,8.451625686336949883e+00
1.780000000000000000e+02,8.473253734680008975e+00
1.790000000000000000e+02,8.494577749046184678e+00
1.800000000000000000e+02,8.515589905825125427e+00
1.810000000000000000e+02,8.536285382459322335e+00
1.820000000000000000e+02,8.556657004304927483e+00
1.830000000000000000e+02,8.576699114940820934e+00
1.840000000000000000e+02,8.596421634128809330e+00
1.850000000000000000e+02,8.615804760085877589e+00
1.860000000000000000e+02,8.634853324297104393e+00
1.870000000000000000e+02,8.653567169354657196e+00
1.880000000000000000e+02,8.671940323023559216e+00
1.890000000000000000e+02,8.689961272854311858e+00
1.900000000000000000e+02,8.707616778722629292e+00
1.910000000000000000e+02,8.724892051459530506e+00
1.920000000000000000e+02,8.741778583970564398e+00
1.930000000000000000e+02,8.758269747248039749e+00
1.940000000000000000e+02,8.774359379572944206e+00
1.950000000000000000e+02,8.790043892721872254e+00
1.960000000000000000e+02,8.805323428960949883e+00
1.970000000000000000e+02,8.820195624821074887e+00
1.980000000000000000e+02,8.834662700253456791e+00
1.990000000000000000e+02,8.848726449297485530e+00
2.000000000000000000e+02,8.862391973679661916e+00
2.010000000000000000e+02,8.875662284600540630e+00
2.020000000000000000e+02,8.888545003946200396e+00
2.030000000000000000e+02,8.901047721090348475e+00
2.040000000000000000e+02,8.913179030277543546e+00
2.050000000000000000e+02,8.924948669753886676e+00
2.060000000000000000e+02,8.936368685941721068e+00
2.070000000000000000e+02,8.947451364617931446e+00
2.080000000000000000e+02,8.958210257449682246e+00
2.090000000000000000e+02,8.968660466535039788e+00
2.100000000000000000e+02,8.978816312401495026e+00
2.110000000000000000e+02,8.989040215953016499e+00
2.120000000000000000e+02,8.998882867623564152e+00
2.130000000000000000e+02,9.008469783798295438e+00
2.140000000000000000e+02,9.017824307695640584e+00
2.150000000000000000e+02,9.026943695886433972e+00
2.160000000000000000e+02,9.035834943138763009e+00
2.170000000000000000e+02,9.044518122048000208e+00
2.180000000000000000e+02,9.053013837428441235e+00
2.190000000000000000e+02,9.061347079037027186e+00
2.200000000000000000e+02,9.069538223960224244e+00
2.210000000000000000e+02,9.077609193880634919e+00
2.220000000000000000e+02,9.085576214784980564e+00
2.230000000000000000e+02,9.093459639093406821e+00
2.240000000000000000e+02,9.101274162268438772e+00
2.250000000000000000e+02,9.109034799330595789e+00
2.260000000000000000e+02,9.116758151473813854e+00
2.270000000000000000e+02,9.124455504425291963e+00
2.280000000000000000e+02,9.132140734532521620e+00
2.290000000000000000e+02,9.139825663016734936e+00
2.300000000000000000e+02,9.147521192383319288e+00
2.310000000000000000e+02,9.155237174192411231e+00
2.320000000000000000e+02,9.162983951062550148e+00
2.330000000000000000e+02,9.170768872148615358e+00
2.340000000000000000e+02,9.178602292542786145e+00
2.350000000000000000e+02,9.186492969241395912e+00
2.360000000000000000e+02,9.194447796664656281e+00
2.370000000000000000e+02,9.203831521807154914e+00
2.380000000000000000e+02,9.212579662418530546e+00
2.390000000000000000e+02,9.221119999358222685e+00
2.400000000000000000e+02,9.229588754380293025e+00
2.410000000000000000e+02,9.238044877083519069e+00
2.420000000000000000e+02,9.246546748612658462e+00
2.430000000000000000e+02,9.255124988326802082e+00
2.440000000000000000e+02,9.263805347661977052e+00
2.450000000000000000e+02,9.272598947244402368e+00
2.460000000000000000e+02,9.281517086378002546e+00
2.470000000000000000e+02,9.290569475159887958e+00
2.480000000000000000e+02,9.299761539727317228e+00
2.490000000000000000e+02,9.309100810893333744e+00
2.500000000000000000e+02,9.318587194870305623e+00
2.510000000000000000e+02,9.328230537979788295e+00
2.520000000000000000e+02,9.338034278713694292e+00
2.530000000000000000e+02,9.348006898886660920e+00
2.540000000000000000e+02,9.358151040496146322e+00
2.550000000000000000e+02,9.368475703684220335e+00
2.560000000000000000e+02,9.378985528387488557e+00
2.570000000000000000e+02,9.389683761130916295e+00
2.580000000000000000e+02,9.400578759852461275e+00
2.590000000000000000e+02,9.411680099741211336e+00
2.600000000000000000e+02,9.423000400393576115e+00
2.610000000000000000e+02,9.434538318736800377e+00
2.620000000000000000e+02,9.446299050120996910e+00
2.630000000000000000e+02,9.458297909896231204e+00
2.640000000000000000e+02,9.470535532583920002e+00
2.650000000000000000e+02,9.486990188382884881e+00
2.660000000000000000e+02,9.500555695707674886e+00
2.670000000000000000e+02,9.513546629266903309e+00
2.680000000000000000e+02,9.526725837112756778e+00
2.690000000000000000e+02,9.540180329157863071e+00
2.700000000000000000e+02,9.553965954745191169e+00
2.710000000000000000e+02,9.568082741256041857e+00
2.720000000000000000e+02,9.582539945047356511e+00
2.730000000000000000e+02,9.597346250003921497e+00
2.740000000000000000e+02,9.612505588254526501e+00
2.750000000000000000e+02,9.628023144524458843e+00
2.760000000000000000e+02,9.643917540684780576e+00
2.770000000000000000e+02,9.660180463859118660e+00
2.780000000000000000e+02,9.676816866223704849e+00
2.790000000000000000e+02,9.693845735132779140e+00
2.800000000000000000e+02,9.711278611434485342e+00
2.810000000000000000e+02,9.729112535521263538e+00
2.820000000000000000e+02,9.747372813694699545e+00
2.830000000000000000e+02,9.766051480296084719e+00
2.840000000000000000e+02,9.785145088193353047e+00
2.850000000000000000e+02,9.804675935208674531e+00
2.860000000000000000e+02,9.824640850370098377e+00
2.870000000000000000e+02,9.845043462199488005e+00
2.880000000000000000e+02,9.865879745662427425e+00
2.890000000000000000e+02,9.887152431933285968e+00
2.900000000000000000e+02,9.908867524969039664e+00
2.910000000000000000e+02,9.930985798203728621e+00
2.920000000000000000e+02,9.953533932266791950e+00
2.930000000000000000e+02,9.976480012692695354e+00
2.940000000000000000e+02,9.999816347825074558e+00
2.950000000000000000e+02,1.002353014520518748e+01
2.960000000000000000e+02,1.004759308756904090e+01
2.970000000000000000e+02,1.007199079738301783e+01
2.980000000000000000e+02,1.009669300634516986e+01
2.990000000000000000e+02,1.012167075409762518e+01
3.000000000000000000e+02,1.014690103740250748e+01
3.010000000000000000e+02,1.017235129376448377e+01
3.020000000000000000e+02,1.020217706260602597e+01
3.030000000000000000e+02,1.022853698681904078e+01
3.040000000000000000e+02,1.025425266845977923e+01
3.050000000000000000e+02,1.028008426335973269e+01
3.060000000000000000e+02,1.030595641919272154e+01
3.070000000000000000e+02,1.033185932182731115e+01
3.080000000000000000e+02,1.035776720078765933e+01
3.090000000000000000e+02,1.038364187704010533e+01
3.100000000000000000e+02,1.040946440254481686e+01
3.110000000000000000e+02,1.043520201514187384e+01
3.120000000000000000e+02,1.046083233189783535e+01
3.130000000000000000e+02,1.048633723972669607e+01
3.140000000000000000e+02,1.051168742861645455e+01
3.150000000000000000e+02,1.053686764450648639e+01
3.160000000000000000e+02,1.056185053657418926e+01
3.170000000000000000e+02,1.058662910600266649e+01
3.180000000000000000e+02,1.061119418742221043e+01
3.190000000000000000e+02,1.063552476830152216e+01
3.200000000000000000e+02,1.065961823251224239e+01
3.210000000000000000e+02,1.068346984052812765e+01
3.220000000000000000e+02,1.070706399347676196e+01
3.230000000000000000e+02,1.073039957863483806e+01
3.240000000000000000e+02,1.075347983316441614e+01
3.250000000000000000e+02,1.077629168760052281e+01
3.260000000000000000e+02,1.079883802833778184e+01
3.270000000000000000e+02,1.082111697010553364e+01
3.280000000000000000e+02,1.084313499631785582e+01
3.290000000000000000e+02,1.086488685833706569e+01
3.300000000000000000e+02,1.088637694670000577e+01
3.310000000000000000e+02,1.090760926222000826e+01
3.320000000000000000e+02,1.092858242619356446e+01
3.330000000000000000e+02,1.094930345319844278e+01
3.340000000000000000e+02,1.096977271023462031e+01
3.350000000000000000e+02,1.098999964545593144e+01
3.360000000000000000e+02,1.100998244048760633e+01
3.370000000000000000e+02,1.102972899935368289e+01
3.380000000000000000e+02,1.104924009225704218e+01
3.390000000000000000e+02,1.106852209489623640e+01
3.400000000000000000e+02,1.108758060760534825e+01
3.410000000000000000e+02,1.110641914186993517e+01
3.420000000000000000e+02,1.112503896776217260e+01
3.430000000000000000e+02,1.114344367681397152e+01
3.440000000000000000e+02,1.116164525196873747e+01
3.450000000000000000e+02,1.117964136154283317e+01
3.460000000000000000e+02,1.119744061120827894e+01
3.470000000000000000e+02,1.121504459531523423e+01
3.480000000000000000e+02,1.123245979109548642e+01
3.490000000000000000e+02,1.124968712457789088e+01
3.500000000000000000e+02,1.126673044799117207e+01
3.510000000000000000e+02,1.128359668007748162e+01
3.520000000000000000e+02,1.130028668636271760e+01
3.530000000000000000e+02,1.131680313843572172e+01
3.540000000000000000e+02,1.133314966777248323e+01
3.550000000000000000e+02,1.134933276112525391e+01
3.560000000000000000e+02,1.136535039310415662e+01
3.570000000000000000e+02,1.138121311243510903e+01
3.580000000000000000e+02,1.139691574993308443e+01
3.590000000000000000e+02,1.141246612603802468e+01
3.600000000000000000e+02,1.142786963662437216e+01
3.610000000000000000e+02,1.144312159888196057e+01
3.620000000000000000e+02,1.145822824887971336e+01
3.630000000000000000e+02,1.147319281425000348e+01
3.640000000000000000e+02,1.148802078749765521e+01
3.650000000000000000e+02,1.150270848472746543e+01
3.660000000000000000e+02,1.151726098893116301e+01
3.670000000000000000e+02,1.153168226845011546e+01
3.680000000000000000e+02,1.154597325987302270e+01
3.690000000000000000e+02,1.156013295701933963e+01
3.700000000000000000e+02,1.157416472622715808e+01
3.710000000000000000e+02,1.158807294106040509e+01
3.720000000000000000e+02,1.160185836167969420e+01
3.730000000000000000e+02,1.161552242943705693e+01
3.740000000000000000e+02,1.162906561438994402e+01
3.750000000000000000e+02,1.164249148567615322e+01
3.760000000000000000e+02,1.165579986924435474e+01
3.770000000000000000e+02,1.166899351035573851e+01
3.780000000000000000e+02,1.168207392356540986e+01
3.790000000000000000e+02,1.169504328969295415e+01
3.800000000000000000e+02,1.170790368013622995e+01
3.810000000000000000e+02,1.172065109347235889e+01
3.820000000000000000e+02,1.173329278213992488e+01
3.830000000000000000e+02,1.174582880454584632e+01
3.840000000000000000e+02,1.175825726698307783e+01
3.850000000000000000e+02,1.177058346913240605e+01
3.860000000000000000e+02,1.178280743465383296e+01
3.870000000000000000e+02,1.179492859403136329e+01
3.880000000000000000e+02,1.180695049301274935e+01
3.890000000000000000e+02,1.181887128131731046e+01
3.900000000000000000e+02,1.183069614503753897e+01
3.910000000000000000e+02,1.184242346422013448e+01
3.920000000000000000e+02,1.185405321092115827e+01
3.930000000000000000e+02,1.186558701662658599e+01
3.940000000000000000e+02,1.187702882012304428e+01
3.950000000000000000e+02,1.188837639748324548e+01
3.960000000000000000e+02,1.189963415186918816e+01
3.970000000000000000e+02,1.191079844613553895e+01
3.980000000000000000e+02,1.192187340896867731e+01
