# Time [s], Convective Heat Transfer Coefficient [W/m2K]
1.000000000000000000e+00,0.000000000000000000e+00
2.000000000000000000e+00,0.000000000000000000e+00
3.000000000000000000e+00,0.000000000000000000e+00
4.000000000000000000e+00,0.000000000000000000e+00
5.000000000000000000e+00,1.915079995362458862e-02
6.000000000000000000e+00,2.762023300960968902e-02
7.000000000000000000e+00,4.444506962132738215e-02
8.000000000000000000e+00,6.656869092658207476e-02
9.000000000000000000e+00,9.524056365216765352e-02
1.000000000000000000e+01,1.301657732139051282e-01
1.100000000000000000e+01,1.708867068491469465e-01
1.200000000000000000e+01,2.171068054433399619e-01
1.300000000000000000e+01,2.683552476130262043e-01
1.400000000000000000e+01,3.238761357552726317e-01
1.500000000000000000e+01,3.830239785017844345e-01
1.600000000000000000e+01,4.451606825529551004e-01
1.700000000000000000e+01,5.096989540092143889e-01
1.800000000000000000e+01,5.761260665421652494e-01
1.900000000000000000e+01,6.439694116613606800e-01
2.000000000000000000e+01,7.128484207608080103e-01
2.100000000000000000e+01,7.824256355533257823e-01
2.200000000000000000e+01,8.524051805820156424e-01
2.300000000000000000e+01,9.225581131417770475e-01
2.400000000000000000e+01,9.926763401922751306e-01
2.500000000000000000e+01,1.062596025787298171e+00
2.600000000000000000e+01,1.132177557917168009e+00
2.700000000000000000e+01,1.201299071510938843e+00
2.800000000000000000e+01,1.269871197687414854e+00
2.900000000000000000e+01,1.337817836422893869e+00
3.000000000000000000e+01,1.405074956168893774e+00
3.100000000000000000e+01,1.471595590306757240e+00
3.200000000000000000e+01,1.537337727047279001e+00
3.300000000000000000e+01,1.602272687079924873e+00
3.400000000000000000e+01,1.666380583927920656e+00
3.500000000000000000e+01,1.729642202044531452e+00
3.600000000000000000e+01,1.792048164574914670e+00
3.700000000000000000e+01,1.853592535672258901e+00
3.800000000000000000e+01,1.914272449145321353e+00
3.900000000000000000e+01,1.974091711937457694e+00
4.000000000000000000e+01,2.033050665403998369e+00
4.100000000000000000e+01,2.091158042082035706e+00
4.200000000000000000e+01,2.148420864787099926e+00
4.300000000000000000e+01,2.204844321774332094e+00
4.400000000000000000e+01,2.260442701052302272e+00
4.500000000000000000e+01,2.315225659394538837e+00
4.600000000000000000e+01,2.369205884287433506e+00
4.700000000000000000e+01,2.422395820100084585e+00
4.800000000000000000e+01,2.474807890054991688e+00
4.900000000000000000e+01,2.526456510400906019e+00
5.000000000000000000e+01,2.577354003173967012e+00
5.100000000000000000e+01,2.627514052920264742e+00
5.200000000000000000e+01,2.676953438969634558e+00
5.300000000000000000e+01,2.725684108286908103e+00
5.400000000000000000e+01,2.773719360612862506e+00
5.500000000000000000e+01,2.821072341520491911e+00
5.600000000000000000e+01,2.867758817533219595e+00
5.700000000000000000e+01,2.913791576529998206e+00
5.800000000000000000e+01,2.959183206937731736e+00
5.900000000000000000e+01,3.003946185760222320e+00
6.000000000000000000e+01,3.048094216113446553e+00
6.100000000000000000e+01,3.091639670474966906e+00
6.200000000000000000e+01,3.134594671955631462e+00
6.300000000000000000e+01,3.176973515243403767e+00
6.400000000000000000e+01,3.218787597807564183e+00
6.500000000000000000e+01,3.260047397675384317e+00
6.600000000000000000e+01,3.300764807278846469e+00
6.700000000000000000e+01,3.340950939719089963e+00
6.800000000000000000e+01,3.380617010431243852e+00
6.900000000000000000e+01,3.419773198457649155e+00
7.000000000000000000e+01,3.458430206267745888e+00
7.100000000000000000e+01,3.496597936793740757e+00
7.200000000000000000e+01,3.534286964788613261e+00
7.300000000000000000e+01,3.571506430671328225e+00
7.400000000000000000e+01,3.608265698877548111e+00
7.500000000000000000e+01,3.644573968623646021e+00
7.600000000000000000e+01,3.680440881885091997e+00
7.700000000000000000e+01,3.715874604516049562e+00
7.800000000000000000e+01,3.750884199580032607e+00
7.900000000000000000e+01,3.785478065424973337e+00
8.000000000000000000e+01,3.819664066695798610e+00
8.100000000000000000e+01,3.853450597916611375e+00
8.200000000000000000e+01,3.886845213664285925e+00
8.300000000000000000e+01,3.919855530824570167e+00
8.400000000000000000e+01,3.952489442340236359e+00
8.500000000000000000e+01,3.984754057577998942e+00
8.600000000000000000e+01,4.016654453789500145e+00
8.700000000000000000e+01,4.048198329641312654e+00
8.800000000000000000e+01,4.079392494533160551e+00
8.900000000000000000e+01,4.110243971376892347e+00
9.000000000000000000e+01,4.140759158541838403e+00
9.100000000000000000e+01,4.170944343314035407e+00
9.200000000000000000e+01,4.200805309206216975e+00
9.300000000000000000e+01,4.230348284517360113e+00
9.400000000000000000e+01,4.259579522600498436e+00
9.500000000000000000e+01,4.288502625179802408e+00
9.600000000000000000e+01,4.317123929272632665e+00
9.700000000000000000e+01,4.345449165355386612e+00
9.800000000000000000e+01,4.373483678801587615e+00
9.900000000000000000e+01,4.401232453079066076e+00
1.000000000000000000e+02,4.428700787650336146e+00
1.010000000000000000e+02,4.455893511305875521e+00
1.020000000000000000e+02,4.482815475681956485e+00
1.030000000000000000e+02,4.509469883785970801e+00
1.040000000000000000e+02,4.535862367849151866e+00
1.050000000000000000e+02,4.561997418275810290e+00
1.060000000000000000e+02,4.587879838250596976e+00
1.070000000000000000e+02,4.613513351076982794e+00
1.080000000000000000e+02,4.638902508494451737e+00
1.090000000000000000e+02,4.664050008802131941e+00
1.100000000000000000e+02,4.688960255748120254e+00
1.110000000000000000e+02,4.713638214977276419e+00
1.120000000000000000e+02,4.738087038674256846e+00
1.130000000000000000e+02,4.762310738654377928e+00
1.140000000000000000e+02,4.786312916658814309e+00
1.150000000000000000e+02,4.810096025742582881e+00
1.160000000000000000e+02,4.833664031428965835e+00
1.170000000000000000e+02,4.857021098181923513e+00
1.180000000000000000e+02,4.880170105660510238e+00
1.190000000000000000e+02,4.903114510684183358e+00
1.200000000000000000e+02,4.925857645120499839e+00
1.210000000000000000e+02,4.948401574386694257e+00
1.220000000000000000e+02,4.970749854889017882e+00
1.230000000000000000e+02,4.992905495519856629e+00
1.240000000000000000e+02,5.014871680094355355e+00
1.250000000000000000e+02,5.036651344633455096e+00
1.260000000000000000e+02,5.058247233902158690e+00
1.270000000000000000e+02,5.079661455955200466e+00
1.280000000000000000e+02,5.100897038380045601e+00
1.290000000000000000e+02,5.121956685740856940e+00
1.300000000000000000e+02,5.142843279797137512e+00
1.310000000000000000e+02,5.163559170121613029e+00
1.320000000000000000e+02,5.184106543877919471e+00
1.330000000000000000e+02,5.204487691581056730e+00
1.340000000000000000e+02,5.224705560664257398e+00
1.350000000000000000e+02,5.244761985751708266e+00
1.360000000000000000e+02,5.264659716019259861e+00
1.370000000000000000e+02,5.284401458881012204e+00
1.380000000000000000e+02,5.303987884535007247e+00
1.390000000000000000e+02,5.323421583410305580e+00
1.400000000000000000e+02,5.342705356313036447e+00
1.410000000000000000e+02,5.361841270732261577e+00
1.420000000000000000e+02,5.380831091354282947e+00
1.430000000000000000e+02,5.399676772570313865e+00
1.440000000000000000e+02,5.418379654589662309e+00
1.450000000000000000e+02,5.436942226951294366e+00
1.460000000000000000e+02,5.455366280434644999e+00
1.470000000000000000e+02,5.473654532601263334e+00
1.480000000000000000e+02,5.491807725177249466e+00
1.490000000000000000e+02,5.509828197893354762e+00
1.500000000000000000e+02,5.527716925133014492e+00
1.510000000000000000e+02,5.545475805757250853e+00
1.520000000000000000e+02,5.563107255563159548e+00
1.530000000000000000e+02,5.580612161559431961e+00
1.540000000000000000e+02,5.597992806002087818e+00
1.550000000000000000e+02,5.615250893018226996e+00
1.560000000000000000e+02,5.632386939179059304e+00
1.570000000000000000e+02,5.649403133584057990e+00
1.580000000000000000e+02,5.666300735787892506e+00
1.590000000000000000e+02,5.683081553279508036e+00
1.600000000000000000e+02,5.699746808546107602e+00
1.610000000000000000e+02,5.716298230930571656e+00
1.620000000000000000e+02,5.732737258572503158e+00
1.630000000000000000e+02,5.749064409352578231e+00
1.640000000000000000e+02,5.765281631284761232e+00
1.650000000000000000e+02,5.781390476521861110e+00
1.660000000000000000e+02,5.797391729395855897e+00
1.670000000000000000e+02,5.813287401976591440e+00
1.680000000000000000e+02,5.829078530412094672e+00
1.690000000000000000e+02,5.844766229362138965e+00
1.700000000000000000e+02,5.860351178704984676e+00
1.710000000000000000e+02,5.875834787851426100e+00
1.720000000000000000e+02,5.891218434688012096e+00
1.730000000000000000e+02,5.906503500094671288e+00
1.740000000000000000e+02,5.921691234481592403e+00
1.750000000000000000e+02,5.936782462329964538e+00
1.760000000000000000e+02,5.951778452221051730e+00
1.770000000000000000e+02,5.966679689205701465e+00
1.780000000000000000e+02,5.981487661094321062e+00
1.790000000000000000e+02,5.996203010615691831e+00
1.800000000000000000e+02,6.010827500104548804e+00
1.810000000000000000e+02,6.025361953197965192e+00
1.820000000000000000e+02,6.039807272253977288e+00
1.830000000000000000e+02,6.054164596226445205e+00
1.840000000000000000e+02,6.068434977300486644e+00
1.850000000000000000e+02,6.082618275643956629e+00
1.860000000000000000e+02,6.096716273374001460e+00
1.870000000000000000e+02,6.110729997111540968e+00
1.880000000000000000e+02,6.124659985017816055e+00
1.890000000000000000e+02,6.138507447332447242e+00
1.900000000000000000e+02,6.152273385409055884e+00
1.910000000000000000e+02,6.165958473311198951e+00
1.920000000000000000e+02,6.179563708844993286e+00
1.930000000000000000e+02,6.193089704558725650e+00
1.940000000000000000e+02,6.206536939281236620e+00
1.950000000000000000e+02,6.219906547735281066e+00
1.960000000000000000e+02,6.233199372571956332e+00
1.970000000000000000e+02,6.246416060663221970e+00
1.980000000000000000e+02,6.259557694672668759e+00
1.990000000000000000e+02,6.272625069987499913e+00
2.000000000000000000e+02,6.285618789642800408e+00
2.010000000000000000e+02,6.298539415863205981e+00
2.020000000000000000e+02,6.311388205611174307e+00
2.030000000000000000e+02,6.324165662430314860e+00
2.040000000000000000e+02,6.336871697424741434e+00
2.050000000000000000e+02,6.349507702581464130e+00
2.060000000000000000e+02,6.362074005370267571e+00
2.070000000000000000e+02,6.374571704622285395e+00
2.080000000000000000e+02,6.387001105971654269e+00
2.090000000000000000e+02,6.399363366606983128e+00
2.100000000000000000e+02,6.411658770437494326e+00
2.110000000000000000e+02,6.423888078065480123e+00
2.120000000000000000e+02,6.436052065625868401e+00
2.130000000000000000e+02,6.448151102247518196e+00
2.140000000000000000e+02,6.460185830871105317e+00
2.150000000000000000e+02,6.472157163200812136e+00
2.160000000000000000e+02,6.484065996390520503e+00
2.170000000000000000e+02,6.495911548902001620e+00
2.180000000000000000e+02,6.507694984293842744e+00
2.190000000000000000e+02,6.519416897390669874e+00
2.200000000000000000e+02,6.531078147845819082e+00
2.210000000000000000e+02,6.542679035103178720e+00
2.220000000000000000e+02,6.554220125828512877e+00
2.230000000000000000e+02,6.565702520795614561e+00
2.240000000000000000e+02,6.577125951415476734e+00
2.250000000000000000e+02,6.588491230496498652e+00
2.260000000000000000e+02,6.599799158675625499e+00
2.270000000000000000e+02,6.611049721185274564e+00
2.280000000000000000e+02,6.622243970208461228e+00
2.290000000000000000e+02,6.633382144704587091e+00
2.300000000000000000e+02,6.644464744650437460e+00
2.310000000000000000e+02,6.655491998180504076e+00
2.320000000000000000e+02,6.666464919696029945e+00
2.330000000000000000e+02,6.677383459235650243e+00
2.340000000000000000e+02,6.688248351659156654e+00
2.350000000000000000e+02,6.699060321431453247e+00
2.360000000000000000e+02,6.709820082846253975e+00
2.370000000000000000e+02,6.720526785158916105e+00
2.380000000000000000e+02,6.731181654448171514e+00
2.390000000000000000e+02,6.741784612735272297e+00
2.400000000000000000e+02,6.752336609155483060e+00
2.410000000000000000e+02,6.762838068308249184e+00
2.420000000000000000e+02,6.773289153580984490e+00
2.430000000000000000e+02,6.783690279929759370e+00
2.440000000000000000e+02,6.794042110048509997e+00
2.450000000000000000e+02,6.804344792140714304e+00
2.460000000000000000e+02,6.814598976001677855e+00
2.470000000000000000e+02,6.824805051558505475e+00
2.480000000000000000e+02,6.834963152776304618e+00
2.490000000000000000e+02,6.845074160798071183e+00
2.500000000000000000e+02,6.855137700166202386e+00
2.510000000000000000e+02,6.865154640967777944e+00
2.520000000000000000e+02,6.875125347145907284e+00
2.530000000000000000e+02,6.885049930799048035e+00
2.540000000000000000e+02,6.894928994511940523e+00
2.550000000000000000e+02,6.904762887769692270e+00
2.560000000000000000e+02,6.914551710579777577e+00
2.570000000000000000e+02,6.924296049451639234e+00
2.580000000000000000e+02,6.933996240187751958e+00
2.590000000000000000e+02,6.943652614198788875e+00
2.600000000000000000e+02,6.953265256461232724e+00
2.610000000000000000e+02,6.962834491830474093e+00
2.620000000000000000e+02,6.972361122558066171e+00
2.630000000000000000e+02,6.981845221115504430e+00
2.640000000000000000e+02,6.991287098077679119e+00
2.650000000000000000e+02,7.000686821220440947e+00
2.660000000000000000e+02,7.010044933418395630e+00
2.670000000000000000e+02,7.019361733591670038e+00
2.680000000000000000e+02,7.028637516913785355e+00
2.690000000000000000e+02,7.037872811209877177e+00
2.700000000000000000e+02,7.047067431065870302e+00
2.710000000000000000e+02,7.056221897749290761e+00
2.720000000000000000e+02,7.065336492072932906e+00
2.730000000000000000e+02,7.074411725308454635e+00
2.740000000000000000e+02,7.083447403050317170e+00
2.750000000000000000e+02,7.092444263172808405e+00
2.760000000000000000e+02,7.101402803430770128e+00
2.770000000000000000e+02,7.110322821433257445e+00
2.780000000000000000e+02,7.119204578229028968e+00
2.790000000000000000e+02,7.128048101359826028e+00
2.800000000000000000e+02,7.136854566697403257e+00
2.810000000000000000e+02,7.145623533228860680e+00
2.820000000000000000e+02,7.154355021169219064e+00
2.830000000000000000e+02,7.163049734473048602e+00
2.840000000000000000e+02,7.171707914600417233e+00
2.850000000000000000e+02,7.180329573160785905e+00
2.860000000000000000e+02,7.188915400697567293e+00
2.870000000000000000e+02,7.197464950864006283e+00
2.880000000000000000e+02,7.205979133687944405e+00
2.890000000000000000e+02,7.214457725630818885e+00
2.900000000000000000e+02,7.222901402318138153e+00
2.910000000000000000e+02,7.231309713332869649e+00
2.920000000000000000e+02,7.239683552034721359e+00
2.930000000000000000e+02,7.248022911788163825e+00
2.940000000000000000e+02,7.256328007905223920e+00
2.950000000000000000e+02,7.264599275113950760e+00
2.960000000000000000e+02,7.272836701152469274e+00
2.970000000000000000e+02,7.281040935886078813e+00
2.980000000000000000e+02,7.289211301028606371e+00
2.990000000000000000e+02,7.297348882548027049e+00
3.000000000000000000e+02,7.305453659653191600e+00
3.010000000000000000e+02,7.313525173632253740e+00
3.020000000000000000e+02,7.321564498021785106e+00
3.030000000000000000e+02,7.329571607072684181e+00
3.040000000000000000e+02,7.337546474876024405e+00
3.050000000000000000e+02,7.345489509266885264e+00
3.060000000000000000e+02,7.353400681203834388e+00
3.070000000000000000e+02,7.361280177537178560e+00
3.080000000000000000e+02,7.369128829833771377e+00
3.090000000000000000e+02,7.376946601800818293e+00
3.100000000000000000e+02,7.384733242442208301e+00
3.110000000000000000e+02,7.392489359324901699e+00
3.120000000000000000e+02,7.400214485786084317e+00
3.130000000000000000e+02,7.407909651879657886e+00
3.140000000000000000e+02,7.415574388664748717e+00
3.150000000000000000e+02,7.423209292892867239e+00
3.160000000000000000e+02,7.430814532072337109e+00
3.170000000000000000e+02,7.438389637300275581e+00
3.180000000000000000e+02,7.445935832257352338e+00
3.190000000000000000e+02,7.453452644683275174e+00
3.200000000000000000e+02,7.460940446957560646e+00
3.210000000000000000e+02,7.468399608149660196e+00
3.220000000000000000e+02,7.475829656249810995e+00
3.230000000000000000e+02,7.483231167869288214e+00
3.240000000000000000e+02,7.490604088857547360e+00
3.250000000000000000e+02,7.497949198054288722e+00
3.260000000000000000e+02,7.505265813199174296e+00
3.270000000000000000e+02,7.512554916323390231e+00
3.280000000000000000e+02,7.519816239481251330e+00
3.290000000000000000e+02,7.527050136334604069e+00
3.300000000000000000e+02,7.534256132659471028e+00
3.310000000000000000e+02,7.541435404158731259e+00
3.320000000000000000e+02,7.548587062947309079e+00
3.330000000000000000e+02,7.555712073002974982e+00
3.340000000000000000e+02,7.562809958107302499e+00
3.350000000000000000e+02,7.569881675297603252e+00
3.360000000000000000e+02,7.576926746878834606e+00
3.370000000000000000e+02,7.583945308999278545e+00
3.380000000000000000e+02,7.590938309122034156e+00
3.390000000000000000e+02,7.597904659695503327e+00
3.400000000000000000e+02,7.604844900116876971e+00
3.410000000000000000e+02,7.611759767614573846e+00
3.420000000000000000e+02,7.618648582079640796e+00
3.430000000000000000e+02,7.625512681170264706e+00
3.440000000000000000e+02,7.632350981255455302e+00
3.450000000000000000e+02,7.639164010943980010e+00
3.460000000000000000e+02,7.645952094579596903e+00
3.470000000000000000e+02,7.652715354069511200e+00
3.480000000000000000e+02,7.659453511145715154e+00
3.490000000000000000e+02,7.666167484338230587e+00
3.500000000000000000e+02,7.672856594824236431e+00
3.510000000000000000e+02,7.679521359203843822e+00
3.520000000000000000e+02,7.686161893955079982e+00
3.530000000000000000e+02,7.692778512319512707e+00
3.540000000000000000e+02,7.699370932745640772e+00
3.550000000000000000e+02,7.705939466764939461e+00
3.560000000000000000e+02,7.712484423551591028e+00
3.570000000000000000e+02,7.719005717023713409e+00
3.580000000000000000e+02,7.725503065314334172e+00
3.590000000000000000e+02,7.731977558860728017e+00
3.600000000000000000e+02,7.738428521262722626e+00
3.610000000000000000e+02,7.744856451334741543e+00
3.620000000000000000e+02,7.751261259860320330e+00
3.630000000000000000e+02,7.757643441530071904e+00
3.640000000000000000e+02,7.764002516594931791e+00
3.650000000000000000e+02,7.770338977614493992e+00
3.660000000000000000e+02,7.776653120160220034e+00
3.670000000000000000e+02,7.782944657925681575e+00
3.680000000000000000e+02,7.789214077999444541e+00
3.690000000000000000e+02,7.795460900977724705e+00
3.700000000000000000e+02,7.801686188899591201e+00
3.710000000000000000e+02,7.807888884638830795e+00
3.720000000000000000e+02,7.814070046423500671e+00
3.730000000000000000e+02,7.820229577120293207e+00
3.740000000000000000e+02,7.826367380010771591e+00
3.750000000000000000e+02,7.832483549596683581e+00
3.760000000000000000e+02,7.838578179590701467e+00
3.770000000000000000e+02,7.844651743370453012e+00
3.780000000000000000e+02,7.850703951478670284e+00
3.790000000000000000e+02,7.856735084961051108e+00
3.800000000000000000e+02,7.862745233601056150e+00
3.810000000000000000e+02,7.868734297385533871e+00
3.820000000000000000e+02,7.874702554265794241e+00
3.830000000000000000e+02,7.880650468812066656e+00
3.840000000000000000e+02,7.886577561588512530e+00
3.850000000000000000e+02,7.892483731700546734e+00
3.860000000000000000e+02,7.898370004529992272e+00
3.870000000000000000e+02,7.904236274988221567e+00
3.880000000000000000e+02,7.910081877173600340e+00
3.890000000000000000e+02,7.915907269812663571e+00
3.900000000000000000e+02,7.921712722215519697e+00
3.910000000000000000e+02,7.927498315674820439e+00
3.920000000000000000e+02,7.933264130838162842e+00
3.930000000000000000e+02,7.939010247714857194e+00
3.940000000000000000e+02,7.944736374762389808e+00
3.950000000000000000e+02,7.950443333106194110e+00
3.960000000000000000e+02,7.956130644495680748e+00
3.970000000000000000e+02,7.961798756574738789e+00
3.980000000000000000e+02,7.967447561065757355e+00
