# Time [s], Convective Heat Transfer Coefficient [W/m2K]
1.000000000000000000e+00,0.000000000000000000e+00
2.000000000000000000e+00,0.000000000000000000e+00
3.000000000000000000e+00,0.000000000000000000e+00
4.000000000000000000e+00,0.000000000000000000e+00
5.000000000000000000e+00,1.915079995362458862e-02
6.000000000000000000e+00,2.762023300960968902e-02
7.000000000000000000e+00,4.444506962132738215e-02
8.000000000000000000e+00,6.760899475372779410e-02
9.000000000000000000e+00,9.651398395969873478e-02
1.000000000000000000e+01,1.314654648861739994e-01
1.100000000000000000e+01,1.723965955583550702e-01
1.200000000000000000e+01,2.190024931640395522e-01
1.300000000000000000e+01,2.705319804338110479e-01
1.400000000000000000e+01,3.263458628012890772e-01
1.500000000000000000e+01,3.857887037442572220e-01
1.600000000000000000e+01,4.482114308130860092e-01
1.700000000000000000e+01,5.130206411447725268e-01
1.800000000000000000e+01,5.797011194780525845e-01
1.900000000000000000e+01,6.477969071412897906e-01
2.000000000000000000e+01,7.169050431330640238e-01
2.100000000000000000e+01,7.866969782491820551e-01
2.200000000000000000e+01,8.568861655280417544e-01
2.300000000000000000e+01,9.272299551372156223e-01
2.400000000000000000e+01,9.975337743363906773e-01
2.500000000000000000e+01,1.067623239612365493e+00
2.600000000000000000e+01,1.137363745386854141e+00
2.700000000000000000e+01,1.206637896900966345e+00
2.800000000000000000e+01,1.275354335031775310e+00
2.900000000000000000e+01,1.343435455452178795e+00
3.000000000000000000e+01,1.410820731133054506e+00
3.100000000000000000e+01,1.477460888796771288e+00
3.200000000000000000e+01,1.543317017947783309e+00
3.300000000000000000e+01,1.608359990422604024e+00
3.400000000000000000e+01,1.672568027388274592e+00
3.500000000000000000e+01,1.735924965277441556e+00
3.600000000000000000e+01,1.798422986053895389e+00
3.700000000000000000e+01,1.860053979092492593e+00
3.800000000000000000e+01,1.920816969548311492e+00
3.900000000000000000e+01,1.980713340077191020e+00
4.000000000000000000e+01,2.039745274892434068e+00
4.100000000000000000e+01,2.097921339834059040e+00
4.200000000000000000e+01,2.155248206832208080e+00
4.300000000000000000e+01,2.211734165996573687e+00
4.400000000000000000e+01,2.267390504583670197e+00
4.500000000000000000e+01,2.322227289585024224e+00
4.600000000000000000e+01,2.376258781202222004e+00
4.700000000000000000e+01,2.429497342181578645e+00
4.800000000000000000e+01,2.481954568688677476e+00
4.900000000000000000e+01,2.533644901768282498e+00
5.000000000000000000e+01,2.584582798187621933e+00
5.100000000000000000e+01,2.634780711697132016e+00
5.200000000000000000e+01,2.684254187325890939e+00
5.300000000000000000e+01,2.733016014224348922e+00
5.400000000000000000e+01,2.781080058490691176e+00
5.500000000000000000e+01,2.828460978332263398e+00
5.600000000000000000e+01,2.875171592205285176e+00
5.700000000000000000e+01,2.921226919374342756e+00
5.800000000000000000e+01,2.966639244672394149e+00
5.900000000000000000e+01,3.011421806207427831e+00
6.000000000000000000e+01,3.055587967529745708e+00
6.100000000000000000e+01,3.099149679293148552e+00
6.200000000000000000e+01,3.142119396995180836e+00
6.300000000000000000e+01,3.184510082147534948e+00
6.400000000000000000e+01,3.226333744639836354e+00
6.500000000000000000e+01,3.267601742706552237e+00
6.600000000000000000e+01,3.308325469335064550e+00
6.700000000000000000e+01,3.348516211970482992e+00
6.800000000000000000e+01,3.388185238108327280e+00
6.900000000000000000e+01,3.427343074105852594e+00
7.000000000000000000e+01,3.466000441057730530e+00
7.100000000000000000e+01,3.504167640471693712e+00
7.200000000000000000e+01,3.541854206366046753e+00
7.300000000000000000e+01,3.579070338131011830e+00
7.400000000000000000e+01,3.615825653418168972e+00
7.500000000000000000e+01,3.652128441820388982e+00
7.600000000000000000e+01,3.687988448641048578e+00
7.700000000000000000e+01,3.723414360773594556e+00
7.800000000000000000e+01,3.758414889072875908e+00
7.900000000000000000e+01,3.792998187040275138e+00
8.000000000000000000e+01,3.827172770932530721e+00
8.100000000000000000e+01,3.860946616458648784e+00
8.200000000000000000e+01,3.894327275226931118e+00
8.300000000000000000e+01,3.927322814601452272e+00
8.400000000000000000e+01,3.959940201857282904e+00
8.500000000000000000e+01,3.992186342563890822e+00
8.600000000000000000e+01,4.024069092587667207e+00
8.700000000000000000e+01,4.055594546785441956e+00
8.800000000000000000e+01,4.086769972974055420e+00
8.900000000000000000e+01,4.117601718319475523e+00
9.000000000000000000e+01,4.148095818201728235e+00
9.100000000000000000e+01,4.178258820376813176e+00
9.200000000000000000e+01,4.208096622280798726e+00
9.300000000000000000e+01,4.237615948204293659e+00
9.400000000000000000e+01,4.266822104619151013e+00
9.500000000000000000e+01,4.295720469418734311e+00
9.600000000000000000e+01,4.324316109742817993e+00
9.700000000000000000e+01,4.352615098090858226e+00
9.800000000000000000e+01,4.380622006689779191e+00
9.900000000000000000e+01,4.408342831837374298e+00
1.000000000000000000e+02,4.435783179422806199e+00
1.010000000000000000e+02,4.462946642534593167e+00
1.020000000000000000e+02,4.489837940765224467e+00
1.030000000000000000e+02,4.516461877115273360e+00
1.040000000000000000e+02,4.542822992199886833e+00
1.050000000000000000e+02,4.568926139503123096e+00
1.060000000000000000e+02,4.594775635658718826e+00
1.070000000000000000e+02,4.620376605943331327e+00
1.080000000000000000e+02,4.645731794139155824e+00
1.090000000000000000e+02,4.670845070686684863e+00
1.100000000000000000e+02,4.695721159962379154e+00
1.110000000000000000e+02,4.720363704257515280e+00
1.120000000000000000e+02,4.744776775417189896e+00
1.130000000000000000e+02,4.768964749970928452e+00
1.140000000000000000e+02,4.792930051863101504e+00
1.150000000000000000e+02,4.816676124725230324e+00
1.160000000000000000e+02,4.840206732355819774e+00
1.170000000000000000e+02,4.863525695938109905e+00
1.180000000000000000e+02,4.886636450292443534e+00
1.190000000000000000e+02,4.909542304912966948e+00
1.200000000000000000e+02,4.932245535573829720e+00
1.210000000000000000e+02,4.954749529350780612e+00
1.220000000000000000e+02,4.977057411493069239e+00
1.230000000000000000e+02,4.999172619275405793e+00
1.240000000000000000e+02,5.021098331381694813e+00
1.250000000000000000e+02,5.042837019010082855e+00
1.260000000000000000e+02,5.064390521797583311e+00
1.270000000000000000e+02,5.085762518260272813e+00
1.280000000000000000e+02,5.106955487160077745e+00
1.290000000000000000e+02,5.127972359646999934e+00
1.300000000000000000e+02,5.148816147826888567e+00
1.310000000000000000e+02,5.169488321052169155e+00
1.320000000000000000e+02,5.189991518044752894e+00
1.330000000000000000e+02,5.210328380048502517e+00
1.340000000000000000e+02,5.230501508176108594e+00
1.350000000000000000e+02,5.250513125484324917e+00
1.360000000000000000e+02,5.270366229306553407e+00
1.370000000000000000e+02,5.290061676354961939e+00
1.380000000000000000e+02,5.309601998798983757e+00
1.390000000000000000e+02,5.328989488228390137e+00
1.400000000000000000e+02,5.348226654749852926e+00
1.410000000000000000e+02,5.367315528663126223e+00
1.420000000000000000e+02,5.386258524934040892e+00
1.430000000000000000e+02,5.405056386483013675e+00
1.440000000000000000e+02,5.423711624362834272e+00
1.450000000000000000e+02,5.442226125637695588e+00
1.460000000000000000e+02,5.460602038351066057e+00
1.470000000000000000e+02,5.478841412040629244e+00
1.480000000000000000e+02,5.496946239958591995e+00
1.490000000000000000e+02,5.514917344955489575e+00
1.500000000000000000e+02,5.532756597091391448e+00
1.510000000000000000e+02,5.550465930259832703e+00
1.520000000000000000e+02,5.568047378125505986e+00
1.530000000000000000e+02,5.585502470874384784e+00
1.540000000000000000e+02,5.602833220550163418e+00
1.550000000000000000e+02,5.620040438648414849e+00
1.560000000000000000e+02,5.637125504072367121e+00
1.570000000000000000e+02,5.654090309473266629e+00
1.580000000000000000e+02,5.670936445315333252e+00
1.590000000000000000e+02,5.687665643211251343e+00
1.600000000000000000e+02,5.704279484171681958e+00
1.610000000000000000e+02,5.720779081222186591e+00
1.620000000000000000e+02,5.737165590814792715e+00
1.630000000000000000e+02,5.753440671386179872e+00
1.640000000000000000e+02,5.769605168262715189e+00
1.650000000000000000e+02,5.785660919885260434e+00
1.660000000000000000e+02,5.801609200300349656e+00
1.670000000000000000e+02,5.817451530298646922e+00
1.680000000000000000e+02,5.833188879608476540e+00
1.690000000000000000e+02,5.848822708355123190e+00
1.700000000000000000e+02,5.864353694723234867e+00
1.710000000000000000e+02,5.879783448606820784e+00
1.720000000000000000e+02,5.895113140048048095e+00
1.730000000000000000e+02,5.910343544258994442e+00
1.740000000000000000e+02,5.925476285368713292e+00
1.750000000000000000e+02,5.940512620827387735e+00
1.760000000000000000e+02,5.955453615814453983e+00
1.770000000000000000e+02,5.970299688364436363e+00
1.780000000000000000e+02,5.985052357395334255e+00
1.790000000000000000e+02,5.999712557299297977e+00
1.800000000000000000e+02,6.014281461325062139e+00
1.810000000000000000e+02,6.028759992810446278e+00
1.820000000000000000e+02,6.043148991511380075e+00
1.830000000000000000e+02,6.057450077021779400e+00
1.840000000000000000e+02,6.071663852390740246e+00
1.850000000000000000e+02,6.085790876081307310e+00
1.860000000000000000e+02,6.099832481002694706e+00
1.870000000000000000e+02,6.113789410207058239e+00
1.880000000000000000e+02,6.127662453894571648e+00
1.890000000000000000e+02,6.141452851872594820e+00
1.900000000000000000e+02,6.155161542057336455e+00
1.910000000000000000e+02,6.168788767365232850e+00
1.920000000000000000e+02,6.182336204269741842e+00
1.930000000000000000e+02,6.195804309162072698e+00
1.940000000000000000e+02,6.209193711150917672e+00
1.950000000000000000e+02,6.222505299077513818e+00
1.960000000000000000e+02,6.235740216044903583e+00
1.970000000000000000e+02,6.248898834894756504e+00
1.980000000000000000e+02,6.261981998366922042e+00
1.990000000000000000e+02,6.274990503971110911e+00
2.000000000000000000e+02,6.287925460271850397e+00
2.010000000000000000e+02,6.300787130645564282e+00
2.020000000000000000e+02,6.313576595043113748e+00
2.030000000000000000e+02,6.326294154133639935e+00
2.040000000000000000e+02,6.338940976356571610e+00
2.050000000000000000e+02,6.351517397757696415e+00
2.060000000000000000e+02,6.364024383610056290e+00
2.070000000000000000e+02,6.376462393322886335e+00
2.080000000000000000e+02,6.388832164653916124e+00
2.090000000000000000e+02,6.401134594109396225e+00
2.100000000000000000e+02,6.413369965553741281e+00
2.110000000000000000e+02,6.425538897511851033e+00
2.120000000000000000e+02,6.437642421619752753e+00
2.130000000000000000e+02,6.449680905622753535e+00
2.140000000000000000e+02,6.461654710601138163e+00
2.150000000000000000e+02,6.473565308437030374e+00
2.160000000000000000e+02,6.485412200104281766e+00
2.170000000000000000e+02,6.497196279194775492e+00
2.180000000000000000e+02,6.508918701537307783e+00
2.190000000000000000e+02,6.520579503993617188e+00
2.200000000000000000e+02,6.532179270478452260e+00
2.210000000000000000e+02,6.543718848919386488e+00
2.220000000000000000e+02,6.555198257001594975e+00
2.230000000000000000e+02,6.566618596975176025e+00
2.240000000000000000e+02,6.577980413699447304e+00
2.250000000000000000e+02,6.589283704298868116e+00
2.260000000000000000e+02,6.600529270975528107e+00
2.270000000000000000e+02,6.611717636244184959e+00
2.280000000000000000e+02,6.622849314578478364e+00
2.290000000000000000e+02,6.633924812579919283e+00
2.300000000000000000e+02,6.644944629142385928e+00
2.310000000000000000e+02,6.655909255612264097e+00
2.320000000000000000e+02,6.666819175944354470e+00
2.330000000000000000e+02,6.677674604335758879e+00
2.340000000000000000e+02,6.688476274622046525e+00
2.350000000000000000e+02,6.699224649453775271e+00
2.360000000000000000e+02,6.709920184674449395e+00
2.370000000000000000e+02,6.720563329457237778e+00
2.380000000000000000e+02,6.731154268075147939e+00
2.390000000000000000e+02,6.741693439178506608e+00
2.400000000000000000e+02,6.752181788603738966e+00
2.410000000000000000e+02,6.762619225791726585e+00
2.420000000000000000e+02,6.773006170827814643e+00
2.430000000000000000e+02,6.783343546639687638e+00
2.440000000000000000e+02,6.793631249616357337e+00
2.450000000000000000e+02,6.803869682339740876e+00
2.460000000000000000e+02,6.814059493880032292e+00
2.470000000000000000e+02,6.824201073427787811e+00
2.480000000000000000e+02,6.834294554176677750e+00
2.490000000000000000e+02,6.844340316877566721e+00
2.500000000000000000e+02,6.854339235388080098e+00
2.510000000000000000e+02,6.864291178922082182e+00
2.520000000000000000e+02,6.874196760641748227e+00
2.530000000000000000e+02,6.884056091917030606e+00
2.540000000000000000e+02,6.893869774749957102e+00
2.550000000000000000e+02,6.903638157992002533e+00
2.560000000000000000e+02,6.913361585867729531e+00
2.570000000000000000e+02,6.923040153818965869e+00
2.580000000000000000e+02,6.932674686222632054e+00
2.590000000000000000e+02,6.942265026104312398e+00
2.600000000000000000e+02,6.951811744220114164e+00
2.610000000000000000e+02,6.961315404420539643e+00
2.620000000000000000e+02,6.970775841065041334e+00
2.630000000000000000e+02,6.980193370176241530e+00
2.640000000000000000e+02,6.989568782958881066e+00
2.650000000000000000e+02,6.998902144616516274e+00
2.660000000000000000e+02,7.008193995727866721e+00
2.670000000000000000e+02,7.017444157418895045e+00
2.680000000000000000e+02,7.026653163358179910e+00
2.690000000000000000e+02,7.035821304565500256e+00
2.700000000000000000e+02,7.044949104307366206e+00
2.710000000000000000e+02,7.054036609364223054e+00
2.720000000000000000e+02,7.063084100113555586e+00
2.730000000000000000e+02,7.072091853498726266e+00
2.740000000000000000e+02,7.081060376546392199e+00
2.750000000000000000e+02,7.089989704866409781e+00
2.760000000000000000e+02,7.098880337741952928e+00
2.770000000000000000e+02,7.107732305507731496e+00
2.780000000000000000e+02,7.116546331073821285e+00
2.790000000000000000e+02,7.125321976845287786e+00
2.800000000000000000e+02,7.134059959018170360e+00
2.810000000000000000e+02,7.142760068494607317e+00
2.820000000000000000e+02,7.151423013241677396e+00
2.830000000000000000e+02,7.160049037201476452e+00
2.840000000000000000e+02,7.168638609265306272e+00
2.850000000000000000e+02,7.177191511612888597e+00
2.860000000000000000e+02,7.185708434842896786e+00
2.870000000000000000e+02,7.194188931667588882e+00
2.880000000000000000e+02,7.202634138036557943e+00
2.890000000000000000e+02,7.211043602971647815e+00
2.900000000000000000e+02,7.219417777612123110e+00
2.910000000000000000e+02,7.227757108455960200e+00
2.920000000000000000e+02,7.236061813873113202e+00
2.930000000000000000e+02,7.244331663678011068e+00
2.940000000000000000e+02,7.252567096975397476e+00
2.950000000000000000e+02,7.260768548443267356e+00
2.960000000000000000e+02,7.268935562215063761e+00
2.970000000000000000e+02,7.277069675541265603e+00
2.980000000000000000e+02,7.285169985370252732e+00
2.990000000000000000e+02,7.293236916682034554e+00
3.000000000000000000e+02,7.301270890278209968e+00
3.010000000000000000e+02,7.309272322850797643e+00
3.020000000000000000e+02,7.317240752519475144e+00
3.030000000000000000e+02,7.325177029957913533e+00
3.040000000000000000e+02,7.333080909640207423e+00
3.050000000000000000e+02,7.340953016641260653e+00
3.060000000000000000e+02,7.348792886500974397e+00
3.070000000000000000e+02,7.356601572409140921e+00
3.080000000000000000e+02,7.364378823198713953e+00
3.090000000000000000e+02,7.372124389441150782e+00
3.100000000000000000e+02,7.379839527982993808e+00
3.110000000000000000e+02,7.387523554390031499e+00
3.120000000000000000e+02,7.395176645732433052e+00
3.130000000000000000e+02,7.402799404456367860e+00
3.140000000000000000e+02,7.410392214523351839e+00
3.150000000000000000e+02,7.417954605460804984e+00
3.160000000000000000e+02,7.425487384091439047e+00
3.170000000000000000e+02,7.432990290975650005e+00
3.180000000000000000e+02,7.440463491316337219e+00
3.190000000000000000e+02,7.447907359669597049e+00
3.200000000000000000e+02,7.455321846043220901e+00
3.210000000000000000e+02,7.462707531075817080e+00
3.220000000000000000e+02,7.470064151373983385e+00
3.230000000000000000e+02,7.477392282749756980e+00
3.240000000000000000e+02,7.484691660347621678e+00
3.250000000000000000e+02,7.491962855260055676e+00
3.260000000000000000e+02,7.499205809380972809e+00
3.270000000000000000e+02,7.506420464733315256e+00
3.280000000000000000e+02,7.513607385523649818e+00
3.290000000000000000e+02,7.520766510459376164e+00
3.300000000000000000e+02,7.527898398105024924e+00
3.310000000000000000e+02,7.535002777787271455e+00
3.320000000000000000e+02,7.542079792148642881e+00
3.330000000000000000e+02,7.549129582457463350e+00
3.340000000000000000e+02,7.556152288625636260e+00
3.350000000000000000e+02,7.563148663165549124e+00
3.360000000000000000e+02,7.570117818589543468e+00
3.370000000000000000e+02,7.577060912589540287e+00
3.380000000000000000e+02,7.583977669437592439e+00
3.390000000000000000e+02,7.590868221441120056e+00
3.400000000000000000e+02,7.597732294090532967e+00
3.410000000000000000e+02,7.604570626682087386e+00
3.420000000000000000e+02,7.611383346744024614e+00
3.430000000000000000e+02,7.618170177221036177e+00
3.440000000000000000e+02,7.624931648125492956e+00
3.450000000000000000e+02,7.631667883471355829e+00
3.460000000000000000e+02,7.638378604864209720e+00
3.470000000000000000e+02,7.645064136445076208e+00
3.480000000000000000e+02,7.651724999759820456e+00
3.490000000000000000e+02,7.658360914115561968e+00
3.500000000000000000e+02,7.664972198238882761e+00
3.510000000000000000e+02,7.671558770598474908e+00
3.520000000000000000e+02,7.678120947092493154e+00
3.530000000000000000e+02,7.684658842985222726e+00
3.540000000000000000e+02,7.691172572509167082e+00
3.550000000000000000e+02,7.697662446434100580e+00
3.560000000000000000e+02,7.704128181520876417e+00
3.570000000000000000e+02,7.710569889974270730e+00
3.580000000000000000e+02,7.716988272708596774e+00
3.590000000000000000e+02,7.723382652048033314e+00
3.600000000000000000e+02,7.729753725992215330e+00
3.610000000000000000e+02,7.736101796514295970e+00
3.620000000000000000e+02,7.742426382267644236e+00
3.630000000000000000e+02,7.748728174580003625e+00
3.640000000000000000e+02,7.755006497543122990e+00
3.650000000000000000e+02,7.761262428373879807e+00
3.660000000000000000e+02,7.767495096931040344e+00
3.670000000000000000e+02,7.773705769235728980e+00
3.680000000000000000e+02,7.779893575590788757e+00
3.690000000000000000e+02,7.786058810179828704e+00
3.700000000000000000e+02,7.792201957894448583e+00
3.710000000000000000e+02,7.798323115381063708e+00
3.720000000000000000e+02,7.804421994093735826e+00
3.730000000000000000e+02,7.810498882741923943e+00
3.740000000000000000e+02,7.816553876435794912e+00
3.750000000000000000e+02,7.822587452081733339e+00
3.760000000000000000e+02,7.828599128429566179e+00
3.770000000000000000e+02,7.834589380530611713e+00
3.780000000000000000e+02,7.840557918646529068e+00
3.790000000000000000e+02,7.846505405257848231e+00
3.800000000000000000e+02,7.852431549407860700e+00
3.810000000000000000e+02,7.858336630376657972e+00
3.820000000000000000e+02,7.864220736294130099e+00
3.830000000000000000e+02,7.870083954569178530e+00
3.840000000000000000e+02,7.875926371897508993e+00
3.850000000000000000e+02,7.881747885833077838e+00
3.860000000000000000e+02,7.887548958817692579e+00
3.870000000000000000e+02,7.893329298854563802e+00
3.880000000000000000e+02,7.899089178293895230e+00
3.890000000000000000e+02,7.904829055048739228e+00
3.900000000000000000e+02,7.910548635930620520e+00
3.910000000000000000e+02,7.916247816059452269e+00
3.920000000000000000e+02,7.921927423619544051e+00
3.930000000000000000e+02,7.927586605508182060e+00
3.940000000000000000e+02,7.933226001292574381e+00
3.950000000000000000e+02,7.938845875257989348e+00
3.960000000000000000e+02,7.944445933602798604e+00
3.970000000000000000e+02,7.950026439644251042e+00
3.980000000000000000e+02,7.955587470094822145e+00
