# Time [s], Temperature [C]
1.000000000000000000e+00,2.499996799999999908e+01
2.000000000000000000e+00,3.368703800000000115e+01
3.000000000000000000e+00,3.877056900000000184e+01
4.000000000000000000e+00,4.289767799999999909e+01
5.000000000000000000e+00,4.636095000000000255e+01
6.000000000000000000e+00,4.940608600000000195e+01
7.000000000000000000e+00,5.213811900000000321e+01
8.000000000000000000e+00,5.463093899999999792e+01
9.000000000000000000e+00,5.693174400000000190e+01
1.000000000000000000e+01,5.907428000000000168e+01
1.100000000000000000e+01,6.108364100000000008e+01
1.200000000000000000e+01,6.297886299999999693e+01
1.300000000000000000e+01,6.477471199999999385e+01
1.400000000000000000e+01,6.648359700000000316e+01
1.500000000000000000e+01,6.811481499999999301e+01
1.600000000000000000e+01,6.967608599999999797e+01
1.700000000000000000e+01,7.117524000000000228e+01
1.800000000000000000e+01,7.261738599999999622e+01
1.900000000000000000e+01,7.400714899999999830e+01
2.000000000000000000e+01,7.534963999999999373e+01
2.100000000000000000e+01,7.664765900000000443e+01
2.200000000000000000e+01,7.790512800000000482e+01
2.300000000000000000e+01,7.912479399999999430e+01
2.400000000000000000e+01,8.030904400000000010e+01
2.500000000000000000e+01,8.146018200000000320e+01
2.600000000000000000e+01,8.258041400000000465e+01
2.700000000000000000e+01,8.367142499999999927e+01
2.800000000000000000e+01,8.473491699999999582e+01
2.900000000000000000e+01,8.577253699999999981e+01
3.000000000000000000e+01,8.678584299999999985e+01
3.100000000000000000e+01,8.777552799999999422e+01
3.200000000000000000e+01,8.874334000000000344e+01
3.300000000000000000e+01,8.969006299999999499e+01
3.400000000000000000e+01,9.061674499999999455e+01
3.500000000000000000e+01,9.152459699999999998e+01
3.600000000000000000e+01,9.241404699999999650e+01
3.700000000000000000e+01,9.328591900000000692e+01
3.800000000000000000e+01,9.414130400000000520e+01
3.900000000000000000e+01,9.498065900000000283e+01
4.000000000000000000e+01,9.580448199999999304e+01
4.100000000000000000e+01,9.661377000000000237e+01
4.200000000000000000e+01,9.740874499999999614e+01
4.300000000000000000e+01,9.818985000000000696e+01
4.400000000000000000e+01,9.895803100000000541e+01
4.500000000000000000e+01,9.971351599999999848e+01
4.600000000000000000e+01,1.004571700000000050e+02
4.700000000000000000e+01,1.011888000000000005e+02
4.800000000000000000e+01,1.019089799999999997e+02
4.900000000000000000e+01,1.026181700000000063e+02
5.000000000000000000e+01,1.033168299999999959e+02
5.100000000000000000e+01,1.040050800000000066e+02
5.200000000000000000e+01,1.046834900000000061e+02
5.300000000000000000e+01,1.053524400000000014e+02
5.400000000000000000e+01,1.060118599999999986e+02
5.500000000000000000e+01,1.066623900000000020e+02
5.600000000000000000e+01,1.073042999999999978e+02
5.700000000000000000e+01,1.079375200000000063e+02
5.800000000000000000e+01,1.085626199999999955e+02
5.900000000000000000e+01,1.091798399999999987e+02
6.000000000000000000e+01,1.097892200000000003e+02
6.100000000000000000e+01,1.103909100000000052e+02
6.200000000000000000e+01,1.109856000000000051e+02
6.300000000000000000e+01,1.115731700000000046e+02
6.400000000000000000e+01,1.121539800000000042e+02
6.500000000000000000e+01,1.127278100000000052e+02
6.600000000000000000e+01,1.132954699999999946e+02
6.700000000000000000e+01,1.138564800000000048e+02
6.800000000000000000e+01,1.144117600000000010e+02
6.900000000000000000e+01,1.149606899999999996e+02
7.000000000000000000e+01,1.155041300000000035e+02
7.100000000000000000e+01,1.160420699999999954e+02
7.200000000000000000e+01,1.165741000000000014e+02
7.300000000000000000e+01,1.171010799999999961e+02
7.400000000000000000e+01,1.176227300000000042e+02
7.500000000000000000e+01,1.181392900000000026e+02
7.600000000000000000e+01,1.186511600000000044e+02
7.700000000000000000e+01,1.191580000000000013e+02
7.800000000000000000e+01,1.196601299999999952e+02
7.900000000000000000e+01,1.201578899999999948e+02
8.000000000000000000e+01,1.206510600000000011e+02
8.100000000000000000e+01,1.211400600000000054e+02
8.200000000000000000e+01,1.216247599999999949e+02
8.300000000000000000e+01,1.221055400000000049e+02
8.400000000000000000e+01,1.225820099999999968e+02
8.500000000000000000e+01,1.230547600000000017e+02
8.600000000000000000e+01,1.235236299999999972e+02
8.700000000000000000e+01,1.239888799999999947e+02
8.800000000000000000e+01,1.244503299999999939e+02
8.900000000000000000e+01,1.249084600000000052e+02
9.000000000000000000e+01,1.253630799999999965e+02
9.100000000000000000e+01,1.258143100000000061e+02
9.200000000000000000e+01,1.262622400000000056e+02
9.300000000000000000e+01,1.267068900000000014e+02
9.400000000000000000e+01,1.271484999999999985e+02
9.500000000000000000e+01,1.275871099999999956e+02
9.600000000000000000e+01,1.280227099999999893e+02
9.700000000000000000e+01,1.284554300000000069e+02
9.800000000000000000e+01,1.288853799999999978e+02
9.900000000000000000e+01,1.293124699999999905e+02
1.000000000000000000e+02,1.297366499999999974e+02
1.010000000000000000e+02,1.301583100000000002e+02
1.020000000000000000e+02,1.305773499999999956e+02
1.030000000000000000e+02,1.309937400000000025e+02
1.040000000000000000e+02,1.314078700000000026e+02
1.050000000000000000e+02,1.318194900000000018e+02
1.060000000000000000e+02,1.322287399999999877e+02
1.070000000000000000e+02,1.326357099999999889e+02
1.080000000000000000e+02,1.330403900000000021e+02
1.090000000000000000e+02,1.334427499999999895e+02
1.100000000000000000e+02,1.338429600000000050e+02
1.110000000000000000e+02,1.342410299999999950e+02
1.120000000000000000e+02,1.346369799999999941e+02
1.130000000000000000e+02,1.350307500000000118e+02
1.140000000000000000e+02,1.354226099999999917e+02
1.150000000000000000e+02,1.358125200000000063e+02
1.160000000000000000e+02,1.362005599999999959e+02
1.170000000000000000e+02,1.365866900000000044e+02
1.180000000000000000e+02,1.369709499999999878e+02
1.190000000000000000e+02,1.373534400000000062e+02
1.200000000000000000e+02,1.377341199999999901e+02
1.210000000000000000e+02,1.381130400000000122e+02
1.220000000000000000e+02,1.384902800000000127e+02
1.230000000000000000e+02,1.388657699999999977e+02
1.240000000000000000e+02,1.392395799999999895e+02
1.250000000000000000e+02,1.396119099999999946e+02
1.260000000000000000e+02,1.399824700000000064e+02
1.270000000000000000e+02,1.403514900000000125e+02
1.280000000000000000e+02,1.407190099999999973e+02
1.290000000000000000e+02,1.410851600000000019e+02
1.300000000000000000e+02,1.414496900000000039e+02
1.310000000000000000e+02,1.418127900000000068e+02
1.320000000000000000e+02,1.421743899999999883e+02
1.330000000000000000e+02,1.425345800000000054e+02
1.340000000000000000e+02,1.428934000000000140e+02
1.350000000000000000e+02,1.432508100000000013e+02
1.360000000000000000e+02,1.436068600000000117e+02
1.370000000000000000e+02,1.439615900000000011e+02
1.380000000000000000e+02,1.443151100000000042e+02
1.390000000000000000e+02,1.446671599999999955e+02
1.400000000000000000e+02,1.450180499999999881e+02
1.410000000000000000e+02,1.453676299999999912e+02
1.420000000000000000e+02,1.457159699999999987e+02
1.430000000000000000e+02,1.460631600000000105e+02
1.440000000000000000e+02,1.464090999999999951e+02
1.450000000000000000e+02,1.467540300000000002e+02
1.460000000000000000e+02,1.470978399999999908e+02
1.470000000000000000e+02,1.474402800000000013e+02
1.480000000000000000e+02,1.477815999999999974e+02
1.490000000000000000e+02,1.481218399999999917e+02
1.500000000000000000e+02,1.484609399999999937e+02
1.510000000000000000e+02,1.487989200000000096e+02
1.520000000000000000e+02,1.491359099999999955e+02
1.530000000000000000e+02,1.494719499999999925e+02
1.540000000000000000e+02,1.498069600000000037e+02
1.550000000000000000e+02,1.501408800000000099e+02
1.560000000000000000e+02,1.504736900000000048e+02
1.570000000000000000e+02,1.508054700000000139e+02
1.580000000000000000e+02,1.511362499999999898e+02
1.590000000000000000e+02,1.514660000000000082e+02
1.600000000000000000e+02,1.517948599999999999e+02
1.610000000000000000e+02,1.521226499999999930e+02
1.620000000000000000e+02,1.524496599999999944e+02
1.630000000000000000e+02,1.527756200000000035e+02
1.640000000000000000e+02,1.531006899999999860e+02
1.650000000000000000e+02,1.534247400000000141e+02
1.660000000000000000e+02,1.537479600000000062e+02
1.670000000000000000e+02,1.540701300000000060e+02
1.680000000000000000e+02,1.543914200000000108e+02
1.690000000000000000e+02,1.547119800000000112e+02
1.700000000000000000e+02,1.550315899999999942e+02
1.710000000000000000e+02,1.553503599999999949e+02
1.720000000000000000e+02,1.556681199999999876e+02
1.730000000000000000e+02,1.559851400000000012e+02
1.740000000000000000e+02,1.563012200000000007e+02
1.750000000000000000e+02,1.566166100000000085e+02
1.760000000000000000e+02,1.569311700000000087e+02
1.770000000000000000e+02,1.572446899999999914e+02
1.780000000000000000e+02,1.575574000000000012e+02
1.790000000000000000e+02,1.578694000000000131e+02
1.800000000000000000e+02,1.581805699999999888e+02
1.810000000000000000e+02,1.584911299999999983e+02
1.820000000000000000e+02,1.588006599999999935e+02
1.830000000000000000e+02,1.591093799999999874e+02
1.840000000000000000e+02,1.594172499999999957e+02
1.850000000000000000e+02,1.597244699999999966e+02
1.860000000000000000e+02,1.600309599999999932e+02
1.870000000000000000e+02,1.603366399999999885e+02
1.880000000000000000e+02,1.606415599999999984e+02
1.890000000000000000e+02,1.609456500000000005e+02
1.900000000000000000e+02,1.612490400000000079e+02
1.910000000000000000e+02,1.615517299999999921e+02
1.920000000000000000e+02,1.618536100000000033e+02
1.930000000000000000e+02,1.621547099999999944e+02
1.940000000000000000e+02,1.624551700000000096e+02
1.950000000000000000e+02,1.627547500000000014e+02
1.960000000000000000e+02,1.630537699999999859e+02
1.970000000000000000e+02,1.633520399999999881e+02
1.980000000000000000e+02,1.636496300000000019e+02
1.990000000000000000e+02,1.639463000000000079e+02
2.000000000000000000e+02,1.642423200000000065e+02
2.010000000000000000e+02,1.645377499999999884e+02
2.020000000000000000e+02,1.648324599999999975e+02
2.030000000000000000e+02,1.651263899999999865e+02
2.040000000000000000e+02,1.654196499999999901e+02
2.050000000000000000e+02,1.657122999999999990e+02
2.060000000000000000e+02,1.660042699999999911e+02
2.070000000000000000e+02,1.662953799999999944e+02
2.080000000000000000e+02,1.665858800000000031e+02
2.090000000000000000e+02,1.668757300000000043e+02
2.100000000000000000e+02,1.671650500000000079e+02
2.110000000000000000e+02,1.674534500000000037e+02
2.120000000000000000e+02,1.677411999999999921e+02
2.130000000000000000e+02,1.680283100000000047e+02
2.140000000000000000e+02,1.683149999999999977e+02
2.150000000000000000e+02,1.686008099999999956e+02
2.160000000000000000e+02,1.688859300000000019e+02
2.170000000000000000e+02,1.691704699999999946e+02
2.180000000000000000e+02,1.694544699999999864e+02
2.190000000000000000e+02,1.697376999999999896e+02
2.200000000000000000e+02,1.700202199999999948e+02
2.210000000000000000e+02,1.703021899999999960e+02
2.220000000000000000e+02,1.705835299999999961e+02
2.230000000000000000e+02,1.708641800000000046e+02
2.240000000000000000e+02,1.711442900000000122e+02
2.250000000000000000e+02,1.714235700000000122e+02
2.260000000000000000e+02,1.717024099999999862e+02
2.270000000000000000e+02,1.719805599999999970e+02
2.280000000000000000e+02,1.722580700000000036e+02
2.290000000000000000e+02,1.725349699999999871e+02
2.300000000000000000e+02,1.728112500000000011e+02
2.310000000000000000e+02,1.730869399999999985e+02
2.320000000000000000e+02,1.733618800000000135e+02
2.330000000000000000e+02,1.736363800000000026e+02
2.340000000000000000e+02,1.739102300000000128e+02
2.350000000000000000e+02,1.741833499999999901e+02
2.360000000000000000e+02,1.744559500000000014e+02
2.370000000000000000e+02,1.747279800000000023e+02
2.380000000000000000e+02,1.749993699999999990e+02
2.390000000000000000e+02,1.752701099999999883e+02
2.400000000000000000e+02,1.755403900000000021e+02
2.410000000000000000e+02,1.758100000000000023e+02
2.420000000000000000e+02,1.760789000000000044e+02
2.430000000000000000e+02,1.763472600000000057e+02
2.440000000000000000e+02,1.766152299999999968e+02
2.450000000000000000e+02,1.768823899999999867e+02
2.460000000000000000e+02,1.771489899999999977e+02
2.470000000000000000e+02,1.774152200000000050e+02
2.480000000000000000e+02,1.776806599999999889e+02
2.490000000000000000e+02,1.779454800000000034e+02
2.500000000000000000e+02,1.782099300000000142e+02
2.510000000000000000e+02,1.784736499999999921e+02
2.520000000000000000e+02,1.787367600000000039e+02
2.530000000000000000e+02,1.789993000000000052e+02
2.540000000000000000e+02,1.792613699999999994e+02
2.550000000000000000e+02,1.795228099999999927e+02
2.560000000000000000e+02,1.797836800000000039e+02
2.570000000000000000e+02,1.800440700000000049e+02
2.580000000000000000e+02,1.803037899999999922e+02
2.590000000000000000e+02,1.805629600000000039e+02
2.600000000000000000e+02,1.808216400000000021e+02
2.610000000000000000e+02,1.810796799999999962e+02
2.620000000000000000e+02,1.813372200000000021e+02
2.630000000000000000e+02,1.815942200000000071e+02
2.640000000000000000e+02,1.818506199999999922e+02
2.650000000000000000e+02,1.821064900000000080e+02
2.660000000000000000e+02,1.823618199999999945e+02
2.670000000000000000e+02,1.826165599999999927e+02
2.680000000000000000e+02,1.828707899999999995e+02
2.690000000000000000e+02,1.831244800000000055e+02
2.700000000000000000e+02,1.833775899999999979e+02
2.710000000000000000e+02,1.836300500000000113e+02
2.720000000000000000e+02,1.838821900000000085e+02
2.730000000000000000e+02,1.841336799999999982e+02
2.740000000000000000e+02,1.843845399999999870e+02
2.750000000000000000e+02,1.846350700000000131e+02
2.760000000000000000e+02,1.848849600000000066e+02
2.770000000000000000e+02,1.851341999999999928e+02
2.780000000000000000e+02,1.853831299999999942e+02
2.790000000000000000e+02,1.856314399999999978e+02
2.800000000000000000e+02,1.858790899999999908e+02
2.810000000000000000e+02,1.861265300000000025e+02
2.820000000000000000e+02,1.863731400000000065e+02
2.830000000000000000e+02,1.866192499999999939e+02
2.840000000000000000e+02,1.868650800000000061e+02
2.850000000000000000e+02,1.871101199999999949e+02
2.860000000000000000e+02,1.873546800000000019e+02
2.870000000000000000e+02,1.875989399999999989e+02
2.880000000000000000e+02,1.878424200000000042e+02
2.890000000000000000e+02,1.880856200000000058e+02
2.900000000000000000e+02,1.883281399999999906e+02
2.910000000000000000e+02,1.885701099999999997e+02
2.920000000000000000e+02,1.888117499999999893e+02
2.930000000000000000e+02,1.890527199999999937e+02
2.940000000000000000e+02,1.892932099999999878e+02
2.950000000000000000e+02,1.895332200000000000e+02
2.960000000000000000e+02,1.897727199999999925e+02
2.970000000000000000e+02,1.900117999999999938e+02
2.980000000000000000e+02,1.902502000000000066e+02
2.990000000000000000e+02,1.904882399999999905e+02
3.000000000000000000e+02,1.907256800000000112e+02
3.010000000000000000e+02,1.909626299999999901e+02
3.020000000000000000e+02,1.911991399999999999e+02
3.030000000000000000e+02,1.914350900000000024e+02
3.040000000000000000e+02,1.916705900000000042e+02
3.050000000000000000e+02,1.919056199999999990e+02
3.060000000000000000e+02,1.921400600000000054e+02
3.070000000000000000e+02,1.923740500000000111e+02
3.080000000000000000e+02,1.926075999999999908e+02
3.090000000000000000e+02,1.928406500000000108e+02
3.100000000000000000e+02,1.930730599999999981e+02
3.110000000000000000e+02,1.933051499999999976e+02
3.120000000000000000e+02,1.935367099999999994e+02
3.130000000000000000e+02,1.937677600000000098e+02
3.140000000000000000e+02,1.939983699999999942e+02
3.150000000000000000e+02,1.942283299999999997e+02
3.160000000000000000e+02,1.944579600000000141e+02
3.170000000000000000e+02,1.946870900000000120e+02
3.180000000000000000e+02,1.949156999999999869e+02
3.190000000000000000e+02,1.951438599999999894e+02
3.200000000000000000e+02,1.953714400000000069e+02
3.210000000000000000e+02,1.955987499999999955e+02
3.220000000000000000e+02,1.958253200000000049e+02
3.230000000000000000e+02,1.960516200000000140e+02
3.240000000000000000e+02,1.962773899999999969e+02
3.250000000000000000e+02,1.965026400000000137e+02
3.260000000000000000e+02,1.967274899999999889e+02
3.270000000000000000e+02,1.969516399999999976e+02
3.280000000000000000e+02,1.971755499999999870e+02
3.290000000000000000e+02,1.973988300000000038e+02
3.300000000000000000e+02,1.976217699999999979e+02
3.310000000000000000e+02,1.978441799999999944e+02
3.320000000000000000e+02,1.980659799999999962e+02
3.330000000000000000e+02,1.982875200000000007e+02
3.340000000000000000e+02,1.985083600000000104e+02
3.350000000000000000e+02,1.987290000000000134e+02
3.360000000000000000e+02,1.989489100000000121e+02
3.370000000000000000e+02,1.991685200000000009e+02
3.380000000000000000e+02,1.993875299999999982e+02
3.390000000000000000e+02,1.996060600000000136e+02
3.400000000000000000e+02,1.998242600000000095e+02
3.410000000000000000e+02,2.000418500000000108e+02
3.420000000000000000e+02,2.002590899999999863e+02
3.430000000000000000e+02,2.004756899999999860e+02
3.440000000000000000e+02,2.006920599999999979e+02
3.450000000000000000e+02,2.009077100000000087e+02
3.460000000000000000e+02,2.011230899999999906e+02
3.470000000000000000e+02,2.013377999999999872e+02
3.480000000000000000e+02,2.015521200000000022e+02
3.490000000000000000e+02,2.017659500000000037e+02
3.500000000000000000e+02,2.019793200000000013e+02
3.510000000000000000e+02,2.021923500000000047e+02
3.520000000000000000e+02,2.024046899999999880e+02
3.530000000000000000e+02,2.026168399999999963e+02
3.540000000000000000e+02,2.028282199999999875e+02
3.550000000000000000e+02,2.030393400000000099e+02
3.560000000000000000e+02,2.032498300000000029e+02
3.570000000000000000e+02,2.034599200000000110e+02
3.580000000000000000e+02,2.036695100000000025e+02
3.590000000000000000e+02,2.038786900000000060e+02
3.600000000000000000e+02,2.040873400000000117e+02
3.610000000000000000e+02,2.042955000000000041e+02
3.620000000000000000e+02,2.045032300000000021e+02
3.630000000000000000e+02,2.047104899999999930e+02
3.640000000000000000e+02,2.049172499999999957e+02
3.650000000000000000e+02,2.051235700000000008e+02
3.660000000000000000e+02,2.053294999999999959e+02
3.670000000000000000e+02,2.055347399999999993e+02
3.680000000000000000e+02,2.057397799999999961e+02
3.690000000000000000e+02,2.059440899999999885e+02
3.700000000000000000e+02,2.061480999999999995e+02
3.710000000000000000e+02,2.063514900000000125e+02
3.720000000000000000e+02,2.065544399999999996e+02
3.730000000000000000e+02,2.067569100000000049e+02
3.740000000000000000e+02,2.069590000000000032e+02
3.750000000000000000e+02,2.071605399999999975e+02
3.760000000000000000e+02,2.073616299999999910e+02
3.770000000000000000e+02,2.075622600000000091e+02
3.780000000000000000e+02,2.077624099999999885e+02
3.790000000000000000e+02,2.079620500000000050e+02
3.800000000000000000e+02,2.081612900000000081e+02
3.810000000000000000e+02,2.083599399999999946e+02
3.820000000000000000e+02,2.085581500000000119e+02
3.830000000000000000e+02,2.087559400000000096e+02
3.840000000000000000e+02,2.089532299999999907e+02
3.850000000000000000e+02,2.091500100000000089e+02
3.860000000000000000e+02,2.093463700000000074e+02
3.870000000000000000e+02,2.095422199999999862e+02
3.880000000000000000e+02,2.097375900000000115e+02
3.890000000000000000e+02,2.099325100000000077e+02
3.900000000000000000e+02,2.101269200000000126e+02
3.910000000000000000e+02,2.103208500000000072e+02
3.920000000000000000e+02,2.105143400000000042e+02
3.930000000000000000e+02,2.107073100000000068e+02
3.940000000000000000e+02,2.108998100000000022e+02
3.950000000000000000e+02,2.110918700000000001e+02
3.960000000000000000e+02,2.112834499999999878e+02
3.970000000000000000e+02,2.114745000000000061e+02
3.980000000000000000e+02,2.116651599999999860e+02
3.990000000000000000e+02,2.118552899999999966e+02
