# Time [s], Convective Heat Transfer Coefficient [W/m2K]
1.000000000000000000e+00,0.000000000000000000e+00
2.000000000000000000e+00,0.000000000000000000e+00
3.000000000000000000e+00,0.000000000000000000e+00
4.000000000000000000e+00,0.000000000000000000e+00
5.000000000000000000e+00,0.000000000000000000e+00
6.000000000000000000e+00,0.000000000000000000e+00
7.000000000000000000e+00,2.412849599104084641e-02
8.000000000000000000e+00,4.055970506183135399e-02
9.000000000000000000e+00,6.173553112719559754e-02
1.000000000000000000e+01,8.977029687088833310e-02
1.100000000000000000e+01,1.246122643025703580e-01
1.200000000000000000e+01,1.667381191939417695e-01
1.300000000000000000e+01,2.161589465656958975e-01
1.400000000000000000e+01,2.727057221597701253e-01
1.500000000000000000e+01,3.360355140088369108e-01
1.600000000000000000e+01,4.056326261739034433e-01
1.700000000000000000e+01,4.809407793527263886e-01
1.800000000000000000e+01,5.613618051405943055e-01
1.900000000000000000e+01,6.463206712438472890e-01
2.000000000000000000e+01,7.352192265275704353e-01
2.100000000000000000e+01,8.313463080359470014e-01
2.200000000000000000e+01,9.283192789621105279e-01
2.300000000000000000e+01,1.027160891747736837e+00
2.400000000000000000e+01,1.127692288615886884e+00
2.500000000000000000e+01,1.229561443707816615e+00
2.600000000000000000e+01,1.332431604982851958e+00
2.700000000000000000e+01,1.436003518689504821e+00
2.800000000000000000e+01,1.539996864292259460e+00
2.900000000000000000e+01,1.644176201903821077e+00
3.000000000000000000e+01,1.748325585224935308e+00
3.100000000000000000e+01,1.852267601721010015e+00
3.200000000000000000e+01,1.955849942188228940e+00
3.300000000000000000e+01,2.058943319920194082e+00
3.400000000000000000e+01,2.161443646238680127e+00
3.500000000000000000e+01,2.263261450735560398e+00
3.600000000000000000e+01,2.364324384485800845e+00
3.700000000000000000e+01,2.464576564575673867e+00
3.800000000000000000e+01,2.563971378099064502e+00
3.900000000000000000e+01,2.662478330214963052e+00
4.000000000000000000e+01,2.760065019497468075e+00
4.100000000000000000e+01,2.856716099039490864e+00
4.200000000000000000e+01,2.952418125853128128e+00
4.300000000000000000e+01,3.047161442937299736e+00
4.400000000000000000e+01,3.140938499340617973e+00
4.500000000000000000e+01,3.233756659609705153e+00
4.600000000000000000e+01,3.325613870702054609e+00
4.700000000000000000e+01,3.416516491197042704e+00
4.800000000000000000e+01,3.506473924910190387e+00
4.900000000000000000e+01,3.595501438689090890e+00
5.000000000000000000e+01,3.683606542252925387e+00
5.100000000000000000e+01,3.770807213938277336e+00
5.200000000000000000e+01,3.857114440148325052e+00
5.300000000000000000e+01,3.942546509083117545e+00
5.400000000000000000e+01,4.027117279454128784e+00
5.500000000000000000e+01,4.110838883627558893e+00
5.600000000000000000e+01,4.193724962777426235e+00
5.700000000000000000e+01,4.275788121942145636e+00
5.800000000000000000e+01,4.357041400428276035e+00
5.900000000000000000e+01,4.437498484566575918e+00
6.000000000000000000e+01,4.517166421025019751e+00
6.100000000000000000e+01,4.596059382416571637e+00
6.200000000000000000e+01,4.674201472444377004e+00
6.300000000000000000e+01,4.751584791468212998e+00
6.400000000000000000e+01,4.828223879096711357e+00
6.500000000000000000e+01,4.904125555860254337e+00
6.600000000000000000e+01,4.979307093546092133e+00
6.700000000000000000e+01,5.053780922834564038e+00
6.800000000000000000e+01,5.127557969301902219e+00
6.900000000000000000e+01,5.200655205159163685e+00
7.000000000000000000e+01,5.273081088831237828e+00
7.100000000000000000e+01,5.344847379575003998e+00
7.200000000000000000e+01,5.415966269359020480e+00
7.300000000000000000e+01,5.486449233921854685e+00
7.400000000000000000e+01,5.556300293923959188e+00
7.500000000000000000e+01,5.625530834308945849e+00
7.600000000000000000e+01,5.694146923348518463e+00
7.700000000000000000e+01,5.762155544585226608e+00
7.800000000000000000e+01,5.829558953161321000e+00
7.900000000000000000e+01,5.896366966866221304e+00
8.000000000000000000e+01,5.962585078664830895e+00
8.100000000000000000e+01,6.028219828987139373e+00
8.200000000000000000e+01,6.093275993417816672e+00
8.300000000000000000e+01,6.157763167565939888e+00
8.400000000000000000e+01,6.221682887346219992e+00
8.500000000000000000e+01,6.285064683040963551e+00
8.600000000000000000e+01,6.347883534556237883e+00
8.700000000000000000e+01,6.410155490291576719e+00
8.800000000000000000e+01,6.471884124452079057e+00
8.900000000000000000e+01,6.533084475755879694e+00
9.000000000000000000e+01,6.593763702832962537e+00
9.100000000000000000e+01,6.653936136570097304e+00
9.200000000000000000e+01,6.713608349415567389e+00
9.300000000000000000e+01,6.772783391394320063e+00
9.400000000000000000e+01,6.831464592887620313e+00
9.500000000000000000e+01,6.889650599413640997e+00
9.600000000000000000e+01,6.947342783582498349e+00
9.700000000000000000e+01,7.004539765609864688e+00
9.800000000000000000e+01,7.061242085737969632e+00
9.900000000000000000e+01,7.117449733988546079e+00
1.000000000000000000e+02,7.173161957202870198e+00
1.010000000000000000e+02,7.228377979820604260e+00
1.020000000000000000e+02,7.283099204558673101e+00
1.030000000000000000e+02,7.337326869912975447e+00
1.040000000000000000e+02,7.391061626446941979e+00
1.050000000000000000e+02,7.444302093224171024e+00
1.060000000000000000e+02,7.497047909243677921e+00
1.070000000000000000e+02,7.549302120596243171e+00
1.080000000000000000e+02,7.601061217144616577e+00
1.090000000000000000e+02,7.652356745073965349e+00
1.100000000000000000e+02,7.703143309963905061e+00
1.110000000000000000e+02,7.753433829357982532e+00
1.120000000000000000e+02,7.803242161034671831e+00
1.130000000000000000e+02,7.852582284147905156e+00
1.140000000000000000e+02,7.901451979469245934e+00
1.150000000000000000e+02,7.949841036724657251e+00
1.160000000000000000e+02,7.997728980649892350e+00
1.170000000000000000e+02,8.045099770893312296e+00
1.180000000000000000e+02,8.091933484350564143e+00
1.190000000000000000e+02,8.138217831679806835e+00
1.200000000000000000e+02,8.183934779080226818e+00
1.210000000000000000e+02,8.229071219535107673e+00
1.220000000000000000e+02,8.273608769354551029e+00
1.230000000000000000e+02,8.317530966354041766e+00
1.240000000000000000e+02,8.360814942043569786e+00
1.250000000000000000e+02,8.403442498198783639e+00
1.260000000000000000e+02,8.445384745721815634e+00
1.270000000000000000e+02,8.486614298372430198e+00
1.280000000000000000e+02,8.527101779387479041e+00
1.290000000000000000e+02,8.566810129312075972e+00
1.300000000000000000e+02,8.605700753454087248e+00
1.310000000000000000e+02,8.643836149725595774e+00
1.320000000000000000e+02,8.681088145963256508e+00
1.330000000000000000e+02,8.717476501246331111e+00
1.340000000000000000e+02,8.752951082936265337e+00
1.350000000000000000e+02,8.787412975788782887e+00
1.360000000000000000e+02,8.820763616617453451e+00
1.370000000000000000e+02,8.852935031027042712e+00
1.380000000000000000e+02,8.883879924372388714e+00
1.390000000000000000e+02,8.913566686008772777e+00
1.400000000000000000e+02,8.941974508708398162e+00
1.410000000000000000e+02,8.969095145393016111e+00
1.420000000000000000e+02,8.994932187299772508e+00
1.430000000000000000e+02,9.019501854789066186e+00
1.440000000000000000e+02,9.042839680719618300e+00
1.450000000000000000e+02,9.064996791442895940e+00
1.460000000000000000e+02,9.086038914800599997e+00
1.470000000000000000e+02,9.106045184087912858e+00
1.480000000000000000e+02,9.125107857216310236e+00
1.490000000000000000e+02,9.143327731780322765e+00
1.500000000000000000e+02,9.161874982583237070e+00
1.510000000000000000e+02,9.179548439831563655e+00
1.520000000000000000e+02,9.196526604181070041e+00
1.530000000000000000e+02,9.212858816733357159e+00
1.540000000000000000e+02,9.228697097825364182e+00
1.550000000000000000e+02,9.244233679205073884e+00
1.560000000000000000e+02,9.259620321547302524e+00
1.570000000000000000e+02,9.274970421566893108e+00
1.580000000000000000e+02,9.290375805272896415e+00
1.590000000000000000e+02,9.305918432115273475e+00
1.600000000000000000e+02,9.321666225872121458e+00
1.610000000000000000e+02,9.337682811701220942e+00
1.620000000000000000e+02,9.354022736147220130e+00
1.630000000000000000e+02,9.370737849737782454e+00
1.640000000000000000e+02,9.387866951368371460e+00
1.650000000000000000e+02,9.405461655562028511e+00
1.660000000000000000e+02,9.423561193581507567e+00
1.670000000000000000e+02,9.442214132463398357e+00
1.680000000000000000e+02,9.466755745448461212e+00
1.690000000000000000e+02,9.487864519012946474e+00
1.700000000000000000e+02,9.508283948741759417e+00
1.710000000000000000e+02,9.529330519720431880e+00
1.720000000000000000e+02,9.551218530903454962e+00
1.730000000000000000e+02,9.574048124894254386e+00
1.740000000000000000e+02,9.597847716094694448e+00
1.750000000000000000e+02,9.622657666366521312e+00
1.760000000000000000e+02,9.648524992870022743e+00
1.770000000000000000e+02,9.675542597363548936e+00
1.780000000000000000e+02,9.703750971752866050e+00
1.790000000000000000e+02,9.733250986723271936e+00
1.800000000000000000e+02,9.764131513921940453e+00
1.810000000000000000e+02,9.796445605310182714e+00
1.820000000000000000e+02,9.830314156089952959e+00
1.830000000000000000e+02,9.865799408243828950e+00
1.840000000000000000e+02,9.902954093223879539e+00
1.850000000000000000e+02,9.941876033116132660e+00
1.860000000000000000e+02,9.982588142438162393e+00
1.870000000000000000e+02,1.002512423252422202e+01
1.880000000000000000e+02,1.006947749115142798e+01
1.890000000000000000e+02,1.011558854425203613e+01
1.900000000000000000e+02,1.017176186720951492e+01
1.910000000000000000e+02,1.022287860369475077e+01
1.920000000000000000e+02,1.027257321600694162e+01
1.930000000000000000e+02,1.032372440006833081e+01
1.940000000000000000e+02,1.037568954506892283e+01
1.950000000000000000e+02,1.042832684969052970e+01
1.960000000000000000e+02,1.048131595677913275e+01
1.970000000000000000e+02,1.053441580636124009e+01
1.980000000000000000e+02,1.058738378299729810e+01
1.990000000000000000e+02,1.063994292214278836e+01
2.000000000000000000e+02,1.069194864745393936e+01
2.010000000000000000e+02,1.074321417006758672e+01
2.020000000000000000e+02,1.079360499305876786e+01
2.030000000000000000e+02,1.084303652720728017e+01
2.040000000000000000e+02,1.089143715837694160e+01
2.050000000000000000e+02,1.093877084032716596e+01
2.060000000000000000e+02,1.098500618220526270e+01
2.070000000000000000e+02,1.103015890788362263e+01
2.080000000000000000e+02,1.107423093184668339e+01
2.090000000000000000e+02,1.111723392027055368e+01
2.100000000000000000e+02,1.115920217042468821e+01
2.110000000000000000e+02,1.120015866425567985e+01
2.120000000000000000e+02,1.124014228894648504e+01
2.130000000000000000e+02,1.127919673052604033e+01
2.140000000000000000e+02,1.131734284932046286e+01
2.150000000000000000e+02,1.135461815859785517e+01
2.160000000000000000e+02,1.139107992233827460e+01
2.170000000000000000e+02,1.142673294828195552e+01
2.180000000000000000e+02,1.146163336255910004e+01
2.190000000000000000e+02,1.149580754453305964e+01
2.200000000000000000e+02,1.152927981749721198e+01
2.210000000000000000e+02,1.156208592836251547e+01
2.220000000000000000e+02,1.159425063374042608e+01
2.230000000000000000e+02,1.162580050043553648e+01
2.240000000000000000e+02,1.165676482502946776e+01
2.250000000000000000e+02,1.168716281414182134e+01
2.260000000000000000e+02,1.171701452155786782e+01
2.270000000000000000e+02,1.174634873075263464e+01
2.280000000000000000e+02,1.177517447253059579e+01
2.290000000000000000e+02,1.180352588111078127e+01
2.300000000000000000e+02,1.183140842283817840e+01
2.310000000000000000e+02,1.185884219827951114e+01
2.320000000000000000e+02,1.188584495765347704e+01
2.330000000000000000e+02,1.191242746269750441e+01
2.340000000000000000e+02,1.193860210881131323e+01
2.350000000000000000e+02,1.196438199575507788e+01
2.360000000000000000e+02,1.198978938770574132e+01
2.370000000000000000e+02,1.201482763345425120e+01
2.380000000000000000e+02,1.203951015337729302e+01
2.390000000000000000e+02,1.206384246173741559e+01
2.400000000000000000e+02,1.208784139676443026e+01
2.410000000000000000e+02,1.211151207837941968e+01
2.420000000000000000e+02,1.213485863404676302e+01
2.430000000000000000e+02,1.215789871191140392e+01
2.440000000000000000e+02,1.218063119722949850e+01
2.450000000000000000e+02,1.220306902955415218e+01
2.460000000000000000e+02,1.222521772166518694e+01
2.470000000000000000e+02,1.224708252094810312e+01
2.480000000000000000e+02,1.226867253773296795e+01
2.490000000000000000e+02,1.228999331748214097e+01
2.500000000000000000e+02,1.231104999426953128e+01
2.510000000000000000e+02,1.233184791527386182e+01
2.520000000000000000e+02,1.235238949330880232e+01
2.530000000000000000e+02,1.237268381509058912e+01
2.540000000000000000e+02,1.239273311904578279e+01
2.550000000000000000e+02,1.241254293646649565e+01
2.560000000000000000e+02,1.243211726868429778e+01
2.570000000000000000e+02,1.245146201009282372e+01
2.580000000000000000e+02,1.247057912425736248e+01
2.590000000000000000e+02,1.248947195814390376e+01
2.600000000000000000e+02,1.250814799029126156e+01
2.610000000000000000e+02,1.252660586491463945e+01
2.620000000000000000e+02,1.254485017598250707e+01
2.630000000000000000e+02,1.256288448346529840e+01
2.640000000000000000e+02,1.258071229065294894e+01
2.650000000000000000e+02,1.259833711957974778e+01
2.660000000000000000e+02,1.261576287936774321e+01
2.670000000000000000e+02,1.263299195471129543e+01
2.680000000000000000e+02,1.265002690982988476e+01
2.690000000000000000e+02,1.266687128913887150e+01
2.700000000000000000e+02,1.268352400195800911e+01
2.710000000000000000e+02,1.269999317313390641e+01
2.720000000000000000e+02,1.271627828872622956e+01
2.730000000000000000e+02,1.273238084964787653e+01
2.740000000000000000e+02,1.274830729945648855e+01
2.750000000000000000e+02,1.276405459351301452e+01
2.760000000000000000e+02,1.277963067197121738e+01
2.770000000000000000e+02,1.279503173173208452e+01
2.780000000000000000e+02,1.281026219850553716e+01
2.790000000000000000e+02,1.282532793964183249e+01
2.800000000000000000e+02,1.284022836726235717e+01
2.810000000000000000e+02,1.285496635999983717e+01
2.820000000000000000e+02,1.286954115577069047e+01
2.830000000000000000e+02,1.288395607971951939e+01
2.840000000000000000e+02,1.289821512136182591e+01
2.850000000000000000e+02,1.291231885579662020e+01
2.860000000000000000e+02,1.292626959562986677e+01
2.870000000000000000e+02,1.294006822659191158e+01
2.880000000000000000e+02,1.295371568800197615e+01
2.890000000000000000e+02,1.296721554817454525e+01
2.900000000000000000e+02,1.298056814171952666e+01
2.910000000000000000e+02,1.299377822967888640e+01
2.920000000000000000e+02,1.300684499123130422e+01
2.930000000000000000e+02,1.301976836409085081e+01
2.940000000000000000e+02,1.303255337887456022e+01
2.950000000000000000e+02,1.304520041069812564e+01
2.960000000000000000e+02,1.305771023653231389e+01
2.970000000000000000e+02,1.307008574456963679e+01
2.980000000000000000e+02,1.308232767394828677e+01
2.990000000000000000e+02,1.309443839001646737e+01
3.000000000000000000e+02,1.310641812153506969e+01
3.010000000000000000e+02,1.311826892570404901e+01
3.020000000000000000e+02,1.312999311011348347e+01
3.030000000000000000e+02,1.314158923173598303e+01
3.040000000000000000e+02,1.315306207656305482e+01
3.050000000000000000e+02,1.316441193320964231e+01
3.060000000000000000e+02,1.317564137521317136e+01
3.070000000000000000e+02,1.318674810606044900e+01
3.080000000000000000e+02,1.319773615638261255e+01
3.090000000000000000e+02,1.320860637099003654e+01
3.100000000000000000e+02,1.321935904789553540e+01
3.110000000000000000e+02,1.322999661798321824e+01
3.120000000000000000e+02,1.324052055654127180e+01
3.130000000000000000e+02,1.325093259115215361e+01
3.140000000000000000e+02,1.326123316896287818e+01
3.150000000000000000e+02,1.327142246369155032e+01
3.160000000000000000e+02,1.328150177133741572e+01
3.170000000000000000e+02,1.329147482700765437e+01
3.180000000000000000e+02,1.330134249392709300e+01
3.190000000000000000e+02,1.331110397422236247e+01
3.200000000000000000e+02,1.332076011960556450e+01
3.210000000000000000e+02,1.333031427581416217e+01
3.220000000000000000e+02,1.333976483158454229e+01
3.230000000000000000e+02,1.334911458191329636e+01
3.240000000000000000e+02,1.335836558052633194e+01
3.250000000000000000e+02,1.336751626288352846e+01
3.260000000000000000e+02,1.337657095703320209e+01
3.270000000000000000e+02,1.338552645052072343e+01
3.280000000000000000e+02,1.339438750447860116e+01
3.290000000000000000e+02,1.340315422475562102e+01
3.300000000000000000e+02,1.341182723378116037e+01
3.310000000000000000e+02,1.342040805723314456e+01
3.320000000000000000e+02,1.342889833944782119e+01
3.330000000000000000e+02,1.343729640679522674e+01
3.340000000000000000e+02,1.344560492903134197e+01
3.350000000000000000e+02,1.345382500737557940e+01
3.360000000000000000e+02,1.346195896185170682e+01
3.370000000000000000e+02,1.347000477567420518e+01
3.380000000000000000e+02,1.347796507839483127e+01
3.390000000000000000e+02,1.348583978085446233e+01
3.400000000000000000e+02,1.349363072014904574e+01
3.410000000000000000e+02,1.350133895146718110e+01
3.420000000000000000e+02,1.350896404710841914e+01
3.430000000000000000e+02,1.351650820559353683e+01
3.440000000000000000e+02,1.352397169289943868e+01
3.450000000000000000e+02,1.353135547450553133e+01
3.460000000000000000e+02,1.353866108391431489e+01
3.470000000000000000e+02,1.354588838685536345e+01
3.480000000000000000e+02,1.355303826685385005e+01
3.490000000000000000e+02,1.356011268356396116e+01
3.500000000000000000e+02,1.356711180545479500e+01
3.510000000000000000e+02,1.357403541684579373e+01
3.520000000000000000e+02,1.358088577590543800e+01
3.530000000000000000e+02,1.358766303716531709e+01
3.540000000000000000e+02,1.359436817584786006e+01
3.550000000000000000e+02,1.360100146515050135e+01
3.560000000000000000e+02,1.360756424985944690e+01
3.570000000000000000e+02,1.361405590963662071e+01
3.580000000000000000e+02,1.362047979974799894e+01
3.590000000000000000e+02,1.362683377639121218e+01
3.600000000000000000e+02,1.363312105533067609e+01
3.610000000000000000e+02,1.363934030804145436e+01
3.620000000000000000e+02,1.364549448404117804e+01
3.630000000000000000e+02,1.365158174674252756e+01
3.640000000000000000e+02,1.365760497108999161e+01
3.650000000000000000e+02,1.366356281916027982e+01
3.660000000000000000e+02,1.366945809075911988e+01
3.670000000000000000e+02,1.367528981874579763e+01
3.680000000000000000e+02,1.368105935170866871e+01
3.690000000000000000e+02,1.368676759467988013e+01
3.700000000000000000e+02,1.369241538570583216e+01
3.710000000000000000e+02,1.369800181174165488e+01
3.720000000000000000e+02,1.370352895337842547e+01
3.730000000000000000e+02,1.370899682757099214e+01
3.740000000000000000e+02,1.371440756588985543e+01
3.750000000000000000e+02,1.371975937389836808e+01
3.760000000000000000e+02,1.372505387915587960e+01
3.770000000000000000e+02,1.373029201981239034e+01
3.780000000000000000e+02,1.373547392324151950e+01
3.790000000000000000e+02,1.374060045915886796e+01
3.800000000000000000e+02,1.374567249342923603e+01
3.810000000000000000e+02,1.375069051668550735e+01
3.820000000000000000e+02,1.375565464574603247e+01
3.830000000000000000e+02,1.376056579958466841e+01
3.840000000000000000e+02,1.376542446095694316e+01
3.850000000000000000e+02,1.377023141880066071e+01
3.860000000000000000e+02,1.377498721198653975e+01
3.870000000000000000e+02,1.377969194527788765e+01
3.880000000000000000e+02,1.378434646138481057e+01
3.890000000000000000e+02,1.378895079933451662e+01
3.900000000000000000e+02,1.379350561228499039e+01
3.910000000000000000e+02,1.379801191957686868e+01
3.920000000000000000e+02,1.380247030679205267e+01
3.930000000000000000e+02,1.380688086579935892e+01
3.940000000000000000e+02,1.381124442371708838e+01
3.950000000000000000e+02,1.381556100737266490e+01
3.960000000000000000e+02,1.381983113296062626e+01
3.970000000000000000e+02,1.382405604956626810e+01
3.980000000000000000e+02,1.382823608410890337e+01
