# Time [s], Convective Heat Transfer Coefficient [W/m2K]
1.000000000000000000e+00,0.000000000000000000e+00
2.000000000000000000e+00,0.000000000000000000e+00
3.000000000000000000e+00,0.000000000000000000e+00
4.000000000000000000e+00,0.000000000000000000e+00
5.000000000000000000e+00,2.412849599104084641e-02
6.000000000000000000e+00,4.322677809297574558e-02
7.000000000000000000e+00,6.935612005830354976e-02
8.000000000000000000e+00,1.052502047039543670e-01
9.000000000000000000e+00,1.513895516557846044e-01
1.000000000000000000e+01,2.081764616921112643e-01
1.100000000000000000e+01,2.752631209998617767e-01
1.200000000000000000e+01,3.520821461173530564e-01
1.300000000000000000e+01,4.377607818916043891e-01
1.400000000000000000e+01,5.312129859650105423e-01
1.500000000000000000e+01,6.313338684548752688e-01
1.600000000000000000e+01,7.370553866618468897e-01
1.700000000000000000e+01,8.473600844544652011e-01
1.800000000000000000e+01,9.613359391144915556e-01
1.900000000000000000e+01,1.078166782065549834e+00
2.000000000000000000e+01,1.197147820158991127e+00
2.100000000000000000e+01,1.317658414184152527e+00
2.200000000000000000e+01,1.439177738466972389e+00
2.300000000000000000e+01,1.561252449627253291e+00
2.400000000000000000e+01,1.683502831439821712e+00
2.500000000000000000e+01,1.805607531632819507e+00
2.600000000000000000e+01,1.927289147053531382e+00
2.700000000000000000e+01,2.048327081264071037e+00
2.800000000000000000e+01,2.168535416967941831e+00
2.900000000000000000e+01,2.287749947309132725e+00
3.000000000000000000e+01,2.405843674622269557e+00
3.100000000000000000e+01,2.522715414754851615e+00
3.200000000000000000e+01,2.638271164713488659e+00
3.300000000000000000e+01,2.752446576505499287e+00
3.400000000000000000e+01,2.865186863516756777e+00
3.500000000000000000e+01,2.976446108500808485e+00
3.600000000000000000e+01,3.086184518836233348e+00
3.700000000000000000e+01,3.194375199649522212e+00
3.800000000000000000e+01,3.301001273591277041e+00
3.900000000000000000e+01,3.406038951746833021e+00
4.000000000000000000e+01,3.509484351391268131e+00
4.100000000000000000e+01,3.611325200488118892e+00
4.200000000000000000e+01,3.711558589964039090e+00
4.300000000000000000e+01,3.810181179766090498e+00
4.400000000000000000e+01,3.907194101407677866e+00
4.500000000000000000e+01,4.002604801123244016e+00
4.600000000000000000e+01,4.096420204062297898e+00
4.700000000000000000e+01,4.188652925877256905e+00
4.800000000000000000e+01,4.282883567064035724e+00
4.900000000000000000e+01,4.373281708048463834e+00
5.000000000000000000e+01,4.461578612492663964e+00
5.100000000000000000e+01,4.548153106165663928e+00
5.200000000000000000e+01,4.633094288812411143e+00
5.300000000000000000e+01,4.716470346542420700e+00
5.400000000000000000e+01,4.798327749116563901e+00
5.500000000000000000e+01,4.878709220408934399e+00
5.600000000000000000e+01,4.957653264746582522e+00
5.700000000000000000e+01,5.035196938265793953e+00
5.800000000000000000e+01,5.111378142767766697e+00
5.900000000000000000e+01,5.186234493300310611e+00
6.000000000000000000e+01,5.259793165969815831e+00
6.100000000000000000e+01,5.332090808870964871e+00
6.200000000000000000e+01,5.403162179614740879e+00
6.300000000000000000e+01,5.473035304107785493e+00
6.400000000000000000e+01,5.541741461249158007e+00
6.500000000000000000e+01,5.609310077165717168e+00
6.600000000000000000e+01,5.675771939824612922e+00
6.700000000000000000e+01,5.741153599186772816e+00
6.800000000000000000e+01,5.805485054522625532e+00
6.900000000000000000e+01,5.868792108222459447e+00
7.000000000000000000e+01,5.931102001311185035e+00
7.100000000000000000e+01,5.992442653245101170e+00
7.200000000000000000e+01,6.052834873376248481e+00
7.300000000000000000e+01,6.112306694395108764e+00
7.400000000000000000e+01,6.170884339213291270e+00
7.500000000000000000e+01,6.228587339569934045e+00
7.600000000000000000e+01,6.285440212050835918e+00
7.700000000000000000e+01,6.341464642552254283e+00
7.800000000000000000e+01,6.396684158746184679e+00
7.900000000000000000e+01,6.451116318555817131e+00
8.000000000000000000e+01,6.504783628307769128e+00
8.100000000000000000e+01,6.557703556802218614e+00
8.200000000000000000e+01,6.609895683023477631e+00
8.300000000000000000e+01,6.661379498792912024e+00
8.400000000000000000e+01,6.712172076375892971e+00
8.500000000000000000e+01,6.762288759547747219e+00
8.600000000000000000e+01,6.811747829068002247e+00
8.700000000000000000e+01,6.860564324153750171e+00
8.800000000000000000e+01,6.908751250696237634e+00
8.900000000000000000e+01,6.956324074138154678e+00
9.000000000000000000e+01,7.003315590437633631e+00
9.100000000000000000e+01,7.049711665590543852e+00
9.200000000000000000e+01,7.095531697298052443e+00
9.300000000000000000e+01,7.140788367783656554e+00
9.400000000000000000e+01,7.185493280784550407e+00
9.500000000000000000e+01,7.229661283743668676e+00
9.600000000000000000e+01,7.273304078695616681e+00
9.700000000000000000e+01,7.316434128126589442e+00
9.800000000000000000e+01,7.359064396414477294e+00
9.900000000000000000e+01,7.401207255115409112e+00
1.000000000000000000e+02,7.442874307557959312e+00
1.010000000000000000e+02,7.484074761682862231e+00
1.020000000000000000e+02,7.524817008855294809e+00
1.030000000000000000e+02,7.565106827397606537e+00
1.040000000000000000e+02,7.604953591938030222e+00
1.050000000000000000e+02,7.644363076567046278e+00
1.060000000000000000e+02,7.683340811375130031e+00
1.070000000000000000e+02,7.721892683224576892e+00
1.080000000000000000e+02,7.760026667481955798e+00
1.090000000000000000e+02,7.797747336758304115e+00
1.100000000000000000e+02,7.835060981842337569e+00
1.110000000000000000e+02,7.871973264004640924e+00
1.120000000000000000e+02,7.908488121642750279e+00
1.130000000000000000e+02,7.944611743609237386e+00
1.140000000000000000e+02,7.980349527245139463e+00
1.150000000000000000e+02,8.015707571612718851e+00
1.160000000000000000e+02,8.050689757824395443e+00
1.170000000000000000e+02,8.085300709856966250e+00
1.180000000000000000e+02,8.119542922190547074e+00
1.190000000000000000e+02,8.153423715888202139e+00
1.200000000000000000e+02,8.186945958918869337e+00
1.210000000000000000e+02,8.220114137627366091e+00
1.220000000000000000e+02,8.252930339191600240e+00
1.230000000000000000e+02,8.285399632208223508e+00
1.240000000000000000e+02,8.317525044073041940e+00
1.250000000000000000e+02,8.349310494173231234e+00
1.260000000000000000e+02,8.380757093813656411e+00
1.270000000000000000e+02,8.411869867704057313e+00
1.280000000000000000e+02,8.442650712960109161e+00
1.290000000000000000e+02,8.473117263314039249e+00
1.300000000000000000e+02,8.503249877222771147e+00
1.310000000000000000e+02,8.533056770402220437e+00
1.320000000000000000e+02,8.562543509232364514e+00
1.330000000000000000e+02,8.591715799302924950e+00
1.340000000000000000e+02,8.620579009761025091e+00
1.350000000000000000e+02,8.649138029562635666e+00
1.360000000000000000e+02,8.677393397970011080e+00
1.370000000000000000e+02,8.705348087403791624e+00
1.380000000000000000e+02,8.732999444231008823e+00
1.390000000000000000e+02,8.760348059024106959e+00
1.400000000000000000e+02,8.787390539539371659e+00
1.410000000000000000e+02,8.814127465952983798e+00
1.420000000000000000e+02,8.840555780659727247e+00
1.430000000000000000e+02,8.866675892815795379e+00
1.440000000000000000e+02,8.892488614638473621e+00
1.450000000000000000e+02,8.917990880690648936e+00
1.460000000000000000e+02,8.943182149992367158e+00
1.470000000000000000e+02,8.968064187992169423e+00
1.480000000000000000e+02,8.992633619902720810e+00
1.490000000000000000e+02,9.016890275612514216e+00
1.500000000000000000e+02,9.040832805725491639e+00
1.510000000000000000e+02,9.064459708597331300e+00
1.520000000000000000e+02,9.087770041336273863e+00
1.530000000000000000e+02,9.110760583505108201e+00
1.540000000000000000e+02,9.133429400391610997e+00
1.550000000000000000e+02,9.155773993619584772e+00
1.560000000000000000e+02,9.177792007567974863e+00
1.570000000000000000e+02,9.199480670430418172e+00
1.580000000000000000e+02,9.220835424819135540e+00
1.590000000000000000e+02,9.241853255121181832e+00
1.600000000000000000e+02,9.262530193504030507e+00
1.610000000000000000e+02,9.282863375719072607e+00
1.620000000000000000e+02,9.302846685657511827e+00
1.630000000000000000e+02,9.322477151682038610e+00
1.640000000000000000e+02,9.341750316230116979e+00
1.650000000000000000e+02,9.360675493013268067e+00
1.660000000000000000e+02,9.379237300284065881e+00
1.670000000000000000e+02,9.397441610085493835e+00
1.680000000000000000e+02,9.415289912681084061e+00
1.690000000000000000e+02,9.432780453442472179e+00
1.700000000000000000e+02,9.449906456687655165e+00
1.710000000000000000e+02,9.466657257513977797e+00
1.720000000000000000e+02,9.483022919311681065e+00
1.730000000000000000e+02,9.498993693942161087e+00
1.740000000000000000e+02,9.514562596504811509e+00
1.750000000000000000e+02,9.529725352981412101e+00
1.760000000000000000e+02,9.544479452491700044e+00
1.770000000000000000e+02,9.558822066765902292e+00
1.780000000000000000e+02,9.572754522917156450e+00
1.790000000000000000e+02,9.586278038163060344e+00
1.800000000000000000e+02,9.599393594603265356e+00
1.810000000000000000e+02,9.612103843059122354e+00
1.820000000000000000e+02,9.624414219212281907e+00
1.830000000000000000e+02,9.636328498460850156e+00
1.840000000000000000e+02,9.647853095293763559e+00
1.850000000000000000e+02,9.658995529577078187e+00
1.860000000000000000e+02,9.669762791130244395e+00
1.870000000000000000e+02,9.680164223810425739e+00
1.880000000000000000e+02,9.690209635859373449e+00
1.890000000000000000e+02,9.699909301554319185e+00
1.900000000000000000e+02,9.709275080766660793e+00
1.910000000000000000e+02,9.718318675615158497e+00
1.920000000000000000e+02,9.727052505374492952e+00
1.930000000000000000e+02,9.735489954377644750e+00
1.940000000000000000e+02,9.743644138200430405e+00
1.950000000000000000e+02,9.751812023870428447e+00
1.960000000000000000e+02,9.759626941738199335e+00
1.970000000000000000e+02,9.767197085213160435e+00
1.980000000000000000e+02,9.774546248078040733e+00
1.990000000000000000e+02,9.781672236139161924e+00
2.000000000000000000e+02,9.788581268983092443e+00
2.010000000000000000e+02,9.795281821222786789e+00
2.020000000000000000e+02,9.801788752748043620e+00
2.030000000000000000e+02,9.808118525215689942e+00
2.040000000000000000e+02,9.814287252897065272e+00
2.050000000000000000e+02,9.820310467502617158e+00
2.060000000000000000e+02,9.826204945079327402e+00
2.070000000000000000e+02,9.831983737985156679e+00
2.080000000000000000e+02,9.837659829001829337e+00
2.090000000000000000e+02,9.843245892872062086e+00
2.100000000000000000e+02,9.848753576352860861e+00
2.110000000000000000e+02,9.854194349797213093e+00
2.120000000000000000e+02,9.859576258450431396e+00
2.130000000000000000e+02,9.864909234998304299e+00
2.140000000000000000e+02,9.870202446785976136e+00
2.150000000000000000e+02,9.875463940624038983e+00
2.160000000000000000e+02,9.880700409517235272e+00
2.170000000000000000e+02,9.885919356209790010e+00
2.180000000000000000e+02,9.891128371269111597e+00
2.190000000000000000e+02,9.896332622753273967e+00
2.200000000000000000e+02,9.901537615199222486e+00
2.210000000000000000e+02,9.906748710749972986e+00
2.220000000000000000e+02,9.911970772389295803e+00
2.230000000000000000e+02,9.917208404498870422e+00
2.240000000000000000e+02,9.923491571004216638e+00
2.250000000000000000e+02,9.929300785117058936e+00
2.260000000000000000e+02,9.934946543845818212e+00
2.270000000000000000e+02,9.940516828339168498e+00
2.280000000000000000e+02,9.946037922040396495e+00
2.290000000000000000e+02,9.951539181420981706e+00
2.300000000000000000e+02,9.957040859265161359e+00
2.310000000000000000e+02,9.962561939484277929e+00
2.320000000000000000e+02,9.968113664074600422e+00
2.330000000000000000e+02,9.973705576965450348e+00
2.340000000000000000e+02,9.979343064278593189e+00
2.350000000000000000e+02,9.985033130268933022e+00
2.360000000000000000e+02,9.990777468151774698e+00
2.370000000000000000e+02,9.996579284250197261e+00
2.380000000000000000e+02,1.000244176788842942e+01
2.390000000000000000e+02,1.000836762362842336e+01
2.400000000000000000e+02,1.001435849012095680e+01
2.410000000000000000e+02,1.002041692809692108e+01
2.420000000000000000e+02,1.002654734602924691e+01
2.430000000000000000e+02,1.003274819641655036e+01
2.440000000000000000e+02,1.003902653131870615e+01
2.450000000000000000e+02,1.004538135950888389e+01
2.460000000000000000e+02,1.005181609343550875e+01
2.470000000000000000e+02,1.005833238842274113e+01
2.480000000000000000e+02,1.006493084692674778e+01
2.490000000000000000e+02,1.007161956492860710e+01
2.500000000000000000e+02,1.007839967568103035e+01
2.510000000000000000e+02,1.008527045951303336e+01
2.520000000000000000e+02,1.009224061955165297e+01
2.530000000000000000e+02,1.009930904945425745e+01
2.540000000000000000e+02,1.010648083148234733e+01
2.550000000000000000e+02,1.011679074861527639e+01
2.560000000000000000e+02,1.012504895060545351e+01
2.570000000000000000e+02,1.013273871666456216e+01
2.580000000000000000e+02,1.014041261672095828e+01
2.590000000000000000e+02,1.014812675247539531e+01
2.600000000000000000e+02,1.015594369386127305e+01
2.610000000000000000e+02,1.016389695251803538e+01
2.620000000000000000e+02,1.017199674094857897e+01
2.630000000000000000e+02,1.018024935323848901e+01
2.640000000000000000e+02,1.018866136650690812e+01
2.650000000000000000e+02,1.019723614662006916e+01
2.660000000000000000e+02,1.020597578395691052e+01
2.670000000000000000e+02,1.021488615174798475e+01
2.680000000000000000e+02,1.022397440797928425e+01
2.690000000000000000e+02,1.023324484556537683e+01
2.700000000000000000e+02,1.024269958554011772e+01
2.710000000000000000e+02,1.025235184864817128e+01
2.720000000000000000e+02,1.026220639590032135e+01
2.730000000000000000e+02,1.027226548554748931e+01
2.740000000000000000e+02,1.028254218184585156e+01
2.750000000000000000e+02,1.029304112915723124e+01
2.760000000000000000e+02,1.030378388303259740e+01
2.770000000000000000e+02,1.031476174741285945e+01
2.780000000000000000e+02,1.032600042706269328e+01
2.790000000000000000e+02,1.033750093543463677e+01
2.800000000000000000e+02,1.034928303193013122e+01
2.810000000000000000e+02,1.036135250986634304e+01
2.820000000000000000e+02,1.037372103996572648e+01
2.830000000000000000e+02,1.038640674609004044e+01
2.840000000000000000e+02,1.039941961280256777e+01
2.850000000000000000e+02,1.041277431718123481e+01
2.860000000000000000e+02,1.042649123691847279e+01
2.870000000000000000e+02,1.044058444253794349e+01
2.880000000000000000e+02,1.045507333495646130e+01
2.890000000000000000e+02,1.046996803531658315e+01
2.900000000000000000e+02,1.048530016903072415e+01
2.910000000000000000e+02,1.050107094260623519e+01
2.920000000000000000e+02,1.051732767421479586e+01
2.930000000000000000e+02,1.054104987193719900e+01
2.940000000000000000e+02,1.055951380272992068e+01
2.950000000000000000e+02,1.057720015375587153e+01
2.960000000000000000e+02,1.059544113158325729e+01
2.970000000000000000e+02,1.061428349965462203e+01
2.980000000000000000e+02,1.063379757693290628e+01
2.990000000000000000e+02,1.065398350272017503e+01
3.000000000000000000e+02,1.067487914266694737e+01
3.010000000000000000e+02,1.069651574039716024e+01
3.020000000000000000e+02,1.071893154944155846e+01
3.030000000000000000e+02,1.074215428538070327e+01
3.040000000000000000e+02,1.076621988009577002e+01
3.050000000000000000e+02,1.079118782488100514e+01
3.060000000000000000e+02,1.081710272569110920e+01
3.070000000000000000e+02,1.084401297497245942e+01
3.080000000000000000e+02,1.087196075956080676e+01
3.090000000000000000e+02,1.090098891996782626e+01
3.100000000000000000e+02,1.093115719822103316e+01
3.110000000000000000e+02,1.096247356742957990e+01
3.120000000000000000e+02,1.099492427814451112e+01
3.130000000000000000e+02,1.102849017888115490e+01
3.140000000000000000e+02,1.106307220769308231e+01
3.150000000000000000e+02,1.109854805559720248e+01
3.160000000000000000e+02,1.113470842894955659e+01
3.170000000000000000e+02,1.117130700376972285e+01
3.180000000000000000e+02,1.120805006106466273e+01
3.190000000000000000e+02,1.124462275037583758e+01
3.200000000000000000e+02,1.128072524135350996e+01
3.210000000000000000e+02,1.131610376838887966e+01
3.220000000000000000e+02,1.135055487613674785e+01
3.230000000000000000e+02,1.138395992952891689e+01
3.240000000000000000e+02,1.141626065653803934e+01
3.250000000000000000e+02,1.144746319067610330e+01
3.260000000000000000e+02,1.147759735202859055e+01
3.270000000000000000e+02,1.150671490243943573e+01
3.280000000000000000e+02,1.153487955174147750e+01
3.290000000000000000e+02,1.156216079708562106e+01
3.300000000000000000e+02,1.158862725413122341e+01
3.310000000000000000e+02,1.161433392198981984e+01
3.320000000000000000e+02,1.163934770105599625e+01
3.330000000000000000e+02,1.166371459310686909e+01
3.340000000000000000e+02,1.168748427377100541e+01
3.350000000000000000e+02,1.171069836842789336e+01
3.360000000000000000e+02,1.173339320113576179e+01
3.370000000000000000e+02,1.175560407836584709e+01
3.380000000000000000e+02,1.177735318182053881e+01
3.390000000000000000e+02,1.179867127257765702e+01
3.400000000000000000e+02,1.181957685710341543e+01
3.410000000000000000e+02,1.184008719004456012e+01
3.420000000000000000e+02,1.186022213420129923e+01
3.430000000000000000e+02,1.187999616417550719e+01
3.440000000000000000e+02,1.189942631856184185e+01
3.450000000000000000e+02,1.191852557356347830e+01
3.460000000000000000e+02,1.193730390081736559e+01
3.470000000000000000e+02,1.195577110411600685e+01
3.480000000000000000e+02,1.197394205166037295e+01
3.490000000000000000e+02,1.199182227787842159e+01
3.500000000000000000e+02,1.200942395333827584e+01
3.510000000000000000e+02,1.202675081914252786e+01
3.520000000000000000e+02,1.204381324076433657e+01
3.530000000000000000e+02,1.206062063276487883e+01
3.540000000000000000e+02,1.207717465383329980e+01
3.550000000000000000e+02,1.209348356174462680e+01
3.560000000000000000e+02,1.210955222766061468e+01
3.570000000000000000e+02,1.212538696027104379e+01
3.580000000000000000e+02,1.214099183579689623e+01
3.590000000000000000e+02,1.215637300577473745e+01
3.600000000000000000e+02,1.217153448456132558e+01
3.610000000000000000e+02,1.218648274913882013e+01
3.620000000000000000e+02,1.220121971223998969e+01
3.630000000000000000e+02,1.221574968173402453e+01
3.640000000000000000e+02,1.223007565474351566e+01
3.650000000000000000e+02,1.224420323803066957e+01
3.660000000000000000e+02,1.225813477633183801e+01
3.670000000000000000e+02,1.227187522012754783e+01
3.680000000000000000e+02,1.228542597037766981e+01
3.690000000000000000e+02,1.229879103217989567e+01
3.700000000000000000e+02,1.231197343488653928e+01
3.710000000000000000e+02,1.232497532046273037e+01
3.720000000000000000e+02,1.233780002977543511e+01
3.730000000000000000e+02,1.235045201406737192e+01
3.740000000000000000e+02,1.236293276533150376e+01
3.750000000000000000e+02,1.237524421001656627e+01
3.760000000000000000e+02,1.238739015452949310e+01
3.770000000000000000e+02,1.239937192754148576e+01
3.780000000000000000e+02,1.241119334408897856e+01
3.790000000000000000e+02,1.242285613139118361e+01
3.800000000000000000e+02,1.243436305318362578e+01
3.810000000000000000e+02,1.244571502882372194e+01
3.820000000000000000e+02,1.245691597846414922e+01
3.830000000000000000e+02,1.246796812777989594e+01
3.840000000000000000e+02,1.247887127187110323e+01
3.850000000000000000e+02,1.248963090128208719e+01
3.860000000000000000e+02,1.250024714097615863e+01
3.870000000000000000e+02,1.251072175186086000e+01
3.880000000000000000e+02,1.252105849061169884e+01
3.890000000000000000e+02,1.253125623559922097e+01
3.900000000000000000e+02,1.254132019060664227e+01
3.910000000000000000e+02,1.255125195158611362e+01
3.920000000000000000e+02,1.256105027771533855e+01
3.930000000000000000e+02,1.257072081770681748e+01
3.940000000000000000e+02,1.258026496245780024e+01
3.950000000000000000e+02,1.258968098575760841e+01
3.960000000000000000e+02,1.259897321202046250e+01
3.970000000000000000e+02,1.260814335620365867e+01
3.980000000000000000e+02,1.261719296988133898e+01
