# Time [s], Convective Heat Transfer Coefficient [W/m2K]
1.000000000000000000e+00,0.000000000000000000e+00
2.000000000000000000e+00,0.000000000000000000e+00
3.000000000000000000e+00,0.000000000000000000e+00
4.000000000000000000e+00,0.000000000000000000e+00
5.000000000000000000e+00,0.000000000000000000e+00
6.000000000000000000e+00,2.412849599104084641e-02
7.000000000000000000e+00,4.055970506183135399e-02
8.000000000000000000e+00,6.234380213143796146e-02
9.000000000000000000e+00,8.889013924160209246e-02
1.000000000000000000e+01,1.219945517587332634e-01
1.100000000000000000e+01,1.608934944682470503e-01
1.200000000000000000e+01,2.053562595790706935e-01
1.300000000000000000e+01,2.546826493385024870e-01
1.400000000000000000e+01,3.082840121597401617e-01
1.500000000000000000e+01,3.655198748033915424e-01
1.600000000000000000e+01,4.258067023151565489e-01
1.700000000000000000e+01,4.885232699386230504e-01
1.800000000000000000e+01,5.531670002292996546e-01
1.900000000000000000e+01,6.192751150230620949e-01
2.000000000000000000e+01,6.864631522176993794e-01
2.100000000000000000e+01,7.543955731674315546e-01
2.200000000000000000e+01,8.227812221686943150e-01
2.300000000000000000e+01,8.913789598569205053e-01
2.400000000000000000e+01,9.599914027007846462e-01
2.500000000000000000e+01,1.028441891024149069e+00
2.600000000000000000e+01,1.096594670020563989e+00
2.700000000000000000e+01,1.164332006047985368e+00
2.800000000000000000e+01,1.231554356163541142e+00
2.900000000000000000e+01,1.298188460937506505e+00
3.000000000000000000e+01,1.364169266564500438e+00
3.100000000000000000e+01,1.429447088818329936e+00
3.200000000000000000e+01,1.493979558673668162e+00
3.300000000000000000e+01,1.557736344042305321e+00
3.400000000000000000e+01,1.620694668593395837e+00
3.500000000000000000e+01,1.682838416694651062e+00
3.600000000000000000e+01,1.744153518062987684e+00
3.700000000000000000e+01,1.804634682558912573e+00
3.800000000000000000e+01,1.864277740116752735e+00
3.900000000000000000e+01,1.923083770290855199e+00
4.000000000000000000e+01,1.981053730449588546e+00
4.100000000000000000e+01,2.038192691232028508e+00
4.200000000000000000e+01,2.094508728096852401e+00
4.300000000000000000e+01,2.150009840143606077e+00
4.400000000000000000e+01,2.204704168180163126e+00
4.500000000000000000e+01,2.258604522897216693e+00
4.600000000000000000e+01,2.311719421800577656e+00
4.700000000000000000e+01,2.364062803679246372e+00
4.800000000000000000e+01,2.415646467691945798e+00
4.900000000000000000e+01,2.466483586374139225e+00
5.000000000000000000e+01,2.516586970145046287e+00
5.100000000000000000e+01,2.565969511653198865e+00
5.200000000000000000e+01,2.614644884218621623e+00
5.300000000000000000e+01,2.662625952113032213e+00
5.400000000000000000e+01,2.709927502109428232e+00
5.500000000000000000e+01,2.756561193175820268e+00
5.600000000000000000e+01,2.802540587764183133e+00
5.700000000000000000e+01,2.847879321718201240e+00
5.800000000000000000e+01,2.892589754499307997e+00
5.900000000000000000e+01,2.936684037764051070e+00
6.000000000000000000e+01,2.980176453492191069e+00
6.100000000000000000e+01,3.023078700465260393e+00
6.200000000000000000e+01,3.065402811408542760e+00
6.300000000000000000e+01,3.107159605760551724e+00
6.400000000000000000e+01,3.148362347169390674e+00
6.500000000000000000e+01,3.189020179059266269e+00
6.600000000000000000e+01,3.229146344372911592e+00
6.700000000000000000e+01,3.268751086062687605e+00
6.800000000000000000e+01,3.307845180552085207e+00
6.900000000000000000e+01,3.346438804950416568e+00
7.000000000000000000e+01,3.384542806775050039e+00
7.100000000000000000e+01,3.422166010284197757e+00
7.200000000000000000e+01,3.459318934944840329e+00
7.300000000000000000e+01,3.496010248237129137e+00
7.400000000000000000e+01,3.532250222848072330e+00
7.500000000000000000e+01,3.568046791747622404e+00
7.600000000000000000e+01,3.603409370165764347e+00
7.700000000000000000e+01,3.638346933004071193e+00
7.800000000000000000e+01,3.672867438124518102e+00
7.900000000000000000e+01,3.706979698866255113e+00
8.000000000000000000e+01,3.740690955866281531e+00
8.100000000000000000e+01,3.774009391034199634e+00
8.200000000000000000e+01,3.806942261914959325e+00
8.300000000000000000e+01,3.839497323297003106e+00
8.400000000000000000e+01,3.871682311389280873e+00
8.500000000000000000e+01,3.903503249984224155e+00
8.600000000000000000e+01,3.934967152661392742e+00
8.700000000000000000e+01,3.966081121912230945e+00
8.800000000000000000e+01,3.996851385791446720e+00
8.900000000000000000e+01,4.027284948186990121e+00
9.000000000000000000e+01,4.057387252615209938e+00
9.100000000000000000e+01,4.087164815576350918e+00
9.200000000000000000e+01,4.116623558255750659e+00
9.300000000000000000e+01,4.145768914166119146e+00
9.400000000000000000e+01,4.174607069632602752e+00
9.500000000000000000e+01,4.203143187948043646e+00
9.600000000000000000e+01,4.231382587406733009e+00
9.700000000000000000e+01,4.259330923012949910e+00
9.800000000000000000e+01,4.286992825807521612e+00
9.900000000000000000e+01,4.314374230592783910e+00
1.000000000000000000e+02,4.341479250242781696e+00
1.010000000000000000e+02,4.368312679195868853e+00
1.020000000000000000e+02,4.394879223866432483e+00
1.030000000000000000e+02,4.421183387325215541e+00
1.040000000000000000e+02,4.447230013197772891e+00
1.050000000000000000e+02,4.473022978307944264e+00
1.060000000000000000e+02,4.498566693182859844e+00
1.070000000000000000e+02,4.523865442435565321e+00
1.080000000000000000e+02,4.548923221650943205e+00
1.090000000000000000e+02,4.573744200421220540e+00
1.100000000000000000e+02,4.598332269866195254e+00
1.110000000000000000e+02,4.622691276240659342e+00
1.120000000000000000e+02,4.646824589376362447e+00
1.130000000000000000e+02,4.670735985417896252e+00
1.140000000000000000e+02,4.694428723101962575e+00
1.150000000000000000e+02,4.717906621237118792e+00
1.160000000000000000e+02,4.741172937519394281e+00
1.170000000000000000e+02,4.764231066184930086e+00
1.180000000000000000e+02,4.787084122792694352e+00
1.190000000000000000e+02,4.809736273012190644e+00
1.200000000000000000e+02,4.832189826358293416e+00
1.210000000000000000e+02,4.854447854904077708e+00
1.220000000000000000e+02,4.876513174109313731e+00
1.230000000000000000e+02,4.898388598278942574e+00
1.240000000000000000e+02,4.920077424222361273e+00
1.250000000000000000e+02,4.941582116048074624e+00
1.260000000000000000e+02,4.962905481772978966e+00
1.270000000000000000e+02,4.984051082884265682e+00
1.280000000000000000e+02,5.005020726286991462e+00
1.290000000000000000e+02,5.025817178814339314e+00
1.300000000000000000e+02,5.046442611049690719e+00
1.310000000000000000e+02,5.066899898241369549e+00
1.320000000000000000e+02,5.087191099601301225e+00
1.330000000000000000e+02,5.107318792115967732e+00
1.340000000000000000e+02,5.127285516122133124e+00
1.350000000000000000e+02,5.147093202516108690e+00
1.360000000000000000e+02,5.166745081689288810e+00
1.370000000000000000e+02,5.186242457747433754e+00
1.380000000000000000e+02,5.205587415541953256e+00
1.390000000000000000e+02,5.224782448877027363e+00
1.400000000000000000e+02,5.243829338981520927e+00
1.410000000000000000e+02,5.262730152437964826e+00
1.420000000000000000e+02,5.281486895415738125e+00
1.430000000000000000e+02,5.300101515959815046e+00
1.440000000000000000e+02,5.318575823404424696e+00
1.450000000000000000e+02,5.336912685153262892e+00
1.460000000000000000e+02,5.355113133512792167e+00
1.470000000000000000e+02,5.373178982103739898e+00
1.480000000000000000e+02,5.391111873487818507e+00
1.490000000000000000e+02,5.408913725072779677e+00
1.500000000000000000e+02,5.426586124015797097e+00
1.510000000000000000e+02,5.444130890986301097e+00
1.520000000000000000e+02,5.461549523423872010e+00
1.530000000000000000e+02,5.478843790861259500e+00
1.540000000000000000e+02,5.496015959063967671e+00
1.550000000000000000e+02,5.513066464020903723e+00
1.560000000000000000e+02,5.529997566401138265e+00
1.570000000000000000e+02,5.546810252418749698e+00
1.580000000000000000e+02,5.563506314565959343e+00
1.590000000000000000e+02,5.580087011883664516e+00
1.600000000000000000e+02,5.596554057557848516e+00
1.610000000000000000e+02,5.612908639723417359e+00
1.620000000000000000e+02,5.629152101744390180e+00
1.630000000000000000e+02,5.645285790933695758e+00
1.640000000000000000e+02,5.661311935125373118e+00
1.650000000000000000e+02,5.677230676280919042e+00
1.660000000000000000e+02,5.693043523723199328e+00
1.670000000000000000e+02,5.708752059255547628e+00
1.680000000000000000e+02,5.724357435217422463e+00
1.690000000000000000e+02,5.739860563900052171e+00
1.700000000000000000e+02,5.755262901554461408e+00
1.710000000000000000e+02,5.770565766106273919e+00
1.720000000000000000e+02,5.785770026217967654e+00
1.730000000000000000e+02,5.800876739276629834e+00
1.740000000000000000e+02,5.815887527261060619e+00
1.750000000000000000e+02,5.830803598324855841e+00
1.760000000000000000e+02,5.845625175101311299e+00
1.770000000000000000e+02,5.860354041836514760e+00
1.780000000000000000e+02,5.874990860072442089e+00
1.790000000000000000e+02,5.889536850213966446e+00
1.800000000000000000e+02,5.903993106221585130e+00
1.810000000000000000e+02,5.918360598798253491e+00
1.820000000000000000e+02,5.932640145192268122e+00
1.830000000000000000e+02,5.946832578437198258e+00
1.840000000000000000e+02,5.960939241195552185e+00
1.850000000000000000e+02,5.974960662276115997e+00
1.860000000000000000e+02,5.988898207567813436e+00
1.870000000000000000e+02,6.002752566351014174e+00
1.880000000000000000e+02,6.016524510699782446e+00
1.890000000000000000e+02,6.030215022408259351e+00
1.900000000000000000e+02,6.043825096044206369e+00
1.910000000000000000e+02,6.057355387808670777e+00
1.920000000000000000e+02,6.070806858367777004e+00
1.930000000000000000e+02,6.084180386726143475e+00
1.940000000000000000e+02,6.097476394266251987e+00
1.950000000000000000e+02,6.110696265430262564e+00
1.960000000000000000e+02,6.123840391751231849e+00
1.970000000000000000e+02,6.136909560738496694e+00
1.980000000000000000e+02,6.149904916569176372e+00
1.990000000000000000e+02,6.162826750651959173e+00
2.000000000000000000e+02,6.175675900654682415e+00
2.010000000000000000e+02,6.188453127897310502e+00
2.020000000000000000e+02,6.201159240750005353e+00
2.030000000000000000e+02,6.213795002783562893e+00
2.040000000000000000e+02,6.226360892175559769e+00
2.050000000000000000e+02,6.238857949569148964e+00
2.060000000000000000e+02,6.251286598673454264e+00
2.070000000000000000e+02,6.263647374612812513e+00
2.080000000000000000e+02,6.275940951481074670e+00
2.090000000000000000e+02,6.288168258091301865e+00
2.100000000000000000e+02,6.300329765339852450e+00
2.110000000000000000e+02,6.312425876965645166e+00
2.120000000000000000e+02,6.324457750296883063e+00
2.130000000000000000e+02,6.336425299470687555e+00
2.140000000000000000e+02,6.348330094418079383e+00
2.150000000000000000e+02,6.360171857431168974e+00
2.160000000000000000e+02,6.371951467078628362e+00
2.170000000000000000e+02,6.383669242122842036e+00
2.180000000000000000e+02,6.395326239733701179e+00
2.190000000000000000e+02,6.406922873305931354e+00
2.200000000000000000e+02,6.418459719738189406e+00
2.210000000000000000e+02,6.429937035204533302e+00
2.220000000000000000e+02,6.441355466208648295e+00
2.230000000000000000e+02,6.452715845921033200e+00
2.240000000000000000e+02,6.464018434537171842e+00
2.250000000000000000e+02,6.475263766849089109e+00
2.260000000000000000e+02,6.486452369292165621e+00
2.270000000000000000e+02,6.497584760123610081e+00
2.280000000000000000e+02,6.508661449596088389e+00
2.290000000000000000e+02,6.519682664731353938e+00
2.300000000000000000e+02,6.530649451990156784e+00
2.310000000000000000e+02,6.541561748722451775e+00
2.320000000000000000e+02,6.552420037525690688e+00
2.330000000000000000e+02,6.563225337246991309e+00
2.340000000000000000e+02,6.573977569059306525e+00
2.350000000000000000e+02,6.584677464269839575e+00
2.360000000000000000e+02,6.595325205650272693e+00
2.370000000000000000e+02,6.605921509292431715e+00
2.380000000000000000e+02,6.616466546524980785e+00
2.390000000000000000e+02,6.626961018792994373e+00
2.400000000000000000e+02,6.637405086469934545e+00
2.410000000000000000e+02,6.647799172012176960e+00
2.420000000000000000e+02,6.658144219949060805e+00
2.430000000000000000e+02,6.668439582889059913e+00
2.440000000000000000e+02,6.678686982577717757e+00
2.450000000000000000e+02,6.688886025864848150e+00
2.460000000000000000e+02,6.699037106187914148e+00
2.470000000000000000e+02,6.709140611498074058e+00
2.480000000000000000e+02,6.719197183648027760e+00
2.490000000000000000e+02,6.729206939102061469e+00
2.500000000000000000e+02,6.739170507738685423e+00
2.510000000000000000e+02,6.749088254332945347e+00
2.520000000000000000e+02,6.758960026228241880e+00
2.530000000000000000e+02,6.768786438353547652e+00
2.540000000000000000e+02,6.778568097843904461e+00
2.550000000000000000e+02,6.788305350163688523e+00
2.560000000000000000e+02,6.797998282876609011e+00
2.570000000000000000e+02,6.807647487085538351e+00
2.580000000000000000e+02,6.817253042825265119e+00
2.590000000000000000e+02,6.826815530948405097e+00
2.600000000000000000e+02,6.836335024255463466e+00
2.610000000000000000e+02,6.845811843905128313e+00
2.620000000000000000e+02,6.855246555993771196e+00
2.630000000000000000e+02,6.864639471397099513e+00
2.640000000000000000e+02,6.873990401539330719e+00
2.650000000000000000e+02,6.883300394633699248e+00
2.660000000000000000e+02,6.892569254999163952e+00
2.670000000000000000e+02,6.901797525719026716e+00
2.680000000000000000e+02,6.910985498431410079e+00
2.690000000000000000e+02,6.920133216685435684e+00
2.700000000000000000e+02,6.929241454424193591e+00
2.710000000000000000e+02,6.938310247445473422e+00
2.720000000000000000e+02,6.947339630643245556e+00
2.730000000000000000e+02,6.956330121828241175e+00
2.740000000000000000e+02,6.965281991661804284e+00
2.750000000000000000e+02,6.974195266844405161e+00
2.760000000000000000e+02,6.983070453401777122e+00
2.770000000000000000e+02,6.991907812269095857e+00
2.780000000000000000e+02,7.000707840100786505e+00
2.790000000000000000e+02,7.009470313324040802e+00
2.800000000000000000e+02,7.018195723085240978e+00
2.810000000000000000e+02,7.026884555172222768e+00
2.820000000000000000e+02,7.035536817126684994e+00
2.830000000000000000e+02,7.044152751857854611e+00
2.840000000000000000e+02,7.052732834774563031e+00
2.850000000000000000e+02,7.061276831903597007e+00
2.860000000000000000e+02,7.069785447887783292e+00
2.870000000000000000e+02,7.078258912863167218e+00
2.880000000000000000e+02,7.086696988149096654e+00
2.890000000000000000e+02,7.095100367030573452e+00
2.900000000000000000e+02,7.103469503814373809e+00
2.910000000000000000e+02,7.111803922331572991e+00
2.920000000000000000e+02,7.120104304965257036e+00
2.930000000000000000e+02,7.128370866583686905e+00
2.940000000000000000e+02,7.136603359971084970e+00
2.950000000000000000e+02,7.144803144954943619e+00
2.960000000000000000e+02,7.152969280619968728e+00
2.970000000000000000e+02,7.161102432106788207e+00
2.980000000000000000e+02,7.169202802614025316e+00
2.990000000000000000e+02,7.177270593112862862e+00
3.000000000000000000e+02,7.185305775644966531e+00
3.010000000000000000e+02,7.193308774569129760e+00
3.020000000000000000e+02,7.201280010089921468e+00
3.030000000000000000e+02,7.209219447858774998e+00
3.040000000000000000e+02,7.217127502934652661e+00
3.050000000000000000e+02,7.225004137878864974e+00
3.060000000000000000e+02,7.232849315210589936e+00
3.070000000000000000e+02,7.240663890526613855e+00
3.080000000000000000e+02,7.248447597689764876e+00
3.090000000000000000e+02,7.256200394814437793e+00
3.100000000000000000e+02,7.263922905571064348e+00
3.110000000000000000e+02,7.271615526603667945e+00
3.120000000000000000e+02,7.279277988114099429e+00
3.130000000000000000e+02,7.286910463140625183e+00
3.140000000000000000e+02,7.294513342927749555e+00
3.150000000000000000e+02,7.302087015129828274e+00
3.160000000000000000e+02,7.309630987515414624e+00
3.170000000000000000e+02,7.317146083400514200e+00
3.180000000000000000e+02,7.324632464454157166e+00
3.190000000000000000e+02,7.332089855216473495e+00
3.200000000000000000e+02,7.339518634063333380e+00
3.210000000000000000e+02,7.346919175995331841e+00
3.220000000000000000e+02,7.354291203384242692e+00
3.230000000000000000e+02,7.361634872516113148e+00
3.240000000000000000e+02,7.368950984841581509e+00
3.250000000000000000e+02,7.376239689715387016e+00
3.260000000000000000e+02,7.383500276120914307e+00
3.270000000000000000e+02,7.390733752764128361e+00
3.280000000000000000e+02,7.397939836846241235e+00
3.290000000000000000e+02,7.405118460949840831e+00
3.300000000000000000e+02,7.412270623193434105e+00
3.310000000000000000e+02,7.419396037809184108e+00
3.320000000000000000e+02,7.426494420942259644e+00
3.330000000000000000e+02,7.433566549831883918e+00
3.340000000000000000e+02,7.440612349768699119e+00
3.350000000000000000e+02,7.447631746335176217e+00
3.360000000000000000e+02,7.454625086692858282e+00
3.370000000000000000e+02,7.461592715131071252e+00
3.380000000000000000e+02,7.468534763244657704e+00
3.390000000000000000e+02,7.475450942439897162e+00
3.400000000000000000e+02,7.482341802350052085e+00
3.410000000000000000e+02,7.489207053478616594e+00
3.420000000000000000e+02,7.496047033165071483e+00
3.430000000000000000e+02,7.502862283980115343e+00
3.440000000000000000e+02,7.509652721595365676e+00
3.450000000000000000e+02,7.516418054846226937e+00
3.460000000000000000e+02,7.523159235372924414e+00
3.470000000000000000e+02,7.529875349637864979e+00
3.480000000000000000e+02,7.536567551283054556e+00
3.490000000000000000e+02,7.543235545436576039e+00
3.500000000000000000e+02,7.549879039072538767e+00
3.510000000000000000e+02,7.556498561005816406e+00
3.520000000000000000e+02,7.563094636114370495e+00
3.530000000000000000e+02,7.569666559631508918e+00
3.540000000000000000e+02,7.576215262969041575e+00
3.550000000000000000e+02,7.582740245753726960e+00
3.560000000000000000e+02,7.589241823788032804e+00
3.570000000000000000e+02,7.595720513381371219e+00
3.580000000000000000e+02,7.602175814357030603e+00
3.590000000000000000e+02,7.608608240747424922e+00
3.600000000000000000e+02,7.615017899159820303e+00
3.610000000000000000e+02,7.621404693740786662e+00
3.620000000000000000e+02,7.627768730255321650e+00
3.630000000000000000e+02,7.634110716125919183e+00
3.640000000000000000e+02,7.640429749659101155e+00
3.650000000000000000e+02,7.646726936873394997e+00
3.660000000000000000e+02,7.653001777357069990e+00
3.670000000000000000e+02,7.659254771483623436e+00
3.680000000000000000e+02,7.665485420069298783e+00
3.690000000000000000e+02,7.671694619236723689e+00
3.700000000000000000e+02,7.677882266240501963e+00
3.710000000000000000e+02,7.684047862288625019e+00
3.720000000000000000e+02,7.690192297165948432e+00
3.730000000000000000e+02,7.696315269032277584e+00
3.740000000000000000e+02,7.702416872398126557e+00
3.750000000000000000e+02,7.708497200981811126e+00
3.760000000000000000e+02,7.714556741103101523e+00
3.770000000000000000e+02,7.720594993922531124e+00
3.780000000000000000e+02,7.726612639999669518e+00
3.790000000000000000e+02,7.732609768152565621e+00
3.800000000000000000e+02,7.738585684579915025e+00
3.810000000000000000e+02,7.744541456118908762e+00
3.820000000000000000e+02,7.750476583889271076e+00
3.830000000000000000e+02,7.756391544763480361e+00
3.840000000000000000e+02,7.762286229690714023e+00
3.850000000000000000e+02,7.768160724093023717e+00
3.860000000000000000e+02,7.774014919005472812e+00
3.870000000000000000e+02,7.779849286154615129e+00
3.880000000000000000e+02,7.785663908038012337e+00
3.890000000000000000e+02,7.791458866493221613e+00
3.900000000000000000e+02,7.797233857618250497e+00
3.910000000000000000e+02,7.802989540433292071e+00
3.920000000000000000e+02,7.808725610027056341e+00
3.930000000000000000e+02,7.814442338200173310e+00
3.940000000000000000e+02,7.820139612167225529e+00
3.950000000000000000e+02,7.825817701912908930e+00
3.960000000000000000e+02,7.831476684832222368e+00
3.970000000000000000e+02,7.837116637713839040e+00
3.980000000000000000e+02,7.842737636746394791e+00
