# Time [s], Convective Heat Transfer Coefficient [W/m2K]
1.000000000000000000e+00,0.000000000000000000e+00
2.000000000000000000e+00,0.000000000000000000e+00
3.000000000000000000e+00,0.000000000000000000e+00
4.000000000000000000e+00,0.000000000000000000e+00
5.000000000000000000e+00,0.000000000000000000e+00
6.000000000000000000e+00,1.915079995362458862e-02
7.000000000000000000e+00,3.380449737731881787e-02
8.000000000000000000e+00,5.366129469656785722e-02
9.000000000000000000e+00,7.873754230432725154e-02
1.000000000000000000e+01,1.103849450869952842e-01
1.100000000000000000e+01,1.490026144909241679e-01
1.200000000000000000e+01,1.944005464373311787e-01
1.300000000000000000e+01,2.463070121938910895e-01
1.400000000000000000e+01,3.042278292134281692e-01
1.500000000000000000e+01,3.676020335501636871e-01
1.600000000000000000e+01,4.358157526924786307e-01
1.700000000000000000e+01,5.082439028004662740e-01
1.800000000000000000e+01,5.842769052760469206e-01
1.900000000000000000e+01,6.633594434181451227e-01
2.000000000000000000e+01,7.449645617219444738e-01
2.100000000000000000e+01,8.286206297281816235e-01
2.200000000000000000e+01,9.139142754472104890e-01
2.300000000000000000e+01,1.000475496960139488e+00
2.400000000000000000e+01,1.087975268613151858e+00
2.500000000000000000e+01,1.176129059215897499e+00
2.600000000000000000e+01,1.264692428176553252e+00
2.700000000000000000e+01,1.353448933283264211e+00
2.800000000000000000e+01,1.442218715834319154e+00
2.900000000000000000e+01,1.530838662390886729e+00
3.000000000000000000e+01,1.619171742673197967e+00
3.100000000000000000e+01,1.707106681920319780e+00
3.200000000000000000e+01,1.794540137216703801e+00
3.300000000000000000e+01,1.881385284475240116e+00
3.400000000000000000e+01,1.967573839730811347e+00
3.500000000000000000e+01,2.053045049758944085e+00
3.600000000000000000e+01,2.137744318515868880e+00
3.700000000000000000e+01,2.221630364241214295e+00
3.800000000000000000e+01,2.304665383214523633e+00
3.900000000000000000e+01,2.386816993408597209e+00
4.000000000000000000e+01,2.468057741923301851e+00
4.100000000000000000e+01,2.548366074902434164e+00
4.200000000000000000e+01,2.627724288564731836e+00
4.300000000000000000e+01,2.706117377807796487e+00
4.400000000000000000e+01,2.783529770604956433e+00
4.500000000000000000e+01,2.859952777888540520e+00
4.600000000000000000e+01,2.935380121775475359e+00
4.700000000000000000e+01,3.009807284298072094e+00
4.800000000000000000e+01,3.083227937427570176e+00
4.900000000000000000e+01,3.155642732964851316e+00
5.000000000000000000e+01,3.227050843312197603e+00
5.100000000000000000e+01,3.297456313665468208e+00
5.200000000000000000e+01,3.366864400624951958e+00
5.300000000000000000e+01,3.435277075567220173e+00
5.400000000000000000e+01,3.502702915895961500e+00
5.500000000000000000e+01,3.569150577446242867e+00
5.600000000000000000e+01,3.634631098968265306e+00
5.700000000000000000e+01,3.699153832204883141e+00
5.800000000000000000e+01,3.762732619010107804e+00
5.900000000000000000e+01,3.825380853621722643e+00
6.000000000000000000e+01,3.887112129548794037e+00
6.100000000000000000e+01,3.947940699763904604e+00
6.200000000000000000e+01,4.007882881421440224e+00
6.300000000000000000e+01,4.066953764669592353e+00
6.400000000000000000e+01,4.125170740623995691e+00
6.500000000000000000e+01,4.182553179132375121e+00
6.600000000000000000e+01,4.239114932850647222e+00
6.700000000000000000e+01,4.294873111201971128e+00
6.800000000000000000e+01,4.349846377985065793e+00
6.900000000000000000e+01,4.404053202837556746e+00
7.000000000000000000e+01,4.458355812235252458e+00
7.100000000000000000e+01,4.511413764201617660e+00
7.200000000000000000e+01,4.563630527980433449e+00
7.300000000000000000e+01,4.615105814918365468e+00
7.400000000000000000e+01,4.665871119595082384e+00
7.500000000000000000e+01,4.715952163926240281e+00
7.600000000000000000e+01,4.765370096871519578e+00
7.700000000000000000e+01,4.814146233699649002e+00
7.800000000000000000e+01,4.862296974103883507e+00
7.900000000000000000e+01,4.909841644149615547e+00
8.000000000000000000e+01,4.956795774948841604e+00
8.100000000000000000e+01,5.003175932055566655e+00
8.200000000000000000e+01,5.048996993969760538e+00
8.300000000000000000e+01,5.094274232348216636e+00
8.400000000000000000e+01,5.139020033921763542e+00
8.500000000000000000e+01,5.183248365145828096e+00
8.600000000000000000e+01,5.226970262977661541e+00
8.700000000000000000e+01,5.270198704603284767e+00
8.800000000000000000e+01,5.312943966926093609e+00
8.900000000000000000e+01,5.355217793756473554e+00
9.000000000000000000e+01,5.397029861489034630e+00
9.100000000000000000e+01,5.438392048223893660e+00
9.200000000000000000e+01,5.479315029587980668e+00
9.300000000000000000e+01,5.519806020365360055e+00
9.400000000000000000e+01,5.559876480452462744e+00
9.500000000000000000e+01,5.599535352669773758e+00
9.600000000000000000e+01,5.638791665737211467e+00
9.700000000000000000e+01,5.677654598797298391e+00
9.800000000000000000e+01,5.716131498992621296e+00
9.900000000000000000e+01,5.754231111988958425e+00
1.000000000000000000e+02,5.791960767415339717e+00
1.010000000000000000e+02,5.829328225085533610e+00
1.020000000000000000e+02,5.866340966163372528e+00
1.030000000000000000e+02,5.903005739020222187e+00
1.040000000000000000e+02,5.939330029861046967e+00
1.050000000000000000e+02,5.975319132181444282e+00
1.060000000000000000e+02,6.011000509519118573e+00
1.070000000000000000e+02,6.046350200202438074e+00
1.080000000000000000e+02,6.081381144566103458e+00
1.090000000000000000e+02,6.116099275655039413e+00
1.100000000000000000e+02,6.150510781846157293e+00
1.110000000000000000e+02,6.184622031103105932e+00
1.120000000000000000e+02,6.218438683044474224e+00
1.130000000000000000e+02,6.251966445462079136e+00
1.140000000000000000e+02,6.285212553129810864e+00
1.150000000000000000e+02,6.318181758719768837e+00
1.160000000000000000e+02,6.350878869553808315e+00
1.170000000000000000e+02,6.383307825181539386e+00
1.180000000000000000e+02,6.415471057942512267e+00
1.190000000000000000e+02,6.447373678386862039e+00
1.200000000000000000e+02,6.479017766683019097e+00
1.210000000000000000e+02,6.510405169759070354e+00
1.220000000000000000e+02,6.541537949243377170e+00
1.230000000000000000e+02,6.572418370552641775e+00
1.240000000000000000e+02,6.603047550304492752e+00
1.250000000000000000e+02,6.633428168514165613e+00
1.260000000000000000e+02,6.663562815328741173e+00
1.270000000000000000e+02,6.693451904387075935e+00
1.280000000000000000e+02,6.723097393968786584e+00
1.290000000000000000e+02,6.752501435173917876e+00
1.300000000000000000e+02,6.781664326917863583e+00
1.310000000000000000e+02,6.810588127228675681e+00
1.320000000000000000e+02,6.839274826823943165e+00
1.330000000000000000e+02,6.867725110584461667e+00
1.340000000000000000e+02,6.895940133667042282e+00
1.350000000000000000e+02,6.923921013422658532e+00
1.360000000000000000e+02,6.951668588097311030e+00
1.370000000000000000e+02,6.979182946603467386e+00
1.380000000000000000e+02,7.006465841588743970e+00
1.390000000000000000e+02,7.033517548544242715e+00
1.400000000000000000e+02,7.060345610353461865e+00
1.410000000000000000e+02,7.086939625492227890e+00
1.420000000000000000e+02,7.113303145865883970e+00
1.430000000000000000e+02,7.139438464209018065e+00
1.440000000000000000e+02,7.165348712015787491e+00
1.450000000000000000e+02,7.191036245061288135e+00
1.460000000000000000e+02,7.216502221540379125e+00
1.470000000000000000e+02,7.241746420645721827e+00
1.480000000000000000e+02,7.266767067999904128e+00
1.490000000000000000e+02,7.291560887617262843e+00
1.500000000000000000e+02,7.316125337860587052e+00
1.510000000000000000e+02,7.340457498885847087e+00
1.520000000000000000e+02,7.364553219931475603e+00
1.530000000000000000e+02,7.388409301479042846e+00
1.540000000000000000e+02,7.412022610169990422e+00
1.550000000000000000e+02,7.435390286314897068e+00
1.560000000000000000e+02,7.458509101967992549e+00
1.570000000000000000e+02,7.481375888374291350e+00
1.580000000000000000e+02,7.503986908232106678e+00
1.590000000000000000e+02,7.526339316811487379e+00
1.600000000000000000e+02,7.548429489657626945e+00
1.610000000000000000e+02,7.570253451327829453e+00
1.620000000000000000e+02,7.591807898172891811e+00
1.630000000000000000e+02,7.613088762851760727e+00
1.640000000000000000e+02,7.634091634415902661e+00
1.650000000000000000e+02,7.654812963138020621e+00
1.660000000000000000e+02,7.675247649687857887e+00
1.670000000000000000e+02,7.695391850146697799e+00
1.680000000000000000e+02,7.715239989945691157e+00
1.690000000000000000e+02,7.734788717616735809e+00
1.700000000000000000e+02,7.754031783203272354e+00
1.710000000000000000e+02,7.772965336927300406e+00
1.720000000000000000e+02,7.791631830105494316e+00
1.730000000000000000e+02,7.809962321915541850e+00
1.740000000000000000e+02,7.827975070144001180e+00
1.750000000000000000e+02,7.845673676405425567e+00
1.760000000000000000e+02,7.863058402992721518e+00
1.770000000000000000e+02,7.880121910976050081e+00
1.780000000000000000e+02,7.896854676599323497e+00
1.790000000000000000e+02,7.913246338897783616e+00
1.800000000000000000e+02,7.929289432219135847e+00
1.810000000000000000e+02,7.944976909250528685e+00
1.820000000000000000e+02,7.960305266563606708e+00
1.830000000000000000e+02,7.975271710826500993e+00
1.840000000000000000e+02,7.989874875491340234e+00
1.850000000000000000e+02,8.004114974903114188e+00
1.860000000000000000e+02,8.017992136137776171e+00
1.870000000000000000e+02,8.031508033046103279e+00
1.880000000000000000e+02,8.044666222003256095e+00
1.890000000000000000e+02,8.057469227699311176e+00
1.900000000000000000e+02,8.069921616977717704e+00
1.910000000000000000e+02,8.082028535911266687e+00
1.920000000000000000e+02,8.093795347011635499e+00
1.930000000000000000e+02,8.105229233331062488e+00
1.940000000000000000e+02,8.116337933269337057e+00
1.950000000000000000e+02,8.127128852012768689e+00
1.960000000000000000e+02,8.137612606563161322e+00
1.970000000000000000e+02,8.147798053298794585e+00
1.980000000000000000e+02,8.157696186252147541e+00
1.990000000000000000e+02,8.167318011758537111e+00
2.000000000000000000e+02,8.176675780810645833e+00
2.010000000000000000e+02,8.185780361385360138e+00
2.020000000000000000e+02,8.194875192541589470e+00
2.030000000000000000e+02,8.203675939174496889e+00
2.040000000000000000e+02,8.212271777322003530e+00
2.050000000000000000e+02,8.220678175687279321e+00
2.060000000000000000e+02,8.228888842583685914e+00
2.070000000000000000e+02,8.236901307334173694e+00
2.080000000000000000e+02,8.244721875138880662e+00
2.090000000000000000e+02,8.252365372837006774e+00
2.100000000000000000e+02,8.259848897629249009e+00
2.110000000000000000e+02,8.267190089906215178e+00
2.120000000000000000e+02,8.274405253662315829e+00
2.130000000000000000e+02,8.281510568080573620e+00
2.140000000000000000e+02,8.288520388979421227e+00
2.150000000000000000e+02,8.295447948170536989e+00
2.160000000000000000e+02,8.302305025902439795e+00
2.170000000000000000e+02,8.309103660450681161e+00
2.180000000000000000e+02,8.315853947087409992e+00
2.190000000000000000e+02,8.322566590142901788e+00
2.200000000000000000e+02,8.329250874244040759e+00
2.210000000000000000e+02,8.335915181736515578e+00
2.220000000000000000e+02,8.342569354997051434e+00
2.230000000000000000e+02,8.349220990646157858e+00
2.240000000000000000e+02,8.355876631044598213e+00
2.250000000000000000e+02,8.362543781271483567e+00
2.260000000000000000e+02,8.369229062878122960e+00
2.270000000000000000e+02,8.375938888020341366e+00
2.280000000000000000e+02,8.382679627305989811e+00
2.290000000000000000e+02,8.389457276984868983e+00
2.300000000000000000e+02,8.397329913297278736e+00
2.310000000000000000e+02,8.404763610020774323e+00
2.320000000000000000e+02,8.412062428315726592e+00
2.330000000000000000e+02,8.419284858184143516e+00
2.340000000000000000e+02,8.426449251338326007e+00
2.350000000000000000e+02,8.433598355379777090e+00
2.360000000000000000e+02,8.440770520407482991e+00
2.370000000000000000e+02,8.447992846522677013e+00
2.380000000000000000e+02,8.455280621717488287e+00
2.390000000000000000e+02,8.462644612374869979e+00
2.400000000000000000e+02,8.470094200353949887e+00
2.410000000000000000e+02,8.477634949900783923e+00
2.420000000000000000e+02,8.485270916027637611e+00
2.430000000000000000e+02,8.493005955216393232e+00
2.440000000000000000e+02,8.500844536171918264e+00
2.450000000000000000e+02,8.508787690933466763e+00
2.460000000000000000e+02,8.516842728999366230e+00
2.470000000000000000e+02,8.525010613316725383e+00
2.480000000000000000e+02,8.533294218475219850e+00
2.490000000000000000e+02,8.541697990714521183e+00
2.500000000000000000e+02,8.550226009893934886e+00
2.510000000000000000e+02,8.558884388782310282e+00
2.520000000000000000e+02,8.567675031478708902e+00
2.530000000000000000e+02,8.576600767601497921e+00
2.540000000000000000e+02,8.585671693988889075e+00
2.550000000000000000e+02,8.594891309481091923e+00
2.560000000000000000e+02,8.604262591473631261e+00
2.570000000000000000e+02,8.613793206665288693e+00
2.580000000000000000e+02,8.623484438184869205e+00
2.590000000000000000e+02,8.633350730090706193e+00
2.600000000000000000e+02,8.646906492734789396e+00
2.610000000000000000e+02,8.658161056088225394e+00
2.620000000000000000e+02,8.668704813103294882e+00
2.630000000000000000e+02,8.679210551625359926e+00
2.640000000000000000e+02,8.689856946482221289e+00
2.650000000000000000e+02,8.700734787038623352e+00
2.660000000000000000e+02,8.711870842523142144e+00
2.670000000000000000e+02,8.723271563490570202e+00
2.680000000000000000e+02,8.734939905512836944e+00
2.690000000000000000e+02,8.746882869590509202e+00
2.700000000000000000e+02,8.759102136291895491e+00
2.710000000000000000e+02,8.771602960784194991e+00
2.720000000000000000e+02,8.784400187363141654e+00
2.730000000000000000e+02,8.797492390590379685e+00
2.740000000000000000e+02,8.810894380251792057e+00
2.750000000000000000e+02,8.824624323019627070e+00
2.760000000000000000e+02,8.838688543233175210e+00
2.770000000000000000e+02,8.853106045179469419e+00
2.780000000000000000e+02,8.867882544044874749e+00
2.790000000000000000e+02,8.883041680407528062e+00
2.800000000000000000e+02,8.898587596063928018e+00
2.810000000000000000e+02,8.914557699613911979e+00
2.820000000000000000e+02,8.930958357264227487e+00
2.830000000000000000e+02,8.947809007766617029e+00
2.840000000000000000e+02,8.965130250986035776e+00
2.850000000000000000e+02,8.982945978427435918e+00
2.860000000000000000e+02,9.001268833568452976e+00
2.870000000000000000e+02,9.020113077499434695e+00
2.880000000000000000e+02,9.039524907937455112e+00
2.890000000000000000e+02,9.059507427670585145e+00
2.900000000000000000e+02,9.080099076600742336e+00
2.910000000000000000e+02,9.101302850236189457e+00
2.920000000000000000e+02,9.123164301977517709e+00
2.930000000000000000e+02,9.145689738098758070e+00
2.940000000000000000e+02,9.177007155125323834e+00
2.950000000000000000e+02,9.202112272792989600e+00
2.960000000000000000e+02,9.226370393274677895e+00
2.970000000000000000e+02,9.251573033114688371e+00
2.980000000000000000e+02,9.277527010185321998e+00
2.990000000000000000e+02,9.304325952914593856e+00
3.000000000000000000e+02,9.331934626053799420e+00
3.010000000000000000e+02,9.360337080806267807e+00
3.020000000000000000e+02,9.389565061167091997e+00
3.030000000000000000e+02,9.419597826027583665e+00
3.040000000000000000e+02,9.450402851212148292e+00
3.050000000000000000e+02,9.481997447519596278e+00
3.060000000000000000e+02,9.514342764556264598e+00
3.070000000000000000e+02,9.547418896902700070e+00
3.080000000000000000e+02,9.581166004040634121e+00
3.090000000000000000e+02,9.615560844135405461e+00
3.100000000000000000e+02,9.650544649232962513e+00
3.110000000000000000e+02,9.686083849693718051e+00
3.120000000000000000e+02,9.722096646189333669e+00
3.130000000000000000e+02,9.758504266766346191e+00
3.140000000000000000e+02,9.795244243710939713e+00
3.150000000000000000e+02,9.832258011137010811e+00
3.160000000000000000e+02,9.869455359874184097e+00
3.170000000000000000e+02,9.906753839546215801e+00
3.180000000000000000e+02,9.944085975817911205e+00
3.190000000000000000e+02,9.981386995053361133e+00
3.200000000000000000e+02,1.001856442000937442e+01
3.210000000000000000e+02,1.005558233580791594e+01
3.220000000000000000e+02,1.009237071890700221e+01
3.230000000000000000e+02,1.012887195964757936e+01
3.240000000000000000e+02,1.016505252507286983e+01
3.250000000000000000e+02,1.020085822054301872e+01
3.260000000000000000e+02,1.023625175571734935e+01
3.270000000000000000e+02,1.027121791006551810e+01
3.280000000000000000e+02,1.030573003667535836e+01
3.290000000000000000e+02,1.033976696029601428e+01
3.300000000000000000e+02,1.037332093968703184e+01
3.310000000000000000e+02,1.040637495655960798e+01
3.320000000000000000e+02,1.043893436421556231e+01
3.330000000000000000e+02,1.047098572425490204e+01
3.340000000000000000e+02,1.050253568359359235e+01
3.350000000000000000e+02,1.053359106407237178e+01
3.360000000000000000e+02,1.056415099347695374e+01
3.370000000000000000e+02,1.059422162401475731e+01
3.380000000000000000e+02,1.062381137080716975e+01
3.390000000000000000e+02,1.065293126544604263e+01
3.400000000000000000e+02,1.068159406950670132e+01
3.410000000000000000e+02,1.070980770356115208e+01
3.420000000000000000e+02,1.073757913618826443e+01
3.430000000000000000e+02,1.076491703849553438e+01
3.440000000000000000e+02,1.079184059012038688e+01
3.450000000000000000e+02,1.081835702200446647e+01
3.460000000000000000e+02,1.084447535243000793e+01
3.470000000000000000e+02,1.087020723975912873e+01
3.480000000000000000e+02,1.089556357283159116e+01
3.490000000000000000e+02,1.092055498518526413e+01
3.500000000000000000e+02,1.094519724041992781e+01
3.510000000000000000e+02,1.096948835952034607e+01
3.520000000000000000e+02,1.099344562748177268e+01
3.530000000000000000e+02,1.101707518479307701e+01
3.540000000000000000e+02,1.104038667610154079e+01
3.550000000000000000e+02,1.106339059761433674e+01
3.560000000000000000e+02,1.108609456904453872e+01
3.570000000000000000e+02,1.110850311127566670e+01
3.580000000000000000e+02,1.113062574217262224e+01
3.590000000000000000e+02,1.115247123334411228e+01
3.600000000000000000e+02,1.117404200291317551e+01
3.610000000000000000e+02,1.119534834251463806e+01
3.620000000000000000e+02,1.121639552288110231e+01
3.630000000000000000e+02,1.123718806197306996e+01
3.640000000000000000e+02,1.125773509757028634e+01
3.650000000000000000e+02,1.127803889351269717e+01
3.660000000000000000e+02,1.129810890403093993e+01
3.670000000000000000e+02,1.131794337140932782e+01
3.680000000000000000e+02,1.133755310962998308e+01
3.690000000000000000e+02,1.135693769196707414e+01
3.700000000000000000e+02,1.137610509093765110e+01
3.710000000000000000e+02,1.139506180194434215e+01
3.720000000000000000e+02,1.141380442335282552e+01
3.730000000000000000e+02,1.143234176213054276e+01
3.740000000000000000e+02,1.145067660304912849e+01
3.750000000000000000e+02,1.146881230305240607e+01
3.760000000000000000e+02,1.148675269426953882e+01
3.770000000000000000e+02,1.150450207751050336e+01
3.780000000000000000e+02,1.152206248262478105e+01
3.790000000000000000e+02,1.153943651686102712e+01
3.800000000000000000e+02,1.155662840849842254e+01
3.810000000000000000e+02,1.157364144926168592e+01
3.820000000000000000e+02,1.159047574333098929e+01
3.830000000000000000e+02,1.160713398840559840e+01
3.840000000000000000e+02,1.162362005259587860e+01
3.850000000000000000e+02,1.163993783542651705e+01
3.860000000000000000e+02,1.165608808036136423e+01
3.870000000000000000e+02,1.167207116841976067e+01
3.880000000000000000e+02,1.168789329294358303e+01
3.890000000000000000e+02,1.170355450263590491e+01
3.900000000000000000e+02,1.171905628495626850e+01
3.910000000000000000e+02,1.173440197231212245e+01
3.920000000000000000e+02,1.174959230921064091e+01
3.930000000000000000e+02,1.176463089893532121e+01
3.940000000000000000e+02,1.177951910572427963e+01
3.950000000000000000e+02,1.179425599930857693e+01
3.960000000000000000e+02,1.180884963209496519e+01
3.970000000000000000e+02,1.182329817147393314e+01
3.980000000000000000e+02,1.183760154904140549e+01
