# Time [s], Temperature [C]
1.000000000000000000e+00,2.499997700000000123e+01
2.000000000000000000e+00,6.297276699999999749e+01
3.000000000000000000e+00,8.462677800000000161e+01
4.000000000000000000e+00,1.022063600000000037e+02
5.000000000000000000e+00,1.168778999999999968e+02
6.000000000000000000e+00,1.297451199999999858e+02
7.000000000000000000e+00,1.412566199999999981e+02
8.000000000000000000e+00,1.517367700000000070e+02
9.000000000000000000e+00,1.613985700000000065e+02
1.000000000000000000e+01,1.704115600000000086e+02
1.100000000000000000e+01,1.789230799999999988e+02
1.200000000000000000e+01,1.870678399999999897e+02
1.300000000000000000e+01,1.949270799999999895e+02
1.400000000000000000e+01,2.024962899999999877e+02
1.500000000000000000e+01,2.096920900000000074e+02
1.600000000000000000e+01,2.164508800000000122e+02
1.700000000000000000e+01,2.227747300000000052e+02
1.800000000000000000e+01,2.286822200000000009e+02
1.900000000000000000e+01,2.341984600000000114e+02
2.000000000000000000e+01,2.393588100000000054e+02
2.100000000000000000e+01,2.441222999999999956e+02
2.200000000000000000e+01,2.484934199999999862e+02
2.300000000000000000e+01,2.525466000000000122e+02
2.400000000000000000e+01,2.561558499999999867e+02
2.500000000000000000e+01,2.593823199999999929e+02
2.600000000000000000e+01,2.624535200000000259e+02
2.700000000000000000e+01,2.650822800000000257e+02
2.800000000000000000e+01,2.674586499999999774e+02
2.900000000000000000e+01,2.699678999999999860e+02
3.000000000000000000e+01,2.720325000000000273e+02
3.100000000000000000e+01,2.739919399999999996e+02
3.200000000000000000e+01,2.763392299999999864e+02
3.300000000000000000e+01,2.781721200000000067e+02
3.400000000000000000e+01,2.800005800000000136e+02
3.500000000000000000e+01,2.823693499999999972e+02
3.600000000000000000e+01,2.841364399999999932e+02
3.700000000000000000e+01,2.859518699999999853e+02
3.800000000000000000e+01,2.883754900000000134e+02
3.900000000000000000e+01,2.901391899999999850e+02
4.000000000000000000e+01,2.919535500000000070e+02
4.100000000000000000e+01,2.943974600000000237e+02
4.200000000000000000e+01,2.961503000000000156e+02
4.300000000000000000e+01,2.979356099999999969e+02
4.400000000000000000e+01,3.003223600000000033e+02
4.500000000000000000e+01,3.020370500000000220e+02
4.600000000000000000e+01,3.032916299999999978e+02
4.700000000000000000e+01,2.989322500000000105e+02
4.800000000000000000e+01,3.014280699999999911e+02
4.900000000000000000e+01,3.026807299999999827e+02
5.000000000000000000e+01,3.051166099999999801e+02
5.100000000000000000e+01,3.068473799999999869e+02
5.200000000000000000e+01,3.086056199999999876e+02
5.300000000000000000e+01,3.107283600000000092e+02
5.400000000000000000e+01,3.124694799999999759e+02
5.500000000000000000e+01,3.141228600000000029e+02
5.600000000000000000e+01,3.161182900000000018e+02
5.700000000000000000e+01,3.177753299999999967e+02
5.800000000000000000e+01,3.193579100000000039e+02
5.900000000000000000e+01,3.212232700000000136e+02
6.000000000000000000e+01,3.228122900000000186e+02
6.100000000000000000e+01,3.243408200000000079e+02
6.200000000000000000e+01,3.260878299999999967e+02
6.300000000000000000e+01,3.276191999999999780e+02
6.400000000000000000e+01,3.290956400000000031e+02
6.500000000000000000e+01,3.307406300000000101e+02
6.600000000000000000e+01,3.322073399999999879e+02
6.700000000000000000e+01,3.336301900000000273e+02
6.800000000000000000e+01,3.351832899999999995e+02
6.900000000000000000e+01,3.365874000000000024e+02
7.000000000000000000e+01,3.379565999999999804e+02
7.100000000000000000e+01,3.394292899999999804e+02
7.200000000000000000e+01,3.407878699999999981e+02
7.300000000000000000e+01,3.421068099999999959e+02
7.400000000000000000e+01,3.435202899999999886e+02
7.500000000000000000e+01,3.448279699999999934e+02
7.600000000000000000e+01,3.461133699999999749e+02
7.700000000000000000e+01,3.474727199999999812e+02
7.800000000000000000e+01,3.487447799999999916e+02
7.900000000000000000e+01,3.499867600000000039e+02
8.000000000000000000e+01,3.512961700000000178e+02
8.100000000000000000e+01,3.525250199999999836e+02
8.200000000000000000e+01,3.537355000000000018e+02
8.300000000000000000e+01,3.549121999999999844e+02
8.400000000000000000e+01,3.541576800000000276e+02
8.500000000000000000e+01,3.549395400000000222e+02
8.600000000000000000e+01,3.557148399999999810e+02
8.700000000000000000e+01,3.566694299999999771e+02
8.800000000000000000e+01,3.576734299999999962e+02
8.900000000000000000e+01,3.587841500000000110e+02
9.000000000000000000e+01,3.598749099999999999e+02
9.100000000000000000e+01,3.609775700000000143e+02
9.200000000000000000e+01,3.621255800000000136e+02
9.300000000000000000e+01,3.632422199999999748e+02
9.400000000000000000e+01,3.643410299999999893e+02
9.500000000000000000e+01,3.654784500000000094e+02
9.600000000000000000e+01,3.665771799999999985e+02
9.700000000000000000e+01,3.676624499999999784e+02
9.800000000000000000e+01,3.687707199999999830e+02
9.900000000000000000e+01,3.698469799999999736e+02
1.000000000000000000e+02,3.709120800000000031e+02
1.010000000000000000e+02,3.719910600000000045e+02
1.020000000000000000e+02,3.730412900000000036e+02
1.030000000000000000e+02,3.740812700000000177e+02
1.040000000000000000e+02,3.751328399999999874e+02
1.050000000000000000e+02,3.761622300000000223e+02
1.060000000000000000e+02,3.771750200000000177e+02
1.070000000000000000e+02,3.782009300000000280e+02
1.080000000000000000e+02,3.792049299999999903e+02
1.090000000000000000e+02,3.801973899999999844e+02
1.100000000000000000e+02,3.812019999999999982e+02
1.110000000000000000e+02,3.821799300000000130e+02
1.120000000000000000e+02,3.831510000000000105e+02
1.130000000000000000e+02,3.841310700000000224e+02
1.140000000000000000e+02,3.850920699999999783e+02
1.150000000000000000e+02,3.860412000000000035e+02
1.160000000000000000e+02,3.869994199999999864e+02
1.170000000000000000e+02,3.879397900000000163e+02
1.180000000000000000e+02,3.885772999999999797e+02
1.190000000000000000e+02,3.892497599999999807e+02
1.200000000000000000e+02,3.901118200000000229e+02
1.210000000000000000e+02,3.909422599999999761e+02
1.220000000000000000e+02,3.918056900000000269e+02
1.230000000000000000e+02,3.926590600000000109e+02
1.240000000000000000e+02,3.935217599999999720e+02
1.250000000000000000e+02,3.943910799999999881e+02
1.260000000000000000e+02,3.952612300000000118e+02
1.270000000000000000e+02,3.961290599999999813e+02
1.280000000000000000e+02,3.970021399999999971e+02
1.290000000000000000e+02,3.978703300000000240e+02
1.300000000000000000e+02,3.987254300000000171e+02
1.310000000000000000e+02,3.995950900000000274e+02
1.320000000000000000e+02,4.004549900000000093e+02
1.330000000000000000e+02,4.013038300000000049e+02
1.340000000000000000e+02,4.021611300000000142e+02
1.350000000000000000e+02,4.030088799999999765e+02
1.360000000000000000e+02,4.038461599999999976e+02
1.370000000000000000e+02,4.046864600000000110e+02
1.380000000000000000e+02,4.055194999999999936e+02
1.390000000000000000e+02,4.063424999999999727e+02
1.400000000000000000e+02,4.071722700000000259e+02
1.410000000000000000e+02,4.079927999999999884e+02
1.420000000000000000e+02,4.088025799999999776e+02
1.430000000000000000e+02,4.096172199999999748e+02
1.440000000000000000e+02,4.104250200000000177e+02
1.450000000000000000e+02,4.112270199999999818e+02
1.460000000000000000e+02,4.120300599999999918e+02
1.470000000000000000e+02,4.128198499999999740e+02
1.480000000000000000e+02,4.136078800000000228e+02
1.490000000000000000e+02,4.143969399999999723e+02
1.500000000000000000e+02,4.151778299999999717e+02
1.510000000000000000e+02,4.159553799999999910e+02
1.520000000000000000e+02,4.165941500000000133e+02
1.530000000000000000e+02,4.172284200000000283e+02
1.540000000000000000e+02,4.179639599999999859e+02
1.550000000000000000e+02,4.186964399999999955e+02
1.560000000000000000e+02,4.194253800000000183e+02
1.570000000000000000e+02,4.201513400000000047e+02
1.580000000000000000e+02,4.208842799999999897e+02
1.590000000000000000e+02,4.216089499999999930e+02
1.600000000000000000e+02,4.223330399999999827e+02
1.610000000000000000e+02,4.230613999999999919e+02
1.620000000000000000e+02,4.237862499999999955e+02
1.630000000000000000e+02,4.245125100000000202e+02
1.640000000000000000e+02,4.252362100000000282e+02
1.650000000000000000e+02,4.259561199999999985e+02
1.660000000000000000e+02,4.266743200000000229e+02
1.670000000000000000e+02,4.273937399999999798e+02
1.680000000000000000e+02,4.281088599999999929e+02
1.690000000000000000e+02,4.288241300000000251e+02
1.700000000000000000e+02,4.295361899999999764e+02
1.710000000000000000e+02,4.302426100000000133e+02
1.720000000000000000e+02,4.309446699999999737e+02
1.730000000000000000e+02,4.316514000000000237e+02
1.740000000000000000e+02,4.323503099999999790e+02
1.750000000000000000e+02,4.330466299999999933e+02
1.760000000000000000e+02,4.337422199999999748e+02
1.770000000000000000e+02,4.344403399999999920e+02
1.780000000000000000e+02,4.351283300000000054e+02
1.790000000000000000e+02,4.358158599999999865e+02
1.800000000000000000e+02,4.364981700000000160e+02
1.810000000000000000e+02,4.371803899999999885e+02
1.820000000000000000e+02,4.378587600000000180e+02
1.830000000000000000e+02,4.385329600000000028e+02
1.840000000000000000e+02,4.391593899999999735e+02
1.850000000000000000e+02,4.397674600000000282e+02
1.860000000000000000e+02,4.404003599999999778e+02
1.870000000000000000e+02,4.410450099999999907e+02
1.880000000000000000e+02,4.416864600000000110e+02
1.890000000000000000e+02,4.423275800000000118e+02
1.900000000000000000e+02,4.429628000000000156e+02
1.910000000000000000e+02,4.436035200000000032e+02
1.920000000000000000e+02,4.442409700000000043e+02
1.930000000000000000e+02,4.448728300000000218e+02
1.940000000000000000e+02,4.455086999999999762e+02
1.950000000000000000e+02,4.461422400000000152e+02
1.960000000000000000e+02,4.467726099999999860e+02
1.970000000000000000e+02,4.474051799999999730e+02
1.980000000000000000e+02,4.480303000000000111e+02
1.990000000000000000e+02,4.486611300000000142e+02
2.000000000000000000e+02,4.492851299999999810e+02
2.010000000000000000e+02,4.499090299999999729e+02
2.020000000000000000e+02,4.505306400000000053e+02
2.030000000000000000e+02,4.511507899999999722e+02
2.040000000000000000e+02,4.517701099999999883e+02
2.050000000000000000e+02,4.523864100000000121e+02
2.060000000000000000e+02,4.530020799999999781e+02
2.070000000000000000e+02,4.536099199999999882e+02
2.080000000000000000e+02,4.542185400000000186e+02
2.090000000000000000e+02,4.548276399999999740e+02
2.100000000000000000e+02,4.554341400000000135e+02
2.110000000000000000e+02,4.560149200000000178e+02
2.120000000000000000e+02,4.565783099999999877e+02
2.130000000000000000e+02,4.571557599999999866e+02
2.140000000000000000e+02,4.577318700000000149e+02
2.150000000000000000e+02,4.583076199999999858e+02
2.160000000000000000e+02,4.588884600000000091e+02
2.170000000000000000e+02,4.594625500000000216e+02
2.180000000000000000e+02,4.600369299999999839e+02
2.190000000000000000e+02,4.606096499999999878e+02
2.200000000000000000e+02,4.611809999999999832e+02
2.210000000000000000e+02,4.617510399999999890e+02
2.220000000000000000e+02,4.623151599999999917e+02
2.230000000000000000e+02,4.628845200000000091e+02
2.240000000000000000e+02,4.634483000000000175e+02
2.250000000000000000e+02,4.640115400000000250e+02
2.260000000000000000e+02,4.645732100000000173e+02
2.270000000000000000e+02,4.651328399999999874e+02
2.280000000000000000e+02,4.656906399999999735e+02
2.290000000000000000e+02,4.662461900000000128e+02
2.300000000000000000e+02,4.668004500000000121e+02
2.310000000000000000e+02,4.673555900000000065e+02
2.320000000000000000e+02,4.679031400000000076e+02
2.330000000000000000e+02,4.684546799999999962e+02
2.340000000000000000e+02,4.690005499999999756e+02
2.350000000000000000e+02,4.695455000000000041e+02
2.360000000000000000e+02,4.700893599999999992e+02
2.370000000000000000e+02,4.706236900000000105e+02
2.380000000000000000e+02,4.711449900000000071e+02
2.390000000000000000e+02,4.716742199999999912e+02
2.400000000000000000e+02,4.721962899999999763e+02
2.410000000000000000e+02,4.727183800000000247e+02
2.420000000000000000e+02,4.732421600000000126e+02
2.430000000000000000e+02,4.737607100000000173e+02
2.440000000000000000e+02,4.742789000000000215e+02
2.450000000000000000e+02,4.747963599999999929e+02
2.460000000000000000e+02,4.753140300000000025e+02
2.470000000000000000e+02,4.758249799999999823e+02
2.480000000000000000e+02,4.763414599999999837e+02
2.490000000000000000e+02,4.768555600000000254e+02
2.500000000000000000e+02,4.773656300000000101e+02
2.510000000000000000e+02,4.778753100000000131e+02
2.520000000000000000e+02,4.783831500000000005e+02
2.530000000000000000e+02,4.788915700000000015e+02
2.540000000000000000e+02,4.793978299999999990e+02
2.550000000000000000e+02,4.799020100000000184e+02
2.560000000000000000e+02,4.804067999999999756e+02
2.570000000000000000e+02,4.809119000000000028e+02
2.580000000000000000e+02,4.814101299999999810e+02
2.590000000000000000e+02,4.819128400000000170e+02
2.600000000000000000e+02,4.824115600000000086e+02
2.610000000000000000e+02,4.829115300000000275e+02
2.620000000000000000e+02,4.834083299999999781e+02
2.630000000000000000e+02,4.839047899999999913e+02
2.640000000000000000e+02,4.844019499999999994e+02
2.650000000000000000e+02,4.848989000000000260e+02
2.660000000000000000e+02,4.853854400000000169e+02
2.670000000000000000e+02,4.858751500000000192e+02
2.680000000000000000e+02,4.863625200000000177e+02
2.690000000000000000e+02,4.868466199999999731e+02
2.700000000000000000e+02,4.873315999999999804e+02
2.710000000000000000e+02,4.878189699999999789e+02
2.720000000000000000e+02,4.883028899999999908e+02
2.730000000000000000e+02,4.887894299999999816e+02
2.740000000000000000e+02,4.892764000000000237e+02
2.750000000000000000e+02,4.897587899999999763e+02
2.760000000000000000e+02,4.902462499999999750e+02
2.770000000000000000e+02,4.907350200000000200e+02
2.780000000000000000e+02,4.912215600000000109e+02
2.790000000000000000e+02,4.917109399999999937e+02
2.800000000000000000e+02,4.921992799999999875e+02
2.810000000000000000e+02,4.926890599999999836e+02
2.820000000000000000e+02,4.931809999999999832e+02
2.830000000000000000e+02,4.936743799999999851e+02
2.840000000000000000e+02,4.941648900000000140e+02
2.850000000000000000e+02,4.946620500000000220e+02
2.860000000000000000e+02,4.951604600000000005e+02
2.870000000000000000e+02,4.956583299999999781e+02
2.880000000000000000e+02,4.961584199999999782e+02
2.890000000000000000e+02,4.966642200000000003e+02
2.900000000000000000e+02,4.971692199999999957e+02
2.910000000000000000e+02,4.976791999999999803e+02
2.920000000000000000e+02,4.981874399999999810e+02
2.930000000000000000e+02,4.987051399999999717e+02
2.940000000000000000e+02,4.992257099999999923e+02
2.950000000000000000e+02,4.997453300000000240e+02
2.960000000000000000e+02,5.002748700000000213e+02
2.970000000000000000e+02,5.008034999999999854e+02
2.980000000000000000e+02,5.013406699999999887e+02
2.990000000000000000e+02,5.018788499999999999e+02
3.000000000000000000e+02,5.024274300000000153e+02
3.010000000000000000e+02,5.029757999999999925e+02
3.020000000000000000e+02,5.035308200000000056e+02
3.030000000000000000e+02,5.040827300000000264e+02
3.040000000000000000e+02,5.046492900000000077e+02
3.050000000000000000e+02,5.052217099999999732e+02
3.060000000000000000e+02,5.058023699999999963e+02
3.070000000000000000e+02,5.063913900000000012e+02
3.080000000000000000e+02,5.069875200000000177e+02
3.090000000000000000e+02,5.075927399999999921e+02
3.100000000000000000e+02,5.082067299999999932e+02
3.110000000000000000e+02,5.088281200000000126e+02
3.120000000000000000e+02,5.094624000000000024e+02
3.130000000000000000e+02,5.101047100000000114e+02
3.140000000000000000e+02,5.107544300000000135e+02
3.150000000000000000e+02,5.114159500000000094e+02
3.160000000000000000e+02,5.120867899999999509e+02
3.170000000000000000e+02,5.127668499999999767e+02
3.180000000000000000e+02,5.134583099999999831e+02
3.190000000000000000e+02,5.141569200000000137e+02
3.200000000000000000e+02,5.148656600000000481e+02
3.210000000000000000e+02,5.155833699999999453e+02
3.220000000000000000e+02,5.163117700000000241e+02
3.230000000000000000e+02,5.170529199999999719e+02
3.240000000000000000e+02,5.178008399999999938e+02
3.250000000000000000e+02,5.185581700000000183e+02
3.260000000000000000e+02,5.193252599999999575e+02
3.270000000000000000e+02,5.201019300000000385e+02
3.280000000000000000e+02,5.208866600000000062e+02
3.290000000000000000e+02,5.216804200000000264e+02
3.300000000000000000e+02,5.224800999999999931e+02
3.310000000000000000e+02,5.232896100000000388e+02
3.320000000000000000e+02,5.241073599999999715e+02
3.330000000000000000e+02,5.249325000000000045e+02
3.340000000000000000e+02,5.257623899999999821e+02
3.350000000000000000e+02,5.266019300000000385e+02
3.360000000000000000e+02,5.274471999999999525e+02
3.370000000000000000e+02,5.282988900000000285e+02
3.380000000000000000e+02,5.291545999999999594e+02
3.390000000000000000e+02,5.300153199999999742e+02
3.400000000000000000e+02,5.308806799999999839e+02
3.410000000000000000e+02,5.317528700000000299e+02
3.420000000000000000e+02,5.326286599999999680e+02
3.430000000000000000e+02,5.335068999999999733e+02
3.440000000000000000e+02,5.343916000000000395e+02
3.450000000000000000e+02,5.352741700000000264e+02
3.460000000000000000e+02,5.361647299999999632e+02
3.470000000000000000e+02,5.370578600000000051e+02
3.480000000000000000e+02,5.379508700000000090e+02
3.490000000000000000e+02,5.388463100000000168e+02
3.500000000000000000e+02,5.397438399999999774e+02
3.510000000000000000e+02,5.406437399999999798e+02
3.520000000000000000e+02,5.415425400000000309e+02
3.530000000000000000e+02,5.424424999999999955e+02
3.540000000000000000e+02,5.433433199999999488e+02
3.550000000000000000e+02,5.442455400000000054e+02
3.560000000000000000e+02,5.451483200000000124e+02
3.570000000000000000e+02,5.460470000000000255e+02
3.580000000000000000e+02,5.469496500000000196e+02
3.590000000000000000e+02,5.478491199999999708e+02
3.600000000000000000e+02,5.487497600000000375e+02
3.610000000000000000e+02,5.496452600000000075e+02
3.620000000000000000e+02,5.505435800000000199e+02
3.630000000000000000e+02,5.514376800000000003e+02
3.640000000000000000e+02,5.523322799999999688e+02
3.650000000000000000e+02,5.532239399999999705e+02
3.660000000000000000e+02,5.541140699999999697e+02
3.670000000000000000e+02,5.550029899999999543e+02
3.680000000000000000e+02,5.558879399999999578e+02
3.690000000000000000e+02,5.567721599999999853e+02
3.700000000000000000e+02,5.576504499999999780e+02
3.710000000000000000e+02,5.585311299999999619e+02
3.720000000000000000e+02,5.594077099999999518e+02
3.730000000000000000e+02,5.602788699999999835e+02
3.740000000000000000e+02,5.611499000000000024e+02
3.750000000000000000e+02,5.620140400000000227e+02
3.760000000000000000e+02,5.628789699999999812e+02
3.770000000000000000e+02,5.637407200000000103e+02
3.780000000000000000e+02,5.645970499999999674e+02
3.790000000000000000e+02,5.654516599999999471e+02
3.800000000000000000e+02,5.663035300000000234e+02
3.810000000000000000e+02,5.671479500000000371e+02
3.820000000000000000e+02,5.679924899999999752e+02
3.830000000000000000e+02,5.688333699999999453e+02
3.840000000000000000e+02,5.696702900000000227e+02
3.850000000000000000e+02,5.705016500000000406e+02
3.860000000000000000e+02,5.713312399999999798e+02
3.870000000000000000e+02,5.721563700000000381e+02
3.880000000000000000e+02,5.729776600000000144e+02
3.890000000000000000e+02,5.737946200000000090e+02
3.900000000000000000e+02,5.746080899999999474e+02
3.910000000000000000e+02,5.754173600000000306e+02
3.920000000000000000e+02,5.762233300000000327e+02
3.930000000000000000e+02,5.770230699999999615e+02
3.940000000000000000e+02,5.778206800000000385e+02
3.950000000000000000e+02,5.786145599999999831e+02
3.960000000000000000e+02,5.794037499999999454e+02
3.970000000000000000e+02,5.801892699999999650e+02
3.980000000000000000e+02,5.809708900000000540e+02
3.990000000000000000e+02,5.817477999999999838e+02
