# Time [s], Thickness [m]
1.000000000000000000e+00,8.000000400000000303e-03
2.000000000000000000e+00,8.000000400000000303e-03
3.000000000000000000e+00,8.000000400000000303e-03
4.000000000000000000e+00,8.000000400000000303e-03
5.000000000000000000e+00,8.000000400000000303e-03
6.000000000000000000e+00,8.000000400000000303e-03
7.000000000000000000e+00,8.000000400000000303e-03
8.000000000000000000e+00,8.000000400000000303e-03
9.000000000000000000e+00,7.999999400000000829e-03
1.000000000000000000e+01,7.999999400000000829e-03
1.100000000000000000e+01,7.999998499999999221e-03
1.200000000000000000e+01,7.999996699999999475e-03
1.300000000000000000e+01,7.999992900000000781e-03
1.400000000000000000e+01,7.999983599999999778e-03
1.500000000000000000e+01,7.999966900000000589e-03
1.600000000000000000e+01,7.999936100000000494e-03
1.700000000000000000e+01,7.999882099999999427e-03
1.800000000000000000e+01,7.999790799999999952e-03
1.900000000000000000e+01,7.999643699999999663e-03
2.000000000000000000e+01,7.999413599999999694e-03
2.100000000000000000e+01,7.999068099999999404e-03
2.200000000000000000e+01,7.998563300000000736e-03
2.300000000000000000e+01,7.997850900000000665e-03
2.400000000000000000e+01,7.996873899999999702e-03
2.500000000000000000e+01,7.995576600000000103e-03
2.600000000000000000e+01,7.993902100000000246e-03
2.700000000000000000e+01,7.991802900000000848e-03
2.800000000000000000e+01,7.989244499999999249e-03
2.900000000000000000e+01,7.986209399999999459e-03
3.000000000000000000e+01,7.982691700000000765e-03
3.100000000000000000e+01,7.978704799999999930e-03
3.200000000000000000e+01,7.974270699999999254e-03
3.300000000000000000e+01,7.969413899999999717e-03
3.400000000000000000e+01,7.964168699999999573e-03
3.500000000000000000e+01,7.958566800000000524e-03
3.600000000000000000e+01,7.952635200000000501e-03
3.700000000000000000e+01,7.946407399999999219e-03
3.800000000000000000e+01,7.939909599999999540e-03
3.900000000000000000e+01,7.933163099999999621e-03
4.000000000000000000e+01,7.926192099999999907e-03
4.100000000000000000e+01,7.919016299999999745e-03
4.200000000000000000e+01,7.911649499999999502e-03
4.300000000000000000e+01,7.904111400000000259e-03
4.400000000000000000e+01,7.896415000000000378e-03
4.500000000000000000e+01,7.888569499999999526e-03
4.600000000000000000e+01,7.880589000000000344e-03
4.700000000000000000e+01,7.872482800000000364e-03
4.800000000000000000e+01,7.864258299999999507e-03
4.900000000000000000e+01,7.855927599999999733e-03
5.000000000000000000e+01,7.847498200000000562e-03
5.100000000000000000e+01,7.838973799999999353e-03
5.200000000000000000e+01,7.830366499999999799e-03
5.300000000000000000e+01,7.821682800000000213e-03
5.400000000000000000e+01,7.812926499999999289e-03
5.500000000000000000e+01,7.804106899999999764e-03
5.600000000000000000e+01,7.795230499999999951e-03
5.700000000000000000e+01,7.786300000000000339e-03
5.800000000000000000e+01,7.777323499999999785e-03
5.900000000000000000e+01,7.768305500000000259e-03
6.000000000000000000e+01,7.759248800000000112e-03
6.100000000000000000e+01,7.750158699999999852e-03
6.200000000000000000e+01,7.741038199999999633e-03
6.300000000000000000e+01,7.731889399999999739e-03
6.400000000000000000e+01,7.722714900000000188e-03
6.500000000000000000e+01,7.713517599999999801e-03
6.600000000000000000e+01,7.704297500000000312e-03
6.700000000000000000e+01,7.695057400000000075e-03
6.800000000000000000e+01,7.685797799999999694e-03
6.900000000000000000e+01,7.676519500000000308e-03
7.000000000000000000e+01,7.667223499999999657e-03
7.100000000000000000e+01,7.657911600000000089e-03
7.200000000000000000e+01,7.648583500000000202e-03
7.300000000000000000e+01,7.639240500000000003e-03
7.400000000000000000e+01,7.629883500000000235e-03
7.500000000000000000e+01,7.620513399999999903e-03
7.600000000000000000e+01,7.605711900000000115e-03
7.700000000000000000e+01,7.594637100000000036e-03
7.800000000000000000e+01,7.584570399999999817e-03
7.900000000000000000e+01,7.574330500000000382e-03
8.000000000000000000e+01,7.564437099999999845e-03
8.100000000000000000e+01,7.554459900000000221e-03
8.200000000000000000e+01,7.544615299999999844e-03
8.300000000000000000e+01,7.534738600000000230e-03
8.400000000000000000e+01,7.524913200000000330e-03
8.500000000000000000e+01,7.515073799999999991e-03
8.600000000000000000e+01,7.505251999999999583e-03
8.700000000000000000e+01,7.495422399999999985e-03
8.800000000000000000e+01,7.485595500000000006e-03
8.900000000000000000e+01,7.475762599999999716e-03
9.000000000000000000e+01,7.465926500000000070e-03
9.100000000000000000e+01,7.456084699999999781e-03
9.200000000000000000e+01,7.446237799999999921e-03
9.300000000000000000e+01,7.436385400000000354e-03
9.400000000000000000e+01,7.426526400000000271e-03
9.500000000000000000e+01,7.416662299999999750e-03
9.600000000000000000e+01,7.406791200000000311e-03
9.700000000000000000e+01,7.396912700000000084e-03
9.800000000000000000e+01,7.387026700000000334e-03
9.900000000000000000e+01,7.377132300000000323e-03
1.000000000000000000e+02,7.367228200000000039e-03
1.010000000000000000e+02,7.357313800000000147e-03
1.020000000000000000e+02,7.347387300000000031e-03
1.030000000000000000e+02,7.337448199999999955e-03
1.040000000000000000e+02,7.327495100000000310e-03
1.050000000000000000e+02,7.317526700000000217e-03
1.060000000000000000e+02,7.307542499999999941e-03
1.070000000000000000e+02,7.297541000000000271e-03
1.080000000000000000e+02,7.287521400000000066e-03
1.090000000000000000e+02,7.277483099999999989e-03
1.100000000000000000e+02,7.267424800000000032e-03
1.110000000000000000e+02,7.257346500000000193e-03
1.120000000000000000e+02,7.247247299999999733e-03
1.130000000000000000e+02,7.237126600000000180e-03
1.140000000000000000e+02,7.226983099999999792e-03
1.150000000000000000e+02,7.216817199999999571e-03
1.160000000000000000e+02,7.206628100000000113e-03
1.170000000000000000e+02,7.196415200000000345e-03
1.180000000000000000e+02,7.184728500000000205e-03
1.190000000000000000e+02,7.173447399999999599e-03
1.200000000000000000e+02,7.162468499999999696e-03
1.210000000000000000e+02,7.151641000000000248e-03
1.220000000000000000e+02,7.140909299999999640e-03
1.230000000000000000e+02,7.130223800000000042e-03
1.240000000000000000e+02,7.119562900000000159e-03
1.250000000000000000e+02,7.108907200000000315e-03
1.260000000000000000e+02,7.098246400000000032e-03
1.270000000000000000e+02,7.087572900000000189e-03
1.280000000000000000e+02,7.076881400000000280e-03
1.290000000000000000e+02,7.066167899999999807e-03
1.300000000000000000e+02,7.055430199999999756e-03
1.310000000000000000e+02,7.044665500000000039e-03
1.320000000000000000e+02,7.033872000000000041e-03
1.330000000000000000e+02,7.023047699999999949e-03
1.340000000000000000e+02,7.012191699999999889e-03
1.350000000000000000e+02,7.001301700000000378e-03
1.360000000000000000e+02,6.990376900000000275e-03
1.370000000000000000e+02,6.979415200000000166e-03
1.380000000000000000e+02,6.968415300000000041e-03
1.390000000000000000e+02,6.957375899999999891e-03
1.400000000000000000e+02,6.946295499999999637e-03
1.410000000000000000e+02,6.935172199999999933e-03
1.420000000000000000e+02,6.924004800000000369e-03
1.430000000000000000e+02,6.912791599999999932e-03
1.440000000000000000e+02,6.901531899999999685e-03
1.450000000000000000e+02,6.890224300000000017e-03
1.460000000000000000e+02,6.878866800000000246e-03
1.470000000000000000e+02,6.867459000000000237e-03
1.480000000000000000e+02,6.855999599999999979e-03
1.490000000000000000e+02,6.844486999999999793e-03
1.500000000000000000e+02,6.832920499999999876e-03
1.510000000000000000e+02,6.821298499999999682e-03
1.520000000000000000e+02,6.809619700000000067e-03
1.530000000000000000e+02,6.797883200000000292e-03
1.540000000000000000e+02,6.786088000000000016e-03
1.550000000000000000e+02,6.774231799999999755e-03
1.560000000000000000e+02,6.761189600000000119e-03
1.570000000000000000e+02,6.748458399999999850e-03
1.580000000000000000e+02,6.735857599999999813e-03
1.590000000000000000e+02,6.723310300000000239e-03
1.600000000000000000e+02,6.710787299999999844e-03
1.610000000000000000e+02,6.698258700000000142e-03
1.620000000000000000e+02,6.685710499999999827e-03
1.630000000000000000e+02,6.673127400000000188e-03
1.640000000000000000e+02,6.660501000000000095e-03
1.650000000000000000e+02,6.647822400000000416e-03
1.660000000000000000e+02,6.635087500000000187e-03
1.670000000000000000e+02,6.622289800000000226e-03
1.680000000000000000e+02,6.609427299999999852e-03
1.690000000000000000e+02,6.596494900000000362e-03
1.700000000000000000e+02,6.583490899999999875e-03
1.710000000000000000e+02,6.570413699999999579e-03
1.720000000000000000e+02,6.557260599999999856e-03
1.730000000000000000e+02,6.544030699999999964e-03
1.740000000000000000e+02,6.530723500000000167e-03
1.750000000000000000e+02,6.517337199999999851e-03
1.760000000000000000e+02,6.503872100000000420e-03
1.770000000000000000e+02,6.490328299999999738e-03
1.780000000000000000e+02,6.476705400000000272e-03
1.790000000000000000e+02,6.463004700000000297e-03
1.800000000000000000e+02,6.449226300000000280e-03
1.810000000000000000e+02,6.435371500000000231e-03
1.820000000000000000e+02,6.421442099999999896e-03
1.830000000000000000e+02,6.407439200000000085e-03
1.840000000000000000e+02,6.393365100000000280e-03
1.850000000000000000e+02,6.379221600000000228e-03
1.860000000000000000e+02,6.365011400000000416e-03
1.870000000000000000e+02,6.350737099999999996e-03
1.880000000000000000e+02,6.335499199999999713e-03
1.890000000000000000e+02,6.320476499999999956e-03
1.900000000000000000e+02,6.305540000000000103e-03
1.910000000000000000e+02,6.290645299999999759e-03
1.920000000000000000e+02,6.275772100000000242e-03
1.930000000000000000e+02,6.260905399999999905e-03
1.940000000000000000e+02,6.246038699999999569e-03
1.950000000000000000e+02,6.231166399999999925e-03
1.960000000000000000e+02,6.216286199999999755e-03
1.970000000000000000e+02,6.201396199999999713e-03
1.980000000000000000e+02,6.186496900000000403e-03
1.990000000000000000e+02,6.171588799999999826e-03
2.000000000000000000e+02,6.156672699999999991e-03
2.010000000000000000e+02,6.141749699999999972e-03
2.020000000000000000e+02,6.126822900000000391e-03
2.030000000000000000e+02,6.111893299999999855e-03
2.040000000000000000e+02,6.096963300000000051e-03
2.050000000000000000e+02,6.082036100000000334e-03
2.060000000000000000e+02,6.067113499999999583e-03
2.070000000000000000e+02,6.052197900000000352e-03
2.080000000000000000e+02,6.037291099999999786e-03
2.090000000000000000e+02,6.022396499999999910e-03
2.100000000000000000e+02,6.007515399999999867e-03
2.110000000000000000e+02,5.992650500000000144e-03
2.120000000000000000e+02,5.977803799999999688e-03
2.130000000000000000e+02,5.962977199999999582e-03
2.140000000000000000e+02,5.948172399999999971e-03
2.150000000000000000e+02,5.933390900000000065e-03
2.160000000000000000e+02,5.918634600000000079e-03
2.170000000000000000e+02,5.903223499999999714e-03
2.180000000000000000e+02,5.888021600000000431e-03
2.190000000000000000e+02,5.872950400000000182e-03
2.200000000000000000e+02,5.857978899999999670e-03
2.210000000000000000e+02,5.843090799999999842e-03
2.220000000000000000e+02,5.828273900000000007e-03
2.230000000000000000e+02,5.813521799999999719e-03
2.240000000000000000e+02,5.798829299999999805e-03
2.250000000000000000e+02,5.784192100000000100e-03
2.260000000000000000e+02,5.769607599999999718e-03
2.270000000000000000e+02,5.755073399999999575e-03
2.280000000000000000e+02,5.740588500000000198e-03
2.290000000000000000e+02,5.726151199999999705e-03
2.300000000000000000e+02,5.711759400000000417e-03
2.310000000000000000e+02,5.697413800000000403e-03
2.320000000000000000e+02,5.683112399999999849e-03
2.330000000000000000e+02,5.668854800000000353e-03
2.340000000000000000e+02,5.654640499999999577e-03
2.350000000000000000e+02,5.640469000000000385e-03
2.360000000000000000e+02,5.626340399999999776e-03
2.370000000000000000e+02,5.612254599999999885e-03
2.380000000000000000e+02,5.598210699999999970e-03
2.390000000000000000e+02,5.584209199999999769e-03
2.400000000000000000e+02,5.570249600000000412e-03
2.410000000000000000e+02,5.556332399999999901e-03
2.420000000000000000e+02,5.542457100000000234e-03
2.430000000000000000e+02,5.528624200000000280e-03
2.440000000000000000e+02,5.514833099999999835e-03
2.450000000000000000e+02,5.501085000000000176e-03
2.460000000000000000e+02,5.486830100000000300e-03
2.470000000000000000e+02,5.472749499999999580e-03
2.480000000000000000e+02,5.458790800000000096e-03
2.490000000000000000e+02,5.444930399999999872e-03
2.500000000000000000e+02,5.431155699999999815e-03
2.510000000000000000e+02,5.417457300000000191e-03
2.520000000000000000e+02,5.403830699999999897e-03
2.530000000000000000e+02,5.390270600000000162e-03
2.540000000000000000e+02,5.376775299999999973e-03
2.550000000000000000e+02,5.363340999999999768e-03
2.560000000000000000e+02,5.349966700000000075e-03
2.570000000000000000e+02,5.336651599999999752e-03
2.580000000000000000e+02,5.323394199999999590e-03
2.590000000000000000e+02,5.310193599999999715e-03
2.600000000000000000e+02,5.297050299999999864e-03
2.610000000000000000e+02,5.283963400000000164e-03
2.620000000000000000e+02,5.270933299999999884e-03
2.630000000000000000e+02,5.257960400000000027e-03
2.640000000000000000e+02,5.245044800000000194e-03
2.650000000000000000e+02,5.232187499999999859e-03
2.660000000000000000e+02,5.219389199999999694e-03
2.670000000000000000e+02,5.206651100000000108e-03
2.680000000000000000e+02,5.193974399999999776e-03
2.690000000000000000e+02,5.181360099999999906e-03
2.700000000000000000e+02,5.168810000000000245e-03
2.710000000000000000e+02,5.156325199999999866e-03
2.720000000000000000e+02,5.143908299999999656e-03
2.730000000000000000e+02,5.131560400000000424e-03
2.740000000000000000e+02,5.119284099999999588e-03
2.750000000000000000e+02,5.107081999999999768e-03
2.760000000000000000e+02,5.094956599999999648e-03
2.770000000000000000e+02,5.082910900000000252e-03
2.780000000000000000e+02,5.070947999999999602e-03
2.790000000000000000e+02,5.058685799999999670e-03
2.800000000000000000e+02,5.046597699999999694e-03
2.810000000000000000e+02,5.034661900000000044e-03
2.820000000000000000e+02,5.022868500000000382e-03
2.830000000000000000e+02,5.011213900000000346e-03
2.840000000000000000e+02,4.999695299999999849e-03
2.850000000000000000e+02,4.988315000000000110e-03
2.860000000000000000e+02,4.977074500000000339e-03
2.870000000000000000e+02,4.965978700000000037e-03
2.880000000000000000e+02,4.955033799999999586e-03
2.890000000000000000e+02,4.944247199999999773e-03
2.900000000000000000e+02,4.933627299999999993e-03
2.910000000000000000e+02,4.923184899999999593e-03
2.920000000000000000e+02,4.912930499999999985e-03
2.930000000000000000e+02,4.902877800000000202e-03
2.940000000000000000e+02,4.893041199999999952e-03
2.950000000000000000e+02,4.883436500000000284e-03
2.960000000000000000e+02,4.874082699999999872e-03
2.970000000000000000e+02,4.864999600000000264e-03
2.980000000000000000e+02,4.856210199999999762e-03
2.990000000000000000e+02,4.847738400000000010e-03
3.000000000000000000e+02,4.839611700000000412e-03
3.010000000000000000e+02,4.831861199999999863e-03
3.020000000000000000e+02,4.824517799999999794e-03
3.030000000000000000e+02,4.817616200000000327e-03
3.040000000000000000e+02,4.811192399999999862e-03
3.050000000000000000e+02,4.805282200000000198e-03
3.060000000000000000e+02,4.799919700000000386e-03
3.070000000000000000e+02,4.795135899999999722e-03
3.080000000000000000e+02,4.790953799999999978e-03
3.090000000000000000e+02,4.787384500000000168e-03
3.100000000000000000e+02,4.784423399999999590e-03
3.110000000000000000e+02,4.782045300000000061e-03
3.120000000000000000e+02,4.780202199999999957e-03
3.130000000000000000e+02,4.778827999999999722e-03
3.140000000000000000e+02,4.777841700000000358e-03
3.150000000000000000e+02,4.777158600000000303e-03
3.160000000000000000e+02,4.776699500000000306e-03
3.170000000000000000e+02,4.776397699999999739e-03
3.180000000000000000e+02,4.776202099999999826e-03
3.190000000000000000e+02,4.776076899999999632e-03
3.200000000000000000e+02,4.775996299999999903e-03
3.210000000000000000e+02,4.775944600000000054e-03
3.220000000000000000e+02,4.775911100000000339e-03
3.230000000000000000e+02,4.775889200000000244e-03
3.240000000000000000e+02,4.775874799999999670e-03
3.250000000000000000e+02,4.775864999999999798e-03
3.260000000000000000e+02,4.775858499999999750e-03
3.270000000000000000e+02,4.775854300000000052e-03
3.280000000000000000e+02,4.775851000000000228e-03
3.290000000000000000e+02,4.775849199999999614e-03
3.300000000000000000e+02,4.775847800000000004e-03
3.310000000000000000e+02,4.775846799999999663e-03
3.320000000000000000e+02,4.775845899999999790e-03
3.330000000000000000e+02,4.775845400000000053e-03
3.340000000000000000e+02,4.775844999999999917e-03
3.350000000000000000e+02,4.775844500000000180e-03
3.360000000000000000e+02,4.775844500000000180e-03
3.370000000000000000e+02,4.775844500000000180e-03
3.380000000000000000e+02,4.775843999999999576e-03
3.390000000000000000e+02,4.775843999999999576e-03
3.400000000000000000e+02,4.775843999999999576e-03
3.410000000000000000e+02,4.775843999999999576e-03
3.420000000000000000e+02,4.775843999999999576e-03
3.430000000000000000e+02,4.775843999999999576e-03
3.440000000000000000e+02,4.775843999999999576e-03
3.450000000000000000e+02,4.775843999999999576e-03
3.460000000000000000e+02,4.775843999999999576e-03
3.470000000000000000e+02,4.775843999999999576e-03
3.480000000000000000e+02,4.775843999999999576e-03
3.490000000000000000e+02,4.775843999999999576e-03
3.500000000000000000e+02,4.775843999999999576e-03
3.510000000000000000e+02,4.775843999999999576e-03
3.520000000000000000e+02,4.775843999999999576e-03
3.530000000000000000e+02,4.775843999999999576e-03
3.540000000000000000e+02,4.775843999999999576e-03
3.550000000000000000e+02,4.775843999999999576e-03
3.560000000000000000e+02,4.775843999999999576e-03
3.570000000000000000e+02,4.775843600000000307e-03
3.580000000000000000e+02,4.775843600000000307e-03
3.590000000000000000e+02,4.775843600000000307e-03
3.600000000000000000e+02,4.775843600000000307e-03
3.610000000000000000e+02,4.775843600000000307e-03
3.620000000000000000e+02,4.775843600000000307e-03
3.630000000000000000e+02,4.775843600000000307e-03
3.640000000000000000e+02,4.775843600000000307e-03
3.650000000000000000e+02,4.775843600000000307e-03
3.660000000000000000e+02,4.775843600000000307e-03
3.670000000000000000e+02,4.775843600000000307e-03
3.680000000000000000e+02,4.775843600000000307e-03
3.690000000000000000e+02,4.775843600000000307e-03
3.700000000000000000e+02,4.775843600000000307e-03
3.710000000000000000e+02,4.775843600000000307e-03
3.720000000000000000e+02,4.775843600000000307e-03
3.730000000000000000e+02,4.775843600000000307e-03
3.740000000000000000e+02,4.775843600000000307e-03
3.750000000000000000e+02,4.775843600000000307e-03
3.760000000000000000e+02,4.775843600000000307e-03
3.770000000000000000e+02,4.775843600000000307e-03
3.780000000000000000e+02,4.775843600000000307e-03
3.790000000000000000e+02,4.775843600000000307e-03
3.800000000000000000e+02,4.775843600000000307e-03
3.810000000000000000e+02,4.775843600000000307e-03
3.820000000000000000e+02,4.775843600000000307e-03
3.830000000000000000e+02,4.775843600000000307e-03
3.840000000000000000e+02,4.775843600000000307e-03
3.850000000000000000e+02,4.775843600000000307e-03
3.860000000000000000e+02,4.775843600000000307e-03
3.870000000000000000e+02,4.775843600000000307e-03
3.880000000000000000e+02,4.775843600000000307e-03
3.890000000000000000e+02,4.775843600000000307e-03
3.900000000000000000e+02,4.775843600000000307e-03
3.910000000000000000e+02,4.775843600000000307e-03
3.920000000000000000e+02,4.775843600000000307e-03
3.930000000000000000e+02,4.775843600000000307e-03
3.940000000000000000e+02,4.775843600000000307e-03
3.950000000000000000e+02,4.775843600000000307e-03
3.960000000000000000e+02,4.775843600000000307e-03
3.970000000000000000e+02,4.775843600000000307e-03
3.980000000000000000e+02,4.775843600000000307e-03
3.990000000000000000e+02,4.775843600000000307e-03
