# Time [s], Thickness [m]
1.000000000000000000e+00,8.000000400000000303e-03
2.000000000000000000e+00,8.000000400000000303e-03
3.000000000000000000e+00,8.000000400000000303e-03
4.000000000000000000e+00,8.000000400000000303e-03
5.000000000000000000e+00,7.999999400000000829e-03
6.000000000000000000e+00,7.999997599999999348e-03
7.000000000000000000e+00,7.999986400000000733e-03
8.000000000000000000e+00,7.999944499999999889e-03
9.000000000000000000e+00,7.999812300000000778e-03
1.000000000000000000e+01,7.999453700000000791e-03
1.100000000000000000e+01,7.998607099999999193e-03
1.200000000000000000e+01,7.996871100000000482e-03
1.300000000000000000e+01,7.993796799999999467e-03
1.400000000000000000e+01,7.989122499999999280e-03
1.500000000000000000e+01,7.982746699999999571e-03
1.600000000000000000e+01,7.975152699999999914e-03
1.700000000000000000e+01,7.966612499999999389e-03
1.800000000000000000e+01,7.956424700000000808e-03
1.900000000000000000e+01,7.946113100000000776e-03
2.000000000000000000e+01,7.935137499999999830e-03
2.100000000000000000e+01,7.922213500000000602e-03
2.200000000000000000e+01,7.910080300000000425e-03
2.300000000000000000e+01,7.897107900000000305e-03
2.400000000000000000e+01,7.882068900000000627e-03
2.500000000000000000e+01,7.868083200000000610e-03
2.600000000000000000e+01,7.853299399999999486e-03
2.700000000000000000e+01,7.836270100000000682e-03
2.800000000000000000e+01,7.820065100000000644e-03
2.900000000000000000e+01,7.803409800000000139e-03
3.000000000000000000e+01,7.784830900000000269e-03
3.100000000000000000e+01,7.766871699999999649e-03
3.200000000000000000e+01,7.748915799999999722e-03
3.300000000000000000e+01,7.730098399999999620e-03
3.400000000000000000e+01,7.711495700000000307e-03
3.500000000000000000e+01,7.678159000000000373e-03
3.600000000000000000e+01,7.663526999999999839e-03
3.700000000000000000e+01,7.648290099999999897e-03
3.800000000000000000e+01,7.629709800000000416e-03
3.900000000000000000e+01,7.611982100000000244e-03
4.000000000000000000e+01,7.592882500000000187e-03
4.100000000000000000e+01,7.574701700000000329e-03
4.200000000000000000e+01,7.555998399999999671e-03
4.300000000000000000e+01,7.537300200000000318e-03
4.400000000000000000e+01,7.518692900000000304e-03
4.500000000000000000e+01,7.499871299999999637e-03
4.600000000000000000e+01,7.481306800000000340e-03
4.700000000000000000e+01,7.462684500000000415e-03
4.800000000000000000e+01,7.444335100000000309e-03
4.900000000000000000e+01,7.425950399999999875e-03
5.000000000000000000e+01,7.407689000000000287e-03
5.100000000000000000e+01,7.389417399999999823e-03
5.200000000000000000e+01,7.371136500000000091e-03
5.300000000000000000e+01,7.352916499999999876e-03
5.400000000000000000e+01,7.334743200000000407e-03
5.500000000000000000e+01,7.316702999999999922e-03
5.600000000000000000e+01,7.296588300000000221e-03
5.700000000000000000e+01,7.278296200000000139e-03
5.800000000000000000e+01,7.260234600000000163e-03
5.900000000000000000e+01,7.242509599999999610e-03
6.000000000000000000e+01,7.224816400000000360e-03
6.100000000000000000e+01,7.207234399999999999e-03
6.200000000000000000e+01,7.189679000000000035e-03
6.300000000000000000e+01,7.172236700000000041e-03
6.400000000000000000e+01,7.154861900000000080e-03
6.500000000000000000e+01,7.137597499999999602e-03
6.600000000000000000e+01,7.120400199999999888e-03
6.700000000000000000e+01,7.103265299999999768e-03
6.800000000000000000e+01,7.086163900000000231e-03
6.900000000000000000e+01,7.069090400000000232e-03
7.000000000000000000e+01,7.052044799999999773e-03
7.100000000000000000e+01,7.035040299999999885e-03
7.200000000000000000e+01,7.018097699999999856e-03
7.300000000000000000e+01,7.001223499999999732e-03
7.400000000000000000e+01,6.984421999999999679e-03
7.500000000000000000e+01,6.967681499999999611e-03
7.600000000000000000e+01,6.950994000000000270e-03
7.700000000000000000e+01,6.934339200000000369e-03
7.800000000000000000e+01,6.915949799999999634e-03
7.900000000000000000e+01,6.899067200000000115e-03
8.000000000000000000e+01,6.882341999999999627e-03
8.100000000000000000e+01,6.865769199999999933e-03
8.200000000000000000e+01,6.849285699999999900e-03
8.300000000000000000e+01,6.832877600000000426e-03
8.400000000000000000e+01,6.816522200000000274e-03
8.500000000000000000e+01,6.800204500000000402e-03
8.600000000000000000e+01,6.783904000000000323e-03
8.700000000000000000e+01,6.767614299999999590e-03
8.800000000000000000e+01,6.751330600000000036e-03
8.900000000000000000e+01,6.735056199999999750e-03
9.000000000000000000e+01,6.718794800000000428e-03
9.100000000000000000e+01,6.702552100000000110e-03
9.200000000000000000e+01,6.686330800000000150e-03
9.300000000000000000e+01,6.670126200000000248e-03
9.400000000000000000e+01,6.653936099999999652e-03
9.500000000000000000e+01,6.637749299999999748e-03
9.600000000000000000e+01,6.621559600000000156e-03
9.700000000000000000e+01,6.605359699999999688e-03
9.800000000000000000e+01,6.589148700000000206e-03
9.900000000000000000e+01,6.572924100000000422e-03
1.000000000000000000e+02,6.556692999999999723e-03
1.010000000000000000e+02,6.538959700000000243e-03
1.020000000000000000e+02,6.522374200000000122e-03
1.030000000000000000e+02,6.505947599999999977e-03
1.040000000000000000e+02,6.489605600000000057e-03
1.050000000000000000e+02,6.473287500000000048e-03
1.060000000000000000e+02,6.456963700000000264e-03
1.070000000000000000e+02,6.440619899999999731e-03
1.080000000000000000e+02,6.424250999999999746e-03
1.090000000000000000e+02,6.407849499999999920e-03
1.100000000000000000e+02,6.391415800000000390e-03
1.110000000000000000e+02,6.374945899999999790e-03
1.120000000000000000e+02,6.358436299999999965e-03
1.130000000000000000e+02,6.341881100000000201e-03
1.140000000000000000e+02,6.325272800000000112e-03
1.150000000000000000e+02,6.308607299999999599e-03
1.160000000000000000e+02,6.291876099999999666e-03
1.170000000000000000e+02,6.275074599999999614e-03
1.180000000000000000e+02,6.258201300000000231e-03
1.190000000000000000e+02,6.241252200000000153e-03
1.200000000000000000e+02,6.224226200000000306e-03
1.210000000000000000e+02,6.207120099999999599e-03
1.220000000000000000e+02,6.189929299999999933e-03
1.230000000000000000e+02,6.172645800000000314e-03
1.240000000000000000e+02,6.155265499999999779e-03
1.250000000000000000e+02,6.136558900000000163e-03
1.260000000000000000e+02,6.118594699999999574e-03
1.270000000000000000e+02,6.100710900000000381e-03
1.280000000000000000e+02,6.082797000000000030e-03
1.290000000000000000e+02,6.064814499999999706e-03
1.300000000000000000e+02,6.046738500000000023e-03
1.310000000000000000e+02,6.028559999999999648e-03
1.320000000000000000e+02,6.010267900000000434e-03
1.330000000000000000e+02,5.991859799999999826e-03
1.340000000000000000e+02,5.973332100000000068e-03
1.350000000000000000e+02,5.954689299999999658e-03
1.360000000000000000e+02,5.935931999999999667e-03
1.370000000000000000e+02,5.917065800000000271e-03
1.380000000000000000e+02,5.898095199999999969e-03
1.390000000000000000e+02,5.879030599999999704e-03
1.400000000000000000e+02,5.859880199999999671e-03
1.410000000000000000e+02,5.840652600000000201e-03
1.420000000000000000e+02,5.821358399999999704e-03
1.430000000000000000e+02,5.802008299999999660e-03
1.440000000000000000e+02,5.782614000000000157e-03
1.450000000000000000e+02,5.762003800000000189e-03
1.460000000000000000e+02,5.742125199999999902e-03
1.470000000000000000e+02,5.722433300000000396e-03
1.480000000000000000e+02,5.702834099999999976e-03
1.490000000000000000e+02,5.683294000000000193e-03
1.500000000000000000e+02,5.663799100000000211e-03
1.510000000000000000e+02,5.644346599999999943e-03
1.520000000000000000e+02,5.624936399999999788e-03
1.530000000000000000e+02,5.605571900000000038e-03
1.540000000000000000e+02,5.586256700000000186e-03
1.550000000000000000e+02,5.566995100000000397e-03
1.560000000000000000e+02,5.547790799999999765e-03
1.570000000000000000e+02,5.528645599999999771e-03
1.580000000000000000e+02,5.509563700000000112e-03
1.590000000000000000e+02,5.490547999999999609e-03
1.600000000000000000e+02,5.471601199999999617e-03
1.610000000000000000e+02,5.452725599999999617e-03
1.620000000000000000e+02,5.433921199999999611e-03
1.630000000000000000e+02,5.415190900000000154e-03
1.640000000000000000e+02,5.396537899999999735e-03
1.650000000000000000e+02,5.377017399999999697e-03
1.660000000000000000e+02,5.358114800000000032e-03
1.670000000000000000e+02,5.339475300000000313e-03
1.680000000000000000e+02,5.321009600000000013e-03
1.690000000000000000e+02,5.302686200000000100e-03
1.700000000000000000e+02,5.284489100000000321e-03
1.710000000000000000e+02,5.266408900000000073e-03
1.720000000000000000e+02,5.248443200000000274e-03
1.730000000000000000e+02,5.230593500000000132e-03
1.740000000000000000e+02,5.212860599999999921e-03
1.750000000000000000e+02,5.195249300000000410e-03
1.760000000000000000e+02,5.177766099999999913e-03
1.770000000000000000e+02,5.160416900000000008e-03
1.780000000000000000e+02,5.143209800000000421e-03
1.790000000000000000e+02,5.126154499999999690e-03
1.800000000000000000e+02,5.109261300000000026e-03
1.810000000000000000e+02,5.092543500000000327e-03
1.820000000000000000e+02,5.076014900000000094e-03
1.830000000000000000e+02,5.059692999999999656e-03
1.840000000000000000e+02,5.043596000000000017e-03
1.850000000000000000e+02,5.027745900000000004e-03
1.860000000000000000e+02,5.012165800000000122e-03
1.870000000000000000e+02,4.996445999999999873e-03
1.880000000000000000e+02,4.981299399999999933e-03
1.890000000000000000e+02,4.966639000000000123e-03
1.900000000000000000e+02,4.952434500000000087e-03
1.910000000000000000e+02,4.938704399999999627e-03
1.920000000000000000e+02,4.925481500000000387e-03
1.930000000000000000e+02,4.912807600000000142e-03
1.940000000000000000e+02,4.900730199999999911e-03
1.950000000000000000e+02,4.889295400000000236e-03
1.960000000000000000e+02,4.878550300000000263e-03
1.970000000000000000e+02,4.868534899999999756e-03
1.980000000000000000e+02,4.859283600000000036e-03
1.990000000000000000e+02,4.850817799999999728e-03
2.000000000000000000e+02,4.843144199999999816e-03
2.010000000000000000e+02,4.836254800000000173e-03
2.020000000000000000e+02,4.830123399999999671e-03
2.030000000000000000e+02,4.824710500000000020e-03
2.040000000000000000e+02,4.819965499999999577e-03
2.050000000000000000e+02,4.815828099999999896e-03
2.060000000000000000e+02,4.812235899999999650e-03
2.070000000000000000e+02,4.809125800000000305e-03
2.080000000000000000e+02,4.806436600000000073e-03
2.090000000000000000e+02,4.804112499999999876e-03
2.100000000000000000e+02,4.802102699999999738e-03
2.110000000000000000e+02,4.800362499999999595e-03
2.120000000000000000e+02,4.798851899999999684e-03
2.130000000000000000e+02,4.797538700000000302e-03
2.140000000000000000e+02,4.796392699999999822e-03
2.150000000000000000e+02,4.795390200000000137e-03
2.160000000000000000e+02,4.794510499999999828e-03
2.170000000000000000e+02,4.793736199999999899e-03
2.180000000000000000e+02,4.793052100000000371e-03
2.190000000000000000e+02,4.792446300000000221e-03
2.200000000000000000e+02,4.791907500000000368e-03
2.210000000000000000e+02,4.791427400000000149e-03
2.220000000000000000e+02,4.790998099999999905e-03
2.230000000000000000e+02,4.790612999999999989e-03
2.240000000000000000e+02,4.790266500000000226e-03
2.250000000000000000e+02,4.789954499999999650e-03
2.260000000000000000e+02,4.789672299999999695e-03
2.270000000000000000e+02,4.789416700000000138e-03
2.280000000000000000e+02,4.789184299999999818e-03
2.290000000000000000e+02,4.788972899999999720e-03
2.300000000000000000e+02,4.788779699999999757e-03
2.310000000000000000e+02,4.788603599999999988e-03
2.320000000000000000e+02,4.788441600000000256e-03
2.330000000000000000e+02,4.788293499999999626e-03
2.340000000000000000e+02,4.788157099999999951e-03
2.350000000000000000e+02,4.788031300000000420e-03
2.360000000000000000e+02,4.787915400000000363e-03
2.370000000000000000e+02,4.787808299999999836e-03
2.380000000000000000e+02,4.787709099999999836e-03
2.390000000000000000e+02,4.787616899999999620e-03
2.400000000000000000e+02,4.787531700000000057e-03
2.410000000000000000e+02,4.787452099999999801e-03
2.420000000000000000e+02,4.787378000000000119e-03
2.430000000000000000e+02,4.787309099999999609e-03
2.440000000000000000e+02,4.787244799999999800e-03
2.450000000000000000e+02,4.787184800000000157e-03
2.460000000000000000e+02,4.787128899999999743e-03
2.470000000000000000e+02,4.787075800000000284e-03
2.480000000000000000e+02,4.787026899999999655e-03
2.490000000000000000e+02,4.786980300000000244e-03
2.500000000000000000e+02,4.786936999999999789e-03
2.510000000000000000e+02,4.786896100000000154e-03
2.520000000000000000e+02,4.786857400000000401e-03
2.530000000000000000e+02,4.786821099999999732e-03
2.540000000000000000e+02,4.786787100000000281e-03
2.550000000000000000e+02,4.786755000000000176e-03
2.560000000000000000e+02,4.786724200000000082e-03
2.570000000000000000e+02,4.786695399999999802e-03
2.580000000000000000e+02,4.786668299999999668e-03
2.590000000000000000e+02,4.786642300000000343e-03
2.600000000000000000e+02,4.786618099999999897e-03
2.610000000000000000e+02,4.786594800000000191e-03
2.620000000000000000e+02,4.786572900000000096e-03
2.630000000000000000e+02,4.786551899999999873e-03
2.640000000000000000e+02,4.786532399999999729e-03
2.650000000000000000e+02,4.786513299999999721e-03
2.660000000000000000e+02,4.786495600000000190e-03
2.670000000000000000e+02,4.786478400000000397e-03
2.680000000000000000e+02,4.786462099999999609e-03
2.690000000000000000e+02,4.786446700000000429e-03
2.700000000000000000e+02,4.786431800000000118e-03
2.710000000000000000e+02,4.786417799999999681e-03
2.720000000000000000e+02,4.786404299999999848e-03
2.730000000000000000e+02,4.786391299999999752e-03
2.740000000000000000e+02,4.786379200000000396e-03
2.750000000000000000e+02,4.786367500000000309e-03
2.760000000000000000e+02,4.786355899999999823e-03
2.770000000000000000e+02,4.786345200000000077e-03
2.780000000000000000e+02,4.786334899999999601e-03
2.790000000000000000e+02,4.786325200000000196e-03
2.800000000000000000e+02,4.786315799999999593e-03
2.810000000000000000e+02,4.786306500000000325e-03
2.820000000000000000e+02,4.786298100000000062e-03
2.830000000000000000e+02,4.786289800000000268e-03
2.840000000000000000e+02,4.786281400000000005e-03
2.850000000000000000e+02,4.786273899999999616e-03
2.860000000000000000e+02,4.786266499999999695e-03
2.870000000000000000e+02,4.786259499999999910e-03
2.880000000000000000e+02,4.786252500000000125e-03
2.890000000000000000e+02,4.786246000000000077e-03
2.900000000000000000e+02,4.786239500000000029e-03
2.910000000000000000e+02,4.786233400000000117e-03
2.920000000000000000e+02,4.786227399999999806e-03
2.930000000000000000e+02,4.786221799999999631e-03
2.940000000000000000e+02,4.786216200000000323e-03
2.950000000000000000e+02,4.786211099999999885e-03
2.960000000000000000e+02,4.786205899999999847e-03
2.970000000000000000e+02,4.786201300000000013e-03
2.980000000000000000e+02,4.786196199999999575e-03
2.990000000000000000e+02,4.786191500000000140e-03
3.000000000000000000e+02,4.786187299999999575e-03
3.010000000000000000e+02,4.786183099999999878e-03
3.020000000000000000e+02,4.786178900000000180e-03
3.030000000000000000e+02,4.786174699999999615e-03
3.040000000000000000e+02,4.786170999999999655e-03
3.050000000000000000e+02,4.786167299999999694e-03
3.060000000000000000e+02,4.786163599999999733e-03
3.070000000000000000e+02,4.786160299999999909e-03
3.080000000000000000e+02,4.786156599999999949e-03
3.090000000000000000e+02,4.786153300000000124e-03
3.100000000000000000e+02,4.786150099999999900e-03
3.110000000000000000e+02,4.786147299999999813e-03
3.120000000000000000e+02,4.786143999999999989e-03
3.130000000000000000e+02,4.786141199999999901e-03
3.140000000000000000e+02,4.786138399999999814e-03
3.150000000000000000e+02,4.786135599999999726e-03
3.160000000000000000e+02,4.786132799999999639e-03
3.170000000000000000e+02,4.786130500000000156e-03
3.180000000000000000e+02,4.786127700000000068e-03
3.190000000000000000e+02,4.786125399999999717e-03
3.200000000000000000e+02,4.786123100000000234e-03
3.210000000000000000e+02,4.786120700000000283e-03
3.220000000000000000e+02,4.786118399999999933e-03
3.230000000000000000e+02,4.786116499999999718e-03
3.240000000000000000e+02,4.786114200000000235e-03
3.250000000000000000e+02,4.786112300000000021e-03
3.260000000000000000e+02,4.786109999999999670e-03
3.270000000000000000e+02,4.786108199999999924e-03
3.280000000000000000e+02,4.786106299999999709e-03
3.290000000000000000e+02,4.786104400000000363e-03
3.300000000000000000e+02,4.786102599999999749e-03
3.310000000000000000e+02,4.786101200000000139e-03
3.320000000000000000e+02,4.786099299999999925e-03
3.330000000000000000e+02,4.786097399999999710e-03
3.340000000000000000e+02,4.786096000000000100e-03
3.350000000000000000e+02,4.786094200000000354e-03
3.360000000000000000e+02,4.786092799999999876e-03
3.370000000000000000e+02,4.786091400000000266e-03
3.380000000000000000e+02,4.786089999999999789e-03
3.390000000000000000e+02,4.786088600000000179e-03
3.400000000000000000e+02,4.786087199999999701e-03
3.410000000000000000e+02,4.786085800000000091e-03
3.420000000000000000e+02,4.786084399999999614e-03
3.430000000000000000e+02,4.786083000000000004e-03
3.440000000000000000e+02,4.786081600000000394e-03
3.450000000000000000e+02,4.786080699999999653e-03
3.460000000000000000e+02,4.786079300000000043e-03
3.470000000000000000e+02,4.786078400000000170e-03
3.480000000000000000e+02,4.786076999999999693e-03
3.490000000000000000e+02,4.786076000000000219e-03
3.500000000000000000e+02,4.786074599999999742e-03
3.510000000000000000e+02,4.786073699999999868e-03
3.520000000000000000e+02,4.786072799999999995e-03
3.530000000000000000e+02,4.786071400000000385e-03
3.540000000000000000e+02,4.786070400000000044e-03
3.550000000000000000e+02,4.786069500000000171e-03
3.560000000000000000e+02,4.786068600000000298e-03
3.570000000000000000e+02,4.786067599999999957e-03
3.580000000000000000e+02,4.786066700000000083e-03
3.590000000000000000e+02,4.786065800000000210e-03
3.600000000000000000e+02,4.786064799999999869e-03
3.610000000000000000e+02,4.786063899999999996e-03
3.620000000000000000e+02,4.786063499999999860e-03
3.630000000000000000e+02,4.786062500000000386e-03
3.640000000000000000e+02,4.786061599999999645e-03
3.650000000000000000e+02,4.786060699999999772e-03
3.660000000000000000e+02,4.786060200000000035e-03
3.670000000000000000e+02,4.786059300000000162e-03
3.680000000000000000e+02,4.786058299999999821e-03
3.690000000000000000e+02,4.786057899999999685e-03
3.700000000000000000e+02,4.786056900000000211e-03
3.710000000000000000e+02,4.786056500000000075e-03
3.720000000000000000e+02,4.786055499999999734e-03
3.730000000000000000e+02,4.786055099999999597e-03
3.740000000000000000e+02,4.786054100000000124e-03
3.750000000000000000e+02,4.786053699999999987e-03
3.760000000000000000e+02,4.786053200000000250e-03
3.770000000000000000e+02,4.786052300000000377e-03
3.780000000000000000e+02,4.786051799999999773e-03
3.790000000000000000e+02,4.786051300000000036e-03
3.800000000000000000e+02,4.786050400000000163e-03
3.810000000000000000e+02,4.786049900000000426e-03
3.820000000000000000e+02,4.786049500000000290e-03
3.830000000000000000e+02,4.786048999999999685e-03
3.840000000000000000e+02,4.786048099999999812e-03
3.850000000000000000e+02,4.786047600000000075e-03
3.860000000000000000e+02,4.786047199999999939e-03
3.870000000000000000e+02,4.786046700000000202e-03
3.880000000000000000e+02,4.786046199999999598e-03
3.890000000000000000e+02,4.786045800000000329e-03
3.900000000000000000e+02,4.786045299999999725e-03
3.910000000000000000e+02,4.786044799999999988e-03
3.920000000000000000e+02,4.786044399999999852e-03
3.930000000000000000e+02,4.786043400000000378e-03
3.940000000000000000e+02,4.786043000000000242e-03
3.950000000000000000e+02,4.786043000000000242e-03
3.960000000000000000e+02,4.786042499999999637e-03
3.970000000000000000e+02,4.786041999999999901e-03
3.980000000000000000e+02,4.786041599999999764e-03
3.990000000000000000e+02,4.786041100000000027e-03
