# Time [s], Thickness [m]
1.000000000000000000e+00,8.000000400000000303e-03
2.000000000000000000e+00,8.000000400000000303e-03
3.000000000000000000e+00,8.000000400000000303e-03
4.000000000000000000e+00,8.000000400000000303e-03
5.000000000000000000e+00,8.000000400000000303e-03
6.000000000000000000e+00,8.000000400000000303e-03
7.000000000000000000e+00,8.000000400000000303e-03
8.000000000000000000e+00,8.000000400000000303e-03
9.000000000000000000e+00,7.999999400000000829e-03
1.000000000000000000e+01,7.999999400000000829e-03
1.100000000000000000e+01,7.999999400000000829e-03
1.200000000000000000e+01,7.999997599999999348e-03
1.300000000000000000e+01,7.999993900000000255e-03
1.400000000000000000e+01,7.999987300000000606e-03
1.500000000000000000e+01,7.999972399999999428e-03
1.600000000000000000e+01,7.999943600000000016e-03
1.700000000000000000e+01,7.999889600000000683e-03
1.800000000000000000e+01,7.999797399999999600e-03
1.900000000000000000e+01,7.999645499999999410e-03
2.000000000000000000e+01,7.999406199999999773e-03
2.100000000000000000e+01,7.999046699999999913e-03
2.200000000000000000e+01,7.998524200000000847e-03
2.300000000000000000e+01,7.997789400000000076e-03
2.400000000000000000e+01,7.996786400000000655e-03
2.500000000000000000e+01,7.995460200000000309e-03
2.600000000000000000e+01,7.993754000000000484e-03
2.700000000000000000e+01,7.991616599999999335e-03
2.800000000000000000e+01,7.989012599999999534e-03
2.900000000000000000e+01,7.985918800000000109e-03
3.000000000000000000e+01,7.982316399999999854e-03
3.100000000000000000e+01,7.977917799999999574e-03
3.200000000000000000e+01,7.973397199999999324e-03
3.300000000000000000e+01,7.968354999999999883e-03
3.400000000000000000e+01,7.962908600000000517e-03
3.500000000000000000e+01,7.957054300000000399e-03
3.600000000000000000e+01,7.950803299999999879e-03
3.700000000000000000e+01,7.944218799999999692e-03
3.800000000000000000e+01,7.937336300000000233e-03
3.900000000000000000e+01,7.930133500000000404e-03
4.000000000000000000e+01,7.922697799999999652e-03
4.100000000000000000e+01,7.915048900000000789e-03
4.200000000000000000e+01,7.907150300000000478e-03
4.300000000000000000e+01,7.899096200000000484e-03
4.400000000000000000e+01,7.890898699999999294e-03
4.500000000000000000e+01,7.882502899999999438e-03
4.600000000000000000e+01,7.874010100000000331e-03
4.700000000000000000e+01,7.865421500000000649e-03
4.800000000000000000e+01,7.856673600000000854e-03
4.900000000000000000e+01,7.847863199999999262e-03
5.000000000000000000e+01,7.838985899999999576e-03
5.100000000000000000e+01,7.829975299999999971e-03
5.200000000000000000e+01,7.820917300000000683e-03
5.300000000000000000e+01,7.811807599999999810e-03
5.400000000000000000e+01,7.802579999999999932e-03
5.500000000000000000e+01,7.793305000000000371e-03
5.600000000000000000e+01,7.783984300000000404e-03
5.700000000000000000e+01,7.774559799999999736e-03
5.800000000000000000e+01,7.765084999999999696e-03
5.900000000000000000e+01,7.755569599999999689e-03
6.000000000000000000e+01,7.745967700000000108e-03
6.100000000000000000e+01,7.736319699999999987e-03
6.200000000000000000e+01,7.726641400000000375e-03
6.300000000000000000e+01,7.716898800000000086e-03
6.400000000000000000e+01,7.707123199999999820e-03
6.500000000000000000e+01,7.697328899999999682e-03
6.600000000000000000e+01,7.687494199999999646e-03
6.700000000000000000e+01,7.677638399999999787e-03
6.800000000000000000e+01,7.667775299999999607e-03
6.900000000000000000e+01,7.657886899999999906e-03
7.000000000000000000e+01,7.647984699999999837e-03
7.100000000000000000e+01,7.638077699999999866e-03
7.200000000000000000e+01,7.628152600000000227e-03
7.300000000000000000e+01,7.618213999999999889e-03
7.400000000000000000e+01,7.608267900000000028e-03
7.500000000000000000e+01,7.598303699999999633e-03
7.600000000000000000e+01,7.588324599999999795e-03
7.700000000000000000e+01,7.578333399999999734e-03
7.800000000000000000e+01,7.568325400000000015e-03
7.900000000000000000e+01,7.558302000000000249e-03
8.000000000000000000e+01,7.545001800000000237e-03
8.100000000000000000e+01,7.533019900000000046e-03
8.200000000000000000e+01,7.522312500000000353e-03
8.300000000000000000e+01,7.511613000000000318e-03
8.400000000000000000e+01,7.501171000000000054e-03
8.500000000000000000e+01,7.490734599999999965e-03
8.600000000000000000e+01,7.480373599999999568e-03
8.700000000000000000e+01,7.470020100000000426e-03
8.800000000000000000e+01,7.459685199999999822e-03
8.900000000000000000e+01,7.449354499999999782e-03
9.000000000000000000e+01,7.439024300000000346e-03
9.100000000000000000e+01,7.428687500000000395e-03
9.200000000000000000e+01,7.418342900000000385e-03
9.300000000000000000e+01,7.407987000000000426e-03
9.400000000000000000e+01,7.397616299999999756e-03
9.500000000000000000e+01,7.387231999999999653e-03
9.600000000000000000e+01,7.376831999999999834e-03
9.700000000000000000e+01,7.366415599999999626e-03
9.800000000000000000e+01,7.355985699999999586e-03
9.900000000000000000e+01,7.345540900000000102e-03
1.000000000000000000e+02,7.335082199999999782e-03
1.010000000000000000e+02,7.324610799999999901e-03
1.020000000000000000e+02,7.314127400000000265e-03
1.030000000000000000e+02,7.303630900000000065e-03
1.040000000000000000e+02,7.293122800000000246e-03
1.050000000000000000e+02,7.282601199999999726e-03
1.060000000000000000e+02,7.272066100000000241e-03
1.070000000000000000e+02,7.261516499999999714e-03
1.080000000000000000e+02,7.250949700000000261e-03
1.090000000000000000e+02,7.240365700000000147e-03
1.100000000000000000e+02,7.229762199999999889e-03
1.110000000000000000e+02,7.219138600000000149e-03
1.120000000000000000e+02,7.208493499999999582e-03
1.130000000000000000e+02,7.197826600000000255e-03
1.140000000000000000e+02,7.187136000000000219e-03
1.150000000000000000e+02,7.176422000000000009e-03
1.160000000000000000e+02,7.165684400000000426e-03
1.170000000000000000e+02,7.154922900000000065e-03
1.180000000000000000e+02,7.144137299999999725e-03
1.190000000000000000e+02,7.132243800000000189e-03
1.200000000000000000e+02,7.120693099999999588e-03
1.210000000000000000e+02,7.109336100000000422e-03
1.220000000000000000e+02,7.098099200000000143e-03
1.230000000000000000e+02,7.086936400000000413e-03
1.240000000000000000e+02,7.075813599999999579e-03
1.250000000000000000e+02,7.064708500000000009e-03
1.260000000000000000e+02,7.053604800000000050e-03
1.270000000000000000e+02,7.042492299999999691e-03
1.280000000000000000e+02,7.031360599999999725e-03
1.290000000000000000e+02,7.020204799999999780e-03
1.300000000000000000e+02,7.009020500000000091e-03
1.310000000000000000e+02,6.997803700000000161e-03
1.320000000000000000e+02,6.986552800000000313e-03
1.330000000000000000e+02,6.975265199999999659e-03
1.340000000000000000e+02,6.963940299999999729e-03
1.350000000000000000e+02,6.952576299999999911e-03
1.360000000000000000e+02,6.941171399999999589e-03
1.370000000000000000e+02,6.929726300000000304e-03
1.380000000000000000e+02,6.918238000000000165e-03
1.390000000000000000e+02,6.906706399999999572e-03
1.400000000000000000e+02,6.895129600000000046e-03
1.410000000000000000e+02,6.883507100000000115e-03
1.420000000000000000e+02,6.871836699999999895e-03
1.430000000000000000e+02,6.860117399999999914e-03
1.440000000000000000e+02,6.848347799999999694e-03
1.450000000000000000e+02,6.836526600000000092e-03
1.460000000000000000e+02,6.824652199999999697e-03
1.470000000000000000e+02,6.812724299999999705e-03
1.480000000000000000e+02,6.800740999999999904e-03
1.490000000000000000e+02,6.788701299999999952e-03
1.500000000000000000e+02,6.776604299999999977e-03
1.510000000000000000e+02,6.764448699999999967e-03
1.520000000000000000e+02,6.752234400000000324e-03
1.530000000000000000e+02,6.739958699999999692e-03
1.540000000000000000e+02,6.727620999999999601e-03
1.550000000000000000e+02,6.715219899999999575e-03
1.560000000000000000e+02,6.701899699999999682e-03
1.570000000000000000e+02,6.688812300000000245e-03
1.580000000000000000e+02,6.675817500000000293e-03
1.590000000000000000e+02,6.662850700000000348e-03
1.600000000000000000e+02,6.649886300000000354e-03
1.610000000000000000e+02,6.636900400000000401e-03
1.620000000000000000e+02,6.623881400000000003e-03
1.630000000000000000e+02,6.610816299999999930e-03
1.640000000000000000e+02,6.597698199999999999e-03
1.650000000000000000e+02,6.584519999999999956e-03
1.660000000000000000e+02,6.571276600000000231e-03
1.670000000000000000e+02,6.557964299999999996e-03
1.680000000000000000e+02,6.544578799999999953e-03
1.690000000000000000e+02,6.531117900000000219e-03
1.700000000000000000e+02,6.517579299999999576e-03
1.710000000000000000e+02,6.503961499999999681e-03
1.720000000000000000e+02,6.490263599999999793e-03
1.730000000000000000e+02,6.476484200000000302e-03
1.740000000000000000e+02,6.462622900000000205e-03
1.750000000000000000e+02,6.448679100000000164e-03
1.760000000000000000e+02,6.434653900000000121e-03
1.770000000000000000e+02,6.420547599999999744e-03
1.780000000000000000e+02,6.406360300000000368e-03
1.790000000000000000e+02,6.392093800000000006e-03
1.800000000000000000e+02,6.377748699999999729e-03
1.810000000000000000e+02,6.363327600000000424e-03
1.820000000000000000e+02,6.348832000000000433e-03
1.830000000000000000e+02,6.334264800000000313e-03
1.840000000000000000e+02,6.319628100000000345e-03
1.850000000000000000e+02,6.304924800000000218e-03
1.860000000000000000e+02,6.290157799999999619e-03
1.870000000000000000e+02,6.274637799999999849e-03
1.880000000000000000e+02,6.259276999999999723e-03
1.890000000000000000e+02,6.243981899999999884e-03
1.900000000000000000e+02,6.228712899999999837e-03
1.910000000000000000e+02,6.213454099999999800e-03
1.920000000000000000e+02,6.198194300000000288e-03
1.930000000000000000e+02,6.182928600000000066e-03
1.940000000000000000e+02,6.167653900000000244e-03
1.950000000000000000e+02,6.152369100000000014e-03
1.960000000000000000e+02,6.137073499999999571e-03
1.970000000000000000e+02,6.121769499999999732e-03
1.980000000000000000e+02,6.106457200000000099e-03
1.990000000000000000e+02,6.091138799999999687e-03
2.000000000000000000e+02,6.075816199999999577e-03
2.010000000000000000e+02,6.060492199999999857e-03
2.020000000000000000e+02,6.045169199999999611e-03
2.030000000000000000e+02,6.029849900000000193e-03
2.040000000000000000e+02,6.014536099999999615e-03
2.050000000000000000e+02,5.999230799999999766e-03
2.060000000000000000e+02,5.983937100000000404e-03
2.070000000000000000e+02,5.968657300000000145e-03
2.080000000000000000e+02,5.953393900000000273e-03
2.090000000000000000e+02,5.938148600000000069e-03
2.100000000000000000e+02,5.922924700000000223e-03
2.110000000000000000e+02,5.907723699999999946e-03
2.120000000000000000e+02,5.892548200000000125e-03
2.130000000000000000e+02,5.877399400000000301e-03
2.140000000000000000e+02,5.861736400000000340e-03
2.150000000000000000e+02,5.846253600000000245e-03
2.160000000000000000e+02,5.830890000000000031e-03
2.170000000000000000e+02,5.815617300000000024e-03
2.180000000000000000e+02,5.800422700000000195e-03
2.190000000000000000e+02,5.785297099999999609e-03
2.200000000000000000e+02,5.770233900000000353e-03
2.210000000000000000e+02,5.755229399999999863e-03
2.220000000000000000e+02,5.740280700000000187e-03
2.230000000000000000e+02,5.725385599999999707e-03
2.240000000000000000e+02,5.710543099999999817e-03
2.250000000000000000e+02,5.695751899999999639e-03
2.260000000000000000e+02,5.681010900000000099e-03
2.270000000000000000e+02,5.666319700000000195e-03
2.280000000000000000e+02,5.651678000000000257e-03
2.290000000000000000e+02,5.637085499999999749e-03
2.300000000000000000e+02,5.622541499999999734e-03
2.310000000000000000e+02,5.608046000000000211e-03
2.320000000000000000e+02,5.593599299999999983e-03
2.330000000000000000e+02,5.579200999999999779e-03
2.340000000000000000e+02,5.564851699999999804e-03
2.350000000000000000e+02,5.550550799999999854e-03
2.360000000000000000e+02,5.536298700000000066e-03
2.370000000000000000e+02,5.522095599999999639e-03
2.380000000000000000e+02,5.507942299999999715e-03
2.390000000000000000e+02,5.493837900000000420e-03
2.400000000000000000e+02,5.479783799999999629e-03
2.410000000000000000e+02,5.465779900000000344e-03
2.420000000000000000e+02,5.451826800000000167e-03
2.430000000000000000e+02,5.437499400000000288e-03
2.440000000000000000e+02,5.423327000000000356e-03
2.450000000000000000e+02,5.409271000000000218e-03
2.460000000000000000e+02,5.395312799999999603e-03
2.470000000000000000e+02,5.381442600000000374e-03
2.480000000000000000e+02,5.367653400000000144e-03
2.490000000000000000e+02,5.353940700000000413e-03
2.500000000000000000e+02,5.340302400000000033e-03
2.510000000000000000e+02,5.326735800000000250e-03
2.520000000000000000e+02,5.313239499999999720e-03
2.530000000000000000e+02,5.299813599999999778e-03
2.540000000000000000e+02,5.286456600000000346e-03
2.550000000000000000e+02,5.273167999999999953e-03
2.560000000000000000e+02,5.259948799999999806e-03
2.570000000000000000e+02,5.246799400000000044e-03
2.580000000000000000e+02,5.233720400000000002e-03
2.590000000000000000e+02,5.220712199999999817e-03
2.600000000000000000e+02,5.207776100000000366e-03
2.610000000000000000e+02,5.194913100000000256e-03
2.620000000000000000e+02,5.182125099999999700e-03
2.630000000000000000e+02,5.169413500000000043e-03
2.640000000000000000e+02,5.156780100000000165e-03
2.650000000000000000e+02,5.144226800000000280e-03
2.660000000000000000e+02,5.131755499999999734e-03
2.670000000000000000e+02,5.119369399999999619e-03
2.680000000000000000e+02,5.107069900000000412e-03
2.690000000000000000e+02,5.094860700000000339e-03
2.700000000000000000e+02,5.082744600000000355e-03
2.710000000000000000e+02,5.070724999999999885e-03
2.720000000000000000e+02,5.058805000000000419e-03
2.730000000000000000e+02,5.046988399999999785e-03
2.740000000000000000e+02,5.035279800000000416e-03
2.750000000000000000e+02,5.023396099999999885e-03
2.760000000000000000e+02,5.011696799999999785e-03
2.770000000000000000e+02,5.000165699999999797e-03
2.780000000000000000e+02,4.988796999999999676e-03
2.790000000000000000e+02,4.977588500000000409e-03
2.800000000000000000e+02,4.966541199999999733e-03
2.810000000000000000e+02,4.955657300000000133e-03
2.820000000000000000e+02,4.944940999999999573e-03
2.830000000000000000e+02,4.934398000000000430e-03
2.840000000000000000e+02,4.924034199999999944e-03
2.850000000000000000e+02,4.913858600000000319e-03
2.860000000000000000e+02,4.903878999999999877e-03
2.870000000000000000e+02,4.894105299999999825e-03
2.880000000000000000e+02,4.884547599999999705e-03
2.890000000000000000e+02,4.875217999999999739e-03
2.900000000000000000e+02,4.866127900000000346e-03
2.910000000000000000e+02,4.857290999999999692e-03
2.920000000000000000e+02,4.848721000000000281e-03
2.930000000000000000e+02,4.840431699999999879e-03
2.940000000000000000e+02,4.832439099999999606e-03
2.950000000000000000e+02,4.824758000000000172e-03
2.960000000000000000e+02,4.817404800000000230e-03
2.970000000000000000e+02,4.810394299999999623e-03
2.980000000000000000e+02,4.803742300000000270e-03
2.990000000000000000e+02,4.797463299999999743e-03
3.000000000000000000e+02,4.791569399999999999e-03
3.010000000000000000e+02,4.786072300000000258e-03
3.020000000000000000e+02,4.780979399999999574e-03
3.030000000000000000e+02,4.776295699999999651e-03
3.040000000000000000e+02,4.772021399999999691e-03
3.050000000000000000e+02,4.768152700000000133e-03
3.060000000000000000e+02,4.764680299999999973e-03
3.070000000000000000e+02,4.761590199999999641e-03
3.080000000000000000e+02,4.758863200000000397e-03
3.090000000000000000e+02,4.756476299999999602e-03
3.100000000000000000e+02,4.754403600000000132e-03
3.110000000000000000e+02,4.752615899999999838e-03
3.120000000000000000e+02,4.751083399999999832e-03
3.130000000000000000e+02,4.749777299999999834e-03
3.140000000000000000e+02,4.748668099999999760e-03
3.150000000000000000e+02,4.747729699999999817e-03
3.160000000000000000e+02,4.746937700000000357e-03
3.170000000000000000e+02,4.746269899999999882e-03
3.180000000000000000e+02,4.745706899999999583e-03
3.190000000000000000e+02,4.745232900000000142e-03
3.200000000000000000e+02,4.744832899999999916e-03
3.210000000000000000e+02,4.744494800000000415e-03
3.220000000000000000e+02,4.744208899999999632e-03
3.230000000000000000e+02,4.743966700000000307e-03
3.240000000000000000e+02,4.743760900000000384e-03
3.250000000000000000e+02,4.743585399999999952e-03
3.260000000000000000e+02,4.743435899999999712e-03
3.270000000000000000e+02,4.743307399999999695e-03
3.280000000000000000e+02,4.743197499999999948e-03
3.290000000000000000e+02,4.743102499999999645e-03
3.300000000000000000e+02,4.743020500000000306e-03
3.310000000000000000e+02,4.742949699999999581e-03
3.320000000000000000e+02,4.742888300000000328e-03
3.330000000000000000e+02,4.742834700000000264e-03
3.340000000000000000e+02,4.742788199999999586e-03
3.350000000000000000e+02,4.742747200000000350e-03
3.360000000000000000e+02,4.742711299999999817e-03
3.370000000000000000e+02,4.742679700000000317e-03
3.380000000000000000e+02,4.742652200000000047e-03
3.390000000000000000e+02,4.742627499999999864e-03
3.400000000000000000e+02,4.742605599999999769e-03
3.410000000000000000e+02,4.742586499999999761e-03
3.420000000000000000e+02,4.742569299999999967e-03
3.430000000000000000e+02,4.742554399999999656e-03
3.440000000000000000e+02,4.742540400000000086e-03
3.450000000000000000e+02,4.742528299999999863e-03
3.460000000000000000e+02,4.742517600000000118e-03
3.470000000000000000e+02,4.742507800000000245e-03
3.480000000000000000e+02,4.742498999999999847e-03
3.490000000000000000e+02,4.742491100000000188e-03
3.500000000000000000e+02,4.742483599999999799e-03
3.510000000000000000e+02,4.742477600000000355e-03
3.520000000000000000e+02,4.742471499999999576e-03
3.530000000000000000e+02,4.742466400000000006e-03
3.540000000000000000e+02,4.742461299999999567e-03
3.550000000000000000e+02,4.742457099999999870e-03
3.560000000000000000e+02,4.742452900000000172e-03
3.570000000000000000e+02,4.742449600000000348e-03
3.580000000000000000e+02,4.742445900000000387e-03
3.590000000000000000e+02,4.742443100000000300e-03
3.600000000000000000e+02,4.742440300000000213e-03
3.610000000000000000e+02,4.742437500000000125e-03
3.620000000000000000e+02,4.742435199999999774e-03
3.630000000000000000e+02,4.742433300000000428e-03
3.640000000000000000e+02,4.742431499999999814e-03
3.650000000000000000e+02,4.742429599999999600e-03
3.660000000000000000e+02,4.742427700000000253e-03
3.670000000000000000e+02,4.742426299999999775e-03
3.680000000000000000e+02,4.742424900000000165e-03
3.690000000000000000e+02,4.742423499999999688e-03
3.700000000000000000e+02,4.742422100000000078e-03
3.710000000000000000e+02,4.742421200000000205e-03
3.720000000000000000e+02,4.742420300000000331e-03
3.730000000000000000e+02,4.742418899999999854e-03
3.740000000000000000e+02,4.742417999999999981e-03
3.750000000000000000e+02,4.742417500000000244e-03
3.760000000000000000e+02,4.742416600000000371e-03
3.770000000000000000e+02,4.742415600000000030e-03
3.780000000000000000e+02,4.742415199999999893e-03
3.790000000000000000e+02,4.742414700000000156e-03
3.800000000000000000e+02,4.742413800000000283e-03
3.810000000000000000e+02,4.742413299999999679e-03
3.820000000000000000e+02,4.742412799999999942e-03
3.830000000000000000e+02,4.742412399999999806e-03
3.840000000000000000e+02,4.742411900000000069e-03
3.850000000000000000e+02,4.742411400000000332e-03
3.860000000000000000e+02,4.742411000000000196e-03
3.870000000000000000e+02,4.742410499999999592e-03
3.880000000000000000e+02,4.742409999999999855e-03
3.890000000000000000e+02,4.742409999999999855e-03
3.900000000000000000e+02,4.742409599999999718e-03
3.910000000000000000e+02,4.742409099999999982e-03
3.920000000000000000e+02,4.742409099999999982e-03
3.930000000000000000e+02,4.742408600000000245e-03
3.940000000000000000e+02,4.742408600000000245e-03
3.950000000000000000e+02,4.742408200000000108e-03
3.960000000000000000e+02,4.742408200000000108e-03
3.970000000000000000e+02,4.742407700000000371e-03
3.980000000000000000e+02,4.742407700000000371e-03
3.990000000000000000e+02,4.742407199999999767e-03
