# Time [s], Temperature [C]
1.000000000000000000e+00,2.500000000000000000e+01
2.000000000000000000e+00,2.500000000000000000e+01
3.000000000000000000e+00,2.500000000000000000e+01
4.000000000000000000e+00,2.500000000000000000e+01
5.000000000000000000e+00,2.500000599999999906e+01
6.000000000000000000e+00,2.500002900000000139e+01
7.000000000000000000e+00,2.500011599999999845e+01
8.000000000000000000e+00,2.500040800000000019e+01
9.000000000000000000e+00,2.500120700000000085e+01
1.000000000000000000e+01,2.500311500000000109e+01
1.100000000000000000e+01,2.500715100000000035e+01
1.200000000000000000e+01,2.501485600000000176e+01
1.300000000000000000e+01,2.502835100000000068e+01
1.400000000000000000e+01,2.505031200000000169e+01
1.500000000000000000e+01,2.508390599999999893e+01
1.600000000000000000e+01,2.513268100000000160e+01
1.700000000000000000e+01,2.520042600000000022e+01
1.800000000000000000e+01,2.529105600000000109e+01
1.900000000000000000e+01,2.540846600000000066e+01
2.000000000000000000e+01,2.555645799999999923e+01
2.100000000000000000e+01,2.573862499999999898e+01
2.200000000000000000e+01,2.595832100000000153e+01
2.300000000000000000e+01,2.621858999999999895e+01
2.400000000000000000e+01,2.652216100000000054e+01
2.500000000000000000e+01,2.687140700000000137e+01
2.600000000000000000e+01,2.726837000000000089e+01
2.700000000000000000e+01,2.771474800000000016e+01
2.800000000000000000e+01,2.821192599999999828e+01
2.900000000000000000e+01,2.876097899999999896e+01
3.000000000000000000e+01,2.936266499999999979e+01
3.100000000000000000e+01,3.001751700000000156e+01
3.200000000000000000e+01,3.072578199999999882e+01
3.300000000000000000e+01,3.148746300000000176e+01
3.400000000000000000e+01,3.230239100000000008e+01
3.500000000000000000e+01,3.321716700000000344e+01
3.600000000000000000e+01,3.415847000000000122e+01
3.700000000000000000e+01,3.514519500000000107e+01
3.800000000000000000e+01,3.618056500000000142e+01
3.900000000000000000e+01,3.726411800000000341e+01
4.000000000000000000e+01,3.839508800000000122e+01
4.100000000000000000e+01,3.957236499999999779e+01
4.200000000000000000e+01,4.079469699999999932e+01
4.300000000000000000e+01,4.206070299999999662e+01
4.400000000000000000e+01,4.336896899999999988e+01
4.500000000000000000e+01,4.471802499999999725e+01
4.600000000000000000e+01,4.610629300000000086e+01
4.700000000000000000e+01,4.753224199999999655e+01
4.800000000000000000e+01,4.899424700000000144e+01
4.900000000000000000e+01,5.049073400000000333e+01
5.000000000000000000e+01,5.202008800000000122e+01
5.100000000000000000e+01,5.358073000000000263e+01
5.200000000000000000e+01,5.517110799999999671e+01
5.300000000000000000e+01,5.678965399999999875e+01
5.400000000000000000e+01,5.843485299999999683e+01
5.500000000000000000e+01,6.010524399999999901e+01
5.600000000000000000e+01,6.179942700000000144e+01
5.700000000000000000e+01,6.351605599999999896e+01
5.800000000000000000e+01,6.525374600000000669e+01
5.900000000000000000e+01,6.701123800000000585e+01
6.000000000000000000e+01,6.878738400000000297e+01
6.100000000000000000e+01,7.058093999999999824e+01
6.200000000000000000e+01,7.239085400000000448e+01
6.300000000000000000e+01,7.421603399999999340e+01
6.400000000000000000e+01,7.605553399999999442e+01
6.500000000000000000e+01,7.790839400000000126e+01
6.600000000000000000e+01,7.977365899999999499e+01
6.700000000000000000e+01,8.165052799999999422e+01
6.800000000000000000e+01,8.353821600000000558e+01
6.900000000000000000e+01,8.543588300000000402e+01
7.000000000000000000e+01,8.734285699999999508e+01
7.100000000000000000e+01,8.925840800000000286e+01
7.200000000000000000e+01,9.118189999999999884e+01
7.300000000000000000e+01,9.311273199999999406e+01
7.400000000000000000e+01,9.505032300000000589e+01
7.500000000000000000e+01,9.699407999999999674e+01
7.600000000000000000e+01,9.894353499999999713e+01
7.700000000000000000e+01,1.008981899999999996e+02
7.800000000000000000e+01,1.028575500000000034e+02
7.900000000000000000e+01,1.048211600000000061e+02
8.000000000000000000e+01,1.067886100000000056e+02
8.100000000000000000e+01,1.087600000000000051e+02
8.200000000000000000e+01,1.107342500000000030e+02
8.300000000000000000e+01,1.127111400000000003e+02
8.400000000000000000e+01,1.146903599999999983e+02
8.500000000000000000e+01,1.166716100000000012e+02
8.600000000000000000e+01,1.186545799999999957e+02
8.700000000000000000e+01,1.206390999999999991e+02
8.800000000000000000e+01,1.226249799999999937e+02
8.900000000000000000e+01,1.246120999999999981e+02
9.000000000000000000e+01,1.266003299999999996e+02
9.100000000000000000e+01,1.285895500000000027e+02
9.200000000000000000e+01,1.305795899999999961e+02
9.300000000000000000e+01,1.325702699999999936e+02
9.400000000000000000e+01,1.345613400000000013e+02
9.500000000000000000e+01,1.365525800000000061e+02
9.600000000000000000e+01,1.385437599999999918e+02
9.700000000000000000e+01,1.405346199999999897e+02
9.800000000000000000e+01,1.425249200000000087e+02
9.900000000000000000e+01,1.445143899999999917e+02
1.000000000000000000e+02,1.465028100000000109e+02
1.010000000000000000e+02,1.484899299999999869e+02
1.020000000000000000e+02,1.504755199999999888e+02
1.030000000000000000e+02,1.524593700000000069e+02
1.040000000000000000e+02,1.544411900000000060e+02
1.050000000000000000e+02,1.564207900000000109e+02
1.060000000000000000e+02,1.583979899999999930e+02
1.070000000000000000e+02,1.603725399999999865e+02
1.080000000000000000e+02,1.623442200000000071e+02
1.090000000000000000e+02,1.643128700000000038e+02
1.100000000000000000e+02,1.662782599999999888e+02
1.110000000000000000e+02,1.682401700000000062e+02
1.120000000000000000e+02,1.701984600000000114e+02
1.130000000000000000e+02,1.721529099999999914e+02
1.140000000000000000e+02,1.741032899999999870e+02
1.150000000000000000e+02,1.760494199999999978e+02
1.160000000000000000e+02,1.779911700000000110e+02
1.170000000000000000e+02,1.799282800000000009e+02
1.180000000000000000e+02,1.818605799999999988e+02
1.190000000000000000e+02,1.837878900000000044e+02
1.200000000000000000e+02,1.857100100000000111e+02
1.210000000000000000e+02,1.876278100000000109e+02
1.220000000000000000e+02,1.895394900000000007e+02
1.230000000000000000e+02,1.914452799999999968e+02
1.240000000000000000e+02,1.933452299999999866e+02
1.250000000000000000e+02,1.952392700000000048e+02
1.260000000000000000e+02,1.971274300000000039e+02
1.270000000000000000e+02,1.990096000000000060e+02
1.280000000000000000e+02,2.008857700000000079e+02
1.290000000000000000e+02,2.027557999999999936e+02
1.300000000000000000e+02,2.046194199999999910e+02
1.310000000000000000e+02,2.064763800000000060e+02
1.320000000000000000e+02,2.083263699999999972e+02
1.330000000000000000e+02,2.101690700000000049e+02
1.340000000000000000e+02,2.120041500000000099e+02
1.350000000000000000e+02,2.138312999999999988e+02
1.360000000000000000e+02,2.156502399999999966e+02
1.370000000000000000e+02,2.174605699999999899e+02
1.380000000000000000e+02,2.192620499999999879e+02
1.390000000000000000e+02,2.210543700000000058e+02
1.400000000000000000e+02,2.228372300000000052e+02
1.410000000000000000e+02,2.246102899999999920e+02
1.420000000000000000e+02,2.263733100000000036e+02
1.430000000000000000e+02,2.281258699999999919e+02
1.440000000000000000e+02,2.298677399999999977e+02
1.450000000000000000e+02,2.315986000000000047e+02
1.460000000000000000e+02,2.333180199999999900e+02
1.470000000000000000e+02,2.350257300000000100e+02
1.480000000000000000e+02,2.367213700000000074e+02
1.490000000000000000e+02,2.384045700000000068e+02
1.500000000000000000e+02,2.400749099999999885e+02
1.510000000000000000e+02,2.417319599999999866e+02
1.520000000000000000e+02,2.433753700000000038e+02
1.530000000000000000e+02,2.450046399999999949e+02
1.540000000000000000e+02,2.466193700000000035e+02
1.550000000000000000e+02,2.482190400000000068e+02
1.560000000000000000e+02,2.498031799999999976e+02
1.570000000000000000e+02,2.513713099999999940e+02
1.580000000000000000e+02,2.529240599999999972e+02
1.590000000000000000e+02,2.544595500000000072e+02
1.600000000000000000e+02,2.559779100000000085e+02
1.610000000000000000e+02,2.574791599999999789e+02
1.620000000000000000e+02,2.589629499999999780e+02
1.630000000000000000e+02,2.604288599999999860e+02
1.640000000000000000e+02,2.618761000000000081e+02
1.650000000000000000e+02,2.633036500000000046e+02
1.660000000000000000e+02,2.647105399999999804e+02
1.670000000000000000e+02,2.660958899999999971e+02
1.680000000000000000e+02,2.674587700000000154e+02
1.690000000000000000e+02,2.687984299999999962e+02
1.700000000000000000e+02,2.701141099999999824e+02
1.710000000000000000e+02,2.714051499999999919e+02
1.720000000000000000e+02,2.726709000000000174e+02
1.730000000000000000e+02,2.739107999999999947e+02
1.740000000000000000e+02,2.751243299999999863e+02
1.750000000000000000e+02,2.763110699999999724e+02
1.760000000000000000e+02,2.774705500000000029e+02
1.770000000000000000e+02,2.786024800000000141e+02
1.780000000000000000e+02,2.797065400000000182e+02
1.790000000000000000e+02,2.807825000000000273e+02
1.800000000000000000e+02,2.818302600000000098e+02
1.810000000000000000e+02,2.828497300000000223e+02
1.820000000000000000e+02,2.838408800000000269e+02
1.830000000000000000e+02,2.848038599999999860e+02
1.840000000000000000e+02,2.857388599999999883e+02
1.850000000000000000e+02,2.866460599999999772e+02
1.860000000000000000e+02,2.875258499999999913e+02
1.870000000000000000e+02,2.883786299999999869e+02
1.880000000000000000e+02,2.892048599999999965e+02
1.890000000000000000e+02,2.900051900000000273e+02
1.900000000000000000e+02,2.907943099999999959e+02
1.910000000000000000e+02,2.915551800000000071e+02
1.920000000000000000e+02,2.922932700000000068e+02
1.930000000000000000e+02,2.930100100000000225e+02
1.940000000000000000e+02,2.937051999999999907e+02
1.950000000000000000e+02,2.943789400000000001e+02
1.960000000000000000e+02,2.950315600000000131e+02
1.970000000000000000e+02,2.956638199999999870e+02
1.980000000000000000e+02,2.962767000000000053e+02
1.990000000000000000e+02,2.968712499999999750e+02
2.000000000000000000e+02,2.974486699999999928e+02
2.010000000000000000e+02,2.980101000000000226e+02
2.020000000000000000e+02,2.985566999999999780e+02
2.030000000000000000e+02,2.990896000000000186e+02
2.040000000000000000e+02,2.996098900000000071e+02
2.050000000000000000e+02,3.001186799999999835e+02
2.060000000000000000e+02,3.006169699999999807e+02
2.070000000000000000e+02,3.011058300000000258e+02
2.080000000000000000e+02,3.015862099999999941e+02
2.090000000000000000e+02,3.020590199999999754e+02
2.100000000000000000e+02,3.025251200000000154e+02
2.110000000000000000e+02,3.029853800000000206e+02
2.120000000000000000e+02,3.034406099999999924e+02
2.130000000000000000e+02,3.038915999999999826e+02
2.140000000000000000e+02,3.043389300000000048e+02
2.150000000000000000e+02,3.047833899999999971e+02
2.160000000000000000e+02,3.052255900000000111e+02
2.170000000000000000e+02,3.056661700000000224e+02
2.180000000000000000e+02,3.061746200000000044e+02
2.190000000000000000e+02,3.066505999999999972e+02
2.200000000000000000e+02,3.071159099999999853e+02
2.210000000000000000e+02,3.075754999999999768e+02
2.220000000000000000e+02,3.080307000000000244e+02
2.230000000000000000e+02,3.084834000000000174e+02
2.240000000000000000e+02,3.089348400000000083e+02
2.250000000000000000e+02,3.093862300000000118e+02
2.260000000000000000e+02,3.098384399999999914e+02
2.270000000000000000e+02,3.102923599999999738e+02
2.280000000000000000e+02,3.107483799999999974e+02
2.290000000000000000e+02,3.112070899999999938e+02
2.300000000000000000e+02,3.116689499999999953e+02
2.310000000000000000e+02,3.121343100000000277e+02
2.320000000000000000e+02,3.126035499999999843e+02
2.330000000000000000e+02,3.130769999999999982e+02
2.340000000000000000e+02,3.135547799999999938e+02
2.350000000000000000e+02,3.140371999999999844e+02
2.360000000000000000e+02,3.145245699999999829e+02
2.370000000000000000e+02,3.150169700000000148e+02
2.380000000000000000e+02,3.155147699999999986e+02
2.390000000000000000e+02,3.160182500000000232e+02
2.400000000000000000e+02,3.165274999999999750e+02
2.410000000000000000e+02,3.170427599999999870e+02
2.420000000000000000e+02,3.175643900000000031e+02
2.430000000000000000e+02,3.180924400000000105e+02
2.440000000000000000e+02,3.186271699999999782e+02
2.450000000000000000e+02,3.191689499999999953e+02
2.460000000000000000e+02,3.197177699999999732e+02
2.470000000000000000e+02,3.202742000000000075e+02
2.480000000000000000e+02,3.210456199999999853e+02
2.490000000000000000e+02,3.216888099999999895e+02
2.500000000000000000e+02,3.222939799999999764e+02
2.510000000000000000e+02,3.228952300000000264e+02
2.520000000000000000e+02,3.234988999999999919e+02
2.530000000000000000e+02,3.241086700000000178e+02
2.540000000000000000e+02,3.247263800000000060e+02
2.550000000000000000e+02,3.253533899999999903e+02
2.560000000000000000e+02,3.259902999999999906e+02
2.570000000000000000e+02,3.266380599999999959e+02
2.580000000000000000e+02,3.272968399999999747e+02
2.590000000000000000e+02,3.279671599999999785e+02
2.600000000000000000e+02,3.286493800000000078e+02
2.610000000000000000e+02,3.293439599999999814e+02
2.620000000000000000e+02,3.300511500000000069e+02
2.630000000000000000e+02,3.307716100000000097e+02
2.640000000000000000e+02,3.315057699999999841e+02
2.650000000000000000e+02,3.322540900000000192e+02
2.660000000000000000e+02,3.330170899999999961e+02
2.670000000000000000e+02,3.337954700000000230e+02
2.680000000000000000e+02,3.345895699999999806e+02
2.690000000000000000e+02,3.354000199999999836e+02
2.700000000000000000e+02,3.362276299999999765e+02
2.710000000000000000e+02,3.370730300000000170e+02
2.720000000000000000e+02,3.379368299999999863e+02
2.730000000000000000e+02,3.388200400000000059e+02
2.740000000000000000e+02,3.397231100000000197e+02
2.750000000000000000e+02,3.406470299999999725e+02
2.760000000000000000e+02,3.415933200000000056e+02
2.770000000000000000e+02,3.425619199999999864e+02
2.780000000000000000e+02,3.435546600000000126e+02
2.790000000000000000e+02,3.445717799999999897e+02
2.800000000000000000e+02,3.456148699999999963e+02
2.810000000000000000e+02,3.466856399999999780e+02
2.820000000000000000e+02,3.477842999999999734e+02
2.830000000000000000e+02,3.494712200000000166e+02
2.840000000000000000e+02,3.507160000000000082e+02
2.850000000000000000e+02,3.519152199999999766e+02
2.860000000000000000e+02,3.531462099999999964e+02
2.870000000000000000e+02,3.544082599999999843e+02
2.880000000000000000e+02,3.557087399999999775e+02
2.890000000000000000e+02,3.570482799999999770e+02
2.900000000000000000e+02,3.584292599999999993e+02
2.910000000000000000e+02,3.598528699999999958e+02
2.920000000000000000e+02,3.613222000000000094e+02
2.930000000000000000e+02,3.628377699999999777e+02
2.940000000000000000e+02,3.644021000000000186e+02
2.950000000000000000e+02,3.660163299999999822e+02
2.960000000000000000e+02,3.676831700000000183e+02
2.970000000000000000e+02,3.694048799999999915e+02
2.980000000000000000e+02,3.711826500000000237e+02
2.990000000000000000e+02,3.730184600000000046e+02
3.000000000000000000e+02,3.749159900000000221e+02
3.010000000000000000e+02,3.768753699999999753e+02
3.020000000000000000e+02,3.789005999999999972e+02
3.030000000000000000e+02,3.809926100000000133e+02
3.040000000000000000e+02,3.831541399999999840e+02
3.050000000000000000e+02,3.853875699999999824e+02
3.060000000000000000e+02,3.876955600000000004e+02
3.070000000000000000e+02,3.900797699999999963e+02
3.080000000000000000e+02,3.925437900000000013e+02
3.090000000000000000e+02,3.950908800000000269e+02
3.100000000000000000e+02,3.977245500000000220e+02
3.110000000000000000e+02,4.004483599999999797e+02
3.120000000000000000e+02,4.032654099999999744e+02
3.130000000000000000e+02,4.061794399999999996e+02
3.140000000000000000e+02,4.091932699999999841e+02
3.150000000000000000e+02,4.123071600000000103e+02
3.160000000000000000e+02,4.155189199999999801e+02
3.170000000000000000e+02,4.188244300000000067e+02
3.180000000000000000e+02,4.222124900000000025e+02
3.190000000000000000e+02,4.256685800000000199e+02
3.200000000000000000e+02,4.291721800000000258e+02
3.210000000000000000e+02,4.326992500000000064e+02
3.220000000000000000e+02,4.362232700000000136e+02
3.230000000000000000e+02,4.397186300000000188e+02
3.240000000000000000e+02,4.431610099999999761e+02
3.250000000000000000e+02,4.465330500000000029e+02
3.260000000000000000e+02,4.498223300000000222e+02
3.270000000000000000e+02,4.530230099999999993e+02
3.280000000000000000e+02,4.561332400000000007e+02
3.290000000000000000e+02,4.591558200000000056e+02
3.300000000000000000e+02,4.620948500000000081e+02
3.310000000000000000e+02,4.649561800000000176e+02
3.320000000000000000e+02,4.677458199999999806e+02
3.330000000000000000e+02,4.704691799999999944e+02
3.340000000000000000e+02,4.731313799999999787e+02
3.350000000000000000e+02,4.757370300000000043e+02
3.360000000000000000e+02,4.782914700000000039e+02
3.370000000000000000e+02,4.807977900000000204e+02
3.380000000000000000e+02,4.832590299999999957e+02
3.390000000000000000e+02,4.856781599999999912e+02
3.400000000000000000e+02,4.880572799999999916e+02
3.410000000000000000e+02,4.903987399999999752e+02
3.420000000000000000e+02,4.927044700000000148e+02
3.430000000000000000e+02,4.949756199999999922e+02
3.440000000000000000e+02,4.972142000000000053e+02
3.450000000000000000e+02,4.994213899999999740e+02
3.460000000000000000e+02,5.015981800000000135e+02
3.470000000000000000e+02,5.037458799999999997e+02
3.480000000000000000e+02,5.058655699999999911e+02
3.490000000000000000e+02,5.079578900000000203e+02
3.500000000000000000e+02,5.100237700000000132e+02
3.510000000000000000e+02,5.120642100000000028e+02
3.520000000000000000e+02,5.140798300000000154e+02
3.530000000000000000e+02,5.160712300000000141e+02
3.540000000000000000e+02,5.180390599999999495e+02
3.550000000000000000e+02,5.199839500000000498e+02
3.560000000000000000e+02,5.219061900000000378e+02
3.570000000000000000e+02,5.238064600000000155e+02
3.580000000000000000e+02,5.256851199999999835e+02
3.590000000000000000e+02,5.275427200000000312e+02
3.600000000000000000e+02,5.293798199999999952e+02
3.610000000000000000e+02,5.311962300000000141e+02
3.620000000000000000e+02,5.329928599999999506e+02
3.630000000000000000e+02,5.347697799999999688e+02
3.640000000000000000e+02,5.365274699999999939e+02
3.650000000000000000e+02,5.382658699999999499e+02
3.660000000000000000e+02,5.399854699999999639e+02
3.670000000000000000e+02,5.416867099999999482e+02
3.680000000000000000e+02,5.433695699999999533e+02
3.690000000000000000e+02,5.450345499999999674e+02
3.700000000000000000e+02,5.466817600000000539e+02
3.710000000000000000e+02,5.483113399999999729e+02
3.720000000000000000e+02,5.499237699999999904e+02
3.730000000000000000e+02,5.515190400000000182e+02
3.740000000000000000e+02,5.530974099999999680e+02
3.750000000000000000e+02,5.546590599999999540e+02
3.760000000000000000e+02,5.562043499999999767e+02
3.770000000000000000e+02,5.577332199999999602e+02
3.780000000000000000e+02,5.592460899999999810e+02
3.790000000000000000e+02,5.607428599999999506e+02
3.800000000000000000e+02,5.622238800000000083e+02
3.810000000000000000e+02,5.636894499999999653e+02
3.820000000000000000e+02,5.651393399999999474e+02
3.830000000000000000e+02,5.665741600000000062e+02
3.840000000000000000e+02,5.679939000000000533e+02
3.850000000000000000e+02,5.693985000000000127e+02
3.860000000000000000e+02,5.707884500000000116e+02
3.870000000000000000e+02,5.721635099999999738e+02
3.880000000000000000e+02,5.735242299999999886e+02
3.890000000000000000e+02,5.748706100000000561e+02
3.900000000000000000e+02,5.762025800000000118e+02
3.910000000000000000e+02,5.775205700000000206e+02
3.920000000000000000e+02,5.788249499999999443e+02
3.930000000000000000e+02,5.801153600000000097e+02
3.940000000000000000e+02,5.813920900000000529e+02
3.950000000000000000e+02,5.826553300000000490e+02
3.960000000000000000e+02,5.839053999999999860e+02
3.970000000000000000e+02,5.851419700000000148e+02
3.980000000000000000e+02,5.863654199999999719e+02
3.990000000000000000e+02,5.875759299999999712e+02
