# Time [s], Thickness [m]
1.000000000000000000e+00,8.000000400000000303e-03
2.000000000000000000e+00,8.000000400000000303e-03
3.000000000000000000e+00,8.000000400000000303e-03
4.000000000000000000e+00,8.000000400000000303e-03
5.000000000000000000e+00,8.000000400000000303e-03
6.000000000000000000e+00,8.000000400000000303e-03
7.000000000000000000e+00,8.000000400000000303e-03
8.000000000000000000e+00,8.000000400000000303e-03
9.000000000000000000e+00,7.999999400000000829e-03
1.000000000000000000e+01,7.999999400000000829e-03
1.100000000000000000e+01,7.999999400000000829e-03
1.200000000000000000e+01,7.999997599999999348e-03
1.300000000000000000e+01,7.999993900000000255e-03
1.400000000000000000e+01,7.999987300000000606e-03
1.500000000000000000e+01,7.999973400000000637e-03
1.600000000000000000e+01,7.999946399999999236e-03
1.700000000000000000e+01,7.999899799999999825e-03
1.800000000000000000e+01,7.999817799999999618e-03
1.900000000000000000e+01,7.999682799999999552e-03
2.000000000000000000e+01,7.999468600000000235e-03
2.100000000000000000e+01,7.999140800000000343e-03
2.200000000000000000e+01,7.998656499999999558e-03
2.300000000000000000e+01,7.997966400000000586e-03
2.400000000000000000e+01,7.997010800000000849e-03
2.500000000000000000e+01,7.995731199999999914e-03
2.600000000000000000e+01,7.994069700000000153e-03
2.700000000000000000e+01,7.991971400000000628e-03
2.800000000000000000e+01,7.989400100000000268e-03
2.900000000000000000e+01,7.986337899999999476e-03
3.000000000000000000e+01,7.982761600000000748e-03
3.100000000000000000e+01,7.978697300000000409e-03
3.200000000000000000e+01,7.974167399999999156e-03
3.300000000000000000e+01,7.969164299999999604e-03
3.400000000000000000e+01,7.963757999999999601e-03
3.500000000000000000e+01,7.957987499999999437e-03
3.600000000000000000e+01,7.951818399999999523e-03
3.700000000000000000e+01,7.945357800000000387e-03
3.800000000000000000e+01,7.938633699999999432e-03
3.900000000000000000e+01,7.931577000000000419e-03
4.000000000000000000e+01,7.924323000000000478e-03
4.100000000000000000e+01,7.916886399999999852e-03
4.200000000000000000e+01,7.909163800000000577e-03
4.300000000000000000e+01,7.901314600000000632e-03
4.400000000000000000e+01,7.893338800000000016e-03
4.500000000000000000e+01,7.885109600000000593e-03
4.600000000000000000e+01,7.876798500000000564e-03
4.700000000000000000e+01,7.868396099999999324e-03
4.800000000000000000e+01,7.859760000000000357e-03
4.900000000000000000e+01,7.847648100000000071e-03
5.000000000000000000e+01,7.838846199999999209e-03
5.100000000000000000e+01,7.829552499999999776e-03
5.200000000000000000e+01,7.820466499999999613e-03
5.300000000000000000e+01,7.811328900000000068e-03
5.400000000000000000e+01,7.802054299999999776e-03
5.500000000000000000e+01,7.792755999999999642e-03
5.600000000000000000e+01,7.783443699999999937e-03
5.700000000000000000e+01,7.773971699999999985e-03
5.800000000000000000e+01,7.764463800000000367e-03
5.900000000000000000e+01,7.754939100000000224e-03
6.000000000000000000e+01,7.745265999999999783e-03
6.100000000000000000e+01,7.735548099999999677e-03
6.200000000000000000e+01,7.725816200000000002e-03
6.300000000000000000e+01,7.715961900000000220e-03
6.400000000000000000e+01,7.706064299999999985e-03
6.500000000000000000e+01,7.696161499999999711e-03
6.600000000000000000e+01,7.686171200000000391e-03
6.700000000000000000e+01,7.676146899999999884e-03
6.800000000000000000e+01,7.666128200000000420e-03
6.900000000000000000e+01,7.656054600000000016e-03
7.000000000000000000e+01,7.645958999999999915e-03
7.100000000000000000e+01,7.635870900000000204e-03
7.200000000000000000e+01,7.625752599999999735e-03
7.300000000000000000e+01,7.615614700000000389e-03
7.400000000000000000e+01,7.605480999999999873e-03
7.500000000000000000e+01,7.595325400000000129e-03
7.600000000000000000e+01,7.585150700000000377e-03
7.700000000000000000e+01,7.574971800000000061e-03
7.800000000000000000e+01,7.564775200000000213e-03
7.900000000000000000e+01,7.554561399999999705e-03
8.000000000000000000e+01,7.544341500000000152e-03
8.100000000000000000e+01,7.534109500000000376e-03
8.200000000000000000e+01,7.523866799999999987e-03
8.300000000000000000e+01,7.513622799999999588e-03
8.400000000000000000e+01,7.503376299999999638e-03
8.500000000000000000e+01,7.493129000000000282e-03
8.600000000000000000e+01,7.482884000000000410e-03
8.700000000000000000e+01,7.472644999999999982e-03
8.800000000000000000e+01,7.462409300000000245e-03
8.900000000000000000e+01,7.452179700000000420e-03
9.000000000000000000e+01,7.441955600000000302e-03
9.100000000000000000e+01,7.430333600000000108e-03
9.200000000000000000e+01,7.419025099999999699e-03
9.300000000000000000e+01,7.408273899999999815e-03
9.400000000000000000e+01,7.397748499999999734e-03
9.500000000000000000e+01,7.387345699999999828e-03
9.600000000000000000e+01,7.377013099999999574e-03
9.700000000000000000e+01,7.366710299999999940e-03
9.800000000000000000e+01,7.356427100000000052e-03
9.900000000000000000e+01,7.346149100000000202e-03
1.000000000000000000e+02,7.335873799999999972e-03
1.010000000000000000e+02,7.325596600000000395e-03
1.020000000000000000e+02,7.315315799999999591e-03
1.030000000000000000e+02,7.305028800000000141e-03
1.040000000000000000e+02,7.294733500000000030e-03
1.050000000000000000e+02,7.284427999999999910e-03
1.060000000000000000e+02,7.274110299999999966e-03
1.070000000000000000e+02,7.263777800000000180e-03
1.080000000000000000e+02,7.253428499999999869e-03
1.090000000000000000e+02,7.243059100000000076e-03
1.100000000000000000e+02,7.232670699999999876e-03
1.110000000000000000e+02,7.222259899999999844e-03
1.120000000000000000e+02,7.211827700000000320e-03
1.130000000000000000e+02,7.201372200000000223e-03
1.140000000000000000e+02,7.190894300000000294e-03
1.150000000000000000e+02,7.180393699999999997e-03
1.160000000000000000e+02,7.169871100000000004e-03
1.170000000000000000e+02,7.159329499999999603e-03
1.180000000000000000e+02,7.148766899999999848e-03
1.190000000000000000e+02,7.138184700000000348e-03
1.200000000000000000e+02,7.127584000000000176e-03
1.210000000000000000e+02,7.116963599999999793e-03
1.220000000000000000e+02,7.106324199999999869e-03
1.230000000000000000e+02,7.095664699999999596e-03
1.240000000000000000e+02,7.084983900000000299e-03
1.250000000000000000e+02,7.074280199999999699e-03
1.260000000000000000e+02,7.063553699999999998e-03
1.270000000000000000e+02,7.052800199999999763e-03
1.280000000000000000e+02,7.042020099999999998e-03
1.290000000000000000e+02,7.031212600000000430e-03
1.300000000000000000e+02,7.019598499999999894e-03
1.310000000000000000e+02,7.008285300000000051e-03
1.320000000000000000e+02,6.997143400000000076e-03
1.330000000000000000e+02,6.986079299999999742e-03
1.340000000000000000e+02,6.975067300000000262e-03
1.350000000000000000e+02,6.964075400000000263e-03
1.360000000000000000e+02,6.953089499999999708e-03
1.370000000000000000e+02,6.942092900000000275e-03
1.380000000000000000e+02,6.931075800000000356e-03
1.390000000000000000e+02,6.920029400000000420e-03
1.400000000000000000e+02,6.908947599999999689e-03
1.410000000000000000e+02,6.897824799999999722e-03
1.420000000000000000e+02,6.886656900000000421e-03
1.430000000000000000e+02,6.875441399999999634e-03
1.440000000000000000e+02,6.864176100000000079e-03
1.450000000000000000e+02,6.852858199999999934e-03
1.460000000000000000e+02,6.841487299999999931e-03
1.470000000000000000e+02,6.830061299999999787e-03
1.480000000000000000e+02,6.818581399999999910e-03
1.490000000000000000e+02,6.807045099999999883e-03
1.500000000000000000e+02,6.795454299999999920e-03
1.510000000000000000e+02,6.783807700000000010e-03
1.520000000000000000e+02,6.772103699999999608e-03
1.530000000000000000e+02,6.760343900000000128e-03
1.540000000000000000e+02,6.748525400000000146e-03
1.550000000000000000e+02,6.736648300000000131e-03
1.560000000000000000e+02,6.724711000000000403e-03
1.570000000000000000e+02,6.712713300000000029e-03
1.580000000000000000e+02,6.700652700000000322e-03
1.590000000000000000e+02,6.688527799999999940e-03
1.600000000000000000e+02,6.676337699999999875e-03
1.610000000000000000e+02,6.664080999999999651e-03
1.620000000000000000e+02,6.651755399999999784e-03
1.630000000000000000e+02,6.639360900000000273e-03
1.640000000000000000e+02,6.626895600000000039e-03
1.650000000000000000e+02,6.614357700000000201e-03
1.660000000000000000e+02,6.601163200000000238e-03
1.670000000000000000e+02,6.588110200000000388e-03
1.680000000000000000e+02,6.575122499999999821e-03
1.690000000000000000e+02,6.562140800000000433e-03
1.700000000000000000e+02,6.549140400000000306e-03
1.710000000000000000e+02,6.536103799999999978e-03
1.720000000000000000e+02,6.523019199999999761e-03
1.730000000000000000e+02,6.509877300000000387e-03
1.740000000000000000e+02,6.496672499999999947e-03
1.750000000000000000e+02,6.483399800000000206e-03
1.760000000000000000e+02,6.470056299999999740e-03
1.770000000000000000e+02,6.456640999999999943e-03
1.780000000000000000e+02,6.443153099999999675e-03
1.790000000000000000e+02,6.429592599999999804e-03
1.800000000000000000e+02,6.415958099999999852e-03
1.810000000000000000e+02,6.402252199999999838e-03
1.820000000000000000e+02,6.388475700000000035e-03
1.830000000000000000e+02,6.374631099999999995e-03
1.840000000000000000e+02,6.360720400000000399e-03
1.850000000000000000e+02,6.346746799999999737e-03
1.860000000000000000e+02,6.332711799999999822e-03
1.870000000000000000e+02,6.318618500000000408e-03
1.880000000000000000e+02,6.304470799999999792e-03
1.890000000000000000e+02,6.290271400000000193e-03
1.900000000000000000e+02,6.276023599999999703e-03
1.910000000000000000e+02,6.261731000000000415e-03
1.920000000000000000e+02,6.247397000000000020e-03
1.930000000000000000e+02,6.233025799999999950e-03
1.940000000000000000e+02,6.218620999999999698e-03
1.950000000000000000e+02,6.204186900000000296e-03
1.960000000000000000e+02,6.189290899999999943e-03
1.970000000000000000e+02,6.174508900000000300e-03
1.980000000000000000e+02,6.159800099999999598e-03
1.990000000000000000e+02,6.145135000000000354e-03
2.000000000000000000e+02,6.130502099999999947e-03
2.010000000000000000e+02,6.115892900000000250e-03
2.020000000000000000e+02,6.101304699999999907e-03
2.030000000000000000e+02,6.086734600000000099e-03
2.040000000000000000e+02,6.072181299999999948e-03
2.050000000000000000e+02,6.057646100000000332e-03
2.060000000000000000e+02,6.043129599999999720e-03
2.070000000000000000e+02,6.028632600000000119e-03
2.080000000000000000e+02,6.014156599999999873e-03
2.090000000000000000e+02,5.999703399999999597e-03
2.100000000000000000e+02,5.985274900000000370e-03
2.110000000000000000e+02,5.970872500000000069e-03
2.120000000000000000e+02,5.956498400000000311e-03
2.130000000000000000e+02,5.942153300000000034e-03
2.140000000000000000e+02,5.927838399999999647e-03
2.150000000000000000e+02,5.913555600000000231e-03
2.160000000000000000e+02,5.899306400000000131e-03
2.170000000000000000e+02,5.885091599999999618e-03
2.180000000000000000e+02,5.870911799999999764e-03
2.190000000000000000e+02,5.856768200000000112e-03
2.200000000000000000e+02,5.842661499999999598e-03
2.210000000000000000e+02,5.828592900000000368e-03
2.220000000000000000e+02,5.814562599999999887e-03
2.230000000000000000e+02,5.800572199999999567e-03
2.240000000000000000e+02,5.786621900000000346e-03
2.250000000000000000e+02,5.772374999999999728e-03
2.260000000000000000e+02,5.758257099999999733e-03
2.270000000000000000e+02,5.744241599999999962e-03
2.280000000000000000e+02,5.730310899999999617e-03
2.290000000000000000e+02,5.716453800000000085e-03
2.300000000000000000e+02,5.702664599999999855e-03
2.310000000000000000e+02,5.688936900000000213e-03
2.320000000000000000e+02,5.675268399999999942e-03
2.330000000000000000e+02,5.661657100000000095e-03
2.340000000000000000e+02,5.648100300000000185e-03
2.350000000000000000e+02,5.634597499999999606e-03
2.360000000000000000e+02,5.621148299999999959e-03
2.370000000000000000e+02,5.607751700000000034e-03
2.380000000000000000e+02,5.594407200000000094e-03
2.390000000000000000e+02,5.581114899999999740e-03
2.400000000000000000e+02,5.567874300000000103e-03
2.410000000000000000e+02,5.554685799999999583e-03
2.420000000000000000e+02,5.541549100000000248e-03
2.430000000000000000e+02,5.528464000000000295e-03
2.440000000000000000e+02,5.515431099999999927e-03
2.450000000000000000e+02,5.502450300000000412e-03
2.460000000000000000e+02,5.489522600000000356e-03
2.470000000000000000e+02,5.476647500000000023e-03
2.480000000000000000e+02,5.463825999999999752e-03
2.490000000000000000e+02,5.451058499999999682e-03
2.500000000000000000e+02,5.438344599999999675e-03
2.510000000000000000e+02,5.425686499999999614e-03
2.520000000000000000e+02,5.413083800000000230e-03
2.530000000000000000e+02,5.400537500000000130e-03
2.540000000000000000e+02,5.388048900000000190e-03
2.550000000000000000e+02,5.375618599999999747e-03
2.560000000000000000e+02,5.362964700000000251e-03
2.570000000000000000e+02,5.350439799999999642e-03
2.580000000000000000e+02,5.338023400000000036e-03
2.590000000000000000e+02,5.325704300000000217e-03
2.600000000000000000e+02,5.313475199999999864e-03
2.610000000000000000e+02,5.301332599999999950e-03
2.620000000000000000e+02,5.289274299999999727e-03
2.630000000000000000e+02,5.277297900000000111e-03
2.640000000000000000e+02,5.265403499999999834e-03
2.650000000000000000e+02,5.253589700000000154e-03
2.660000000000000000e+02,5.241857800000000213e-03
2.670000000000000000e+02,5.230207500000000342e-03
2.680000000000000000e+02,5.218639500000000347e-03
2.690000000000000000e+02,5.207155800000000043e-03
2.700000000000000000e+02,5.195757799999999905e-03
2.710000000000000000e+02,5.184446500000000277e-03
2.720000000000000000e+02,5.173224500000000309e-03
2.730000000000000000e+02,5.162093300000000079e-03
2.740000000000000000e+02,5.151055800000000143e-03
2.750000000000000000e+02,5.140114099999999915e-03
2.760000000000000000e+02,5.129271700000000156e-03
2.770000000000000000e+02,5.118530700000000280e-03
2.780000000000000000e+02,5.107895000000000317e-03
2.790000000000000000e+02,5.097367299999999886e-03
2.800000000000000000e+02,5.086951900000000019e-03
2.810000000000000000e+02,5.076652899999999947e-03
2.820000000000000000e+02,5.066473999999999631e-03
2.830000000000000000e+02,5.056419399999999634e-03
2.840000000000000000e+02,5.046494299999999995e-03
2.850000000000000000e+02,5.036703299999999682e-03
2.860000000000000000e+02,5.027051999999999736e-03
2.870000000000000000e+02,5.017545499999999728e-03
2.880000000000000000e+02,5.008189500000000301e-03
2.890000000000000000e+02,4.998990299999999699e-03
2.900000000000000000e+02,4.989954199999999639e-03
2.910000000000000000e+02,4.981087500000000098e-03
2.920000000000000000e+02,4.972397800000000201e-03
2.930000000000000000e+02,4.963892499999999867e-03
2.940000000000000000e+02,4.955447699999999782e-03
2.950000000000000000e+02,4.947237200000000230e-03
2.960000000000000000e+02,4.939266900000000189e-03
2.970000000000000000e+02,4.931538800000000340e-03
2.980000000000000000e+02,4.924058000000000254e-03
2.990000000000000000e+02,4.916829099999999765e-03
3.000000000000000000e+02,4.909859499999999662e-03
3.010000000000000000e+02,4.903156799999999933e-03
3.020000000000000000e+02,4.896730200000000248e-03
3.030000000000000000e+02,4.890589499999999611e-03
3.040000000000000000e+02,4.884745499999999969e-03
3.050000000000000000e+02,4.879210099999999745e-03
3.060000000000000000e+02,4.873994700000000221e-03
3.070000000000000000e+02,4.869111800000000025e-03
3.080000000000000000e+02,4.864573900000000381e-03
3.090000000000000000e+02,4.860393699999999984e-03
3.100000000000000000e+02,4.856581799999999845e-03
3.110000000000000000e+02,4.853148899999999710e-03
3.120000000000000000e+02,4.850102099999999833e-03
3.130000000000000000e+02,4.847444099999999832e-03
3.140000000000000000e+02,4.845173099999999962e-03
3.150000000000000000e+02,4.843278300000000008e-03
3.160000000000000000e+02,4.841741600000000305e-03
3.170000000000000000e+02,4.840535099999999577e-03
3.180000000000000000e+02,4.839622400000000157e-03
3.190000000000000000e+02,4.838959299999999984e-03
3.200000000000000000e+02,4.838499199999999646e-03
3.210000000000000000e+02,4.838195600000000200e-03
3.220000000000000000e+02,4.838006599999999935e-03
3.230000000000000000e+02,4.837895699999999848e-03
3.240000000000000000e+02,4.837835700000000204e-03
3.250000000000000000e+02,4.837805899999999583e-03
3.260000000000000000e+02,4.837792799999999886e-03
3.270000000000000000e+02,4.837788600000000189e-03
3.280000000000000000e+02,4.837787199999999711e-03
3.290000000000000000e+02,4.837787199999999711e-03
3.300000000000000000e+02,4.837787700000000315e-03
3.310000000000000000e+02,4.837787700000000315e-03
3.320000000000000000e+02,4.837788200000000052e-03
3.330000000000000000e+02,4.837788200000000052e-03
3.340000000000000000e+02,4.837788200000000052e-03
3.350000000000000000e+02,4.837788200000000052e-03
3.360000000000000000e+02,4.837788200000000052e-03
3.370000000000000000e+02,4.837788200000000052e-03
3.380000000000000000e+02,4.837788200000000052e-03
3.390000000000000000e+02,4.837788200000000052e-03
3.400000000000000000e+02,4.837788200000000052e-03
3.410000000000000000e+02,4.837788200000000052e-03
3.420000000000000000e+02,4.837788200000000052e-03
3.430000000000000000e+02,4.837788200000000052e-03
3.440000000000000000e+02,4.837788200000000052e-03
3.450000000000000000e+02,4.837788200000000052e-03
3.460000000000000000e+02,4.837788200000000052e-03
3.470000000000000000e+02,4.837788200000000052e-03
3.480000000000000000e+02,4.837788200000000052e-03
3.490000000000000000e+02,4.837788200000000052e-03
3.500000000000000000e+02,4.837788200000000052e-03
3.510000000000000000e+02,4.837788200000000052e-03
3.520000000000000000e+02,4.837788200000000052e-03
3.530000000000000000e+02,4.837788200000000052e-03
3.540000000000000000e+02,4.837788200000000052e-03
3.550000000000000000e+02,4.837788200000000052e-03
3.560000000000000000e+02,4.837788200000000052e-03
3.570000000000000000e+02,4.837788200000000052e-03
3.580000000000000000e+02,4.837788200000000052e-03
3.590000000000000000e+02,4.837788200000000052e-03
3.600000000000000000e+02,4.837788200000000052e-03
3.610000000000000000e+02,4.837788200000000052e-03
3.620000000000000000e+02,4.837788200000000052e-03
3.630000000000000000e+02,4.837788200000000052e-03
3.640000000000000000e+02,4.837788200000000052e-03
3.650000000000000000e+02,4.837788200000000052e-03
3.660000000000000000e+02,4.837788200000000052e-03
3.670000000000000000e+02,4.837788200000000052e-03
3.680000000000000000e+02,4.837788200000000052e-03
3.690000000000000000e+02,4.837788200000000052e-03
3.700000000000000000e+02,4.837788200000000052e-03
3.710000000000000000e+02,4.837788200000000052e-03
3.720000000000000000e+02,4.837788200000000052e-03
3.730000000000000000e+02,4.837788200000000052e-03
3.740000000000000000e+02,4.837788200000000052e-03
3.750000000000000000e+02,4.837788200000000052e-03
3.760000000000000000e+02,4.837788200000000052e-03
3.770000000000000000e+02,4.837788200000000052e-03
3.780000000000000000e+02,4.837788200000000052e-03
3.790000000000000000e+02,4.837788200000000052e-03
3.800000000000000000e+02,4.837788200000000052e-03
3.810000000000000000e+02,4.837788200000000052e-03
3.820000000000000000e+02,4.837788200000000052e-03
3.830000000000000000e+02,4.837788200000000052e-03
3.840000000000000000e+02,4.837788200000000052e-03
3.850000000000000000e+02,4.837788200000000052e-03
3.860000000000000000e+02,4.837788200000000052e-03
3.870000000000000000e+02,4.837788200000000052e-03
3.880000000000000000e+02,4.837788200000000052e-03
3.890000000000000000e+02,4.837788200000000052e-03
3.900000000000000000e+02,4.837788200000000052e-03
3.910000000000000000e+02,4.837788200000000052e-03
3.920000000000000000e+02,4.837788200000000052e-03
3.930000000000000000e+02,4.837788200000000052e-03
3.940000000000000000e+02,4.837788200000000052e-03
3.950000000000000000e+02,4.837788200000000052e-03
3.960000000000000000e+02,4.837788200000000052e-03
3.970000000000000000e+02,4.837788200000000052e-03
3.980000000000000000e+02,4.837788200000000052e-03
3.990000000000000000e+02,4.837788200000000052e-03
