# Time [s], Convective Heat Transfer Coefficient [W/m2K]
1.000000000000000000e+00,0.000000000000000000e+00
2.000000000000000000e+00,0.000000000000000000e+00
3.000000000000000000e+00,0.000000000000000000e+00
4.000000000000000000e+00,0.000000000000000000e+00
5.000000000000000000e+00,2.762023300960968902e-02
6.000000000000000000e+00,4.444506962132738215e-02
7.000000000000000000e+00,7.260821395136821121e-02
8.000000000000000000e+00,1.095134486377351557e-01
9.000000000000000000e+00,1.571913451025172825e-01
1.000000000000000000e+01,2.155307931155135415e-01
1.100000000000000000e+01,2.845265502241239863e-01
1.200000000000000000e+01,3.634225834564590585e-01
1.300000000000000000e+01,4.514051143935866039e-01
1.400000000000000000e+01,5.473758693956617405e-01
1.500000000000000000e+01,6.502507593654649476e-01
1.600000000000000000e+01,7.589324745477915579e-01
1.700000000000000000e+01,8.724012208570492977e-01
1.800000000000000000e+01,9.897226593501905478e-01
1.900000000000000000e+01,1.110057133218085967e+00
2.000000000000000000e+01,1.232672444506671239e+00
2.100000000000000000e+01,1.356924666570183069e+00
2.200000000000000000e+01,1.482260915709440185e+00
2.300000000000000000e+01,1.608204306606474621e+00
2.400000000000000000e+01,1.734355717859258128e+00
2.500000000000000000e+01,1.860373997406485458e+00
2.600000000000000000e+01,1.985968732599089348e+00
2.700000000000000000e+01,2.110903641482980042e+00
2.800000000000000000e+01,2.234982975283837714e+00
2.900000000000000000e+01,2.358044083811222436e+00
3.000000000000000000e+01,2.479949464415946547e+00
3.100000000000000000e+01,2.600592020225764855e+00
3.200000000000000000e+01,2.719880633585245455e+00
3.300000000000000000e+01,2.837736885910844276e+00
3.400000000000000000e+01,2.954102543405628722e+00
3.500000000000000000e+01,3.068926751306725098e+00
3.600000000000000000e+01,3.182166599626631509e+00
3.700000000000000000e+01,3.293792259411875367e+00
3.800000000000000000e+01,3.403774462606734552e+00
3.900000000000000000e+01,3.512097529842034938e+00
4.000000000000000000e+01,3.618743583093087413e+00
4.100000000000000000e+01,3.723706823511623298e+00
4.200000000000000000e+01,3.826979195838854597e+00
4.300000000000000000e+01,3.928559825966572383e+00
4.400000000000000000e+01,4.028455281159383006e+00
4.500000000000000000e+01,4.126664319763893474e+00
4.600000000000000000e+01,4.223205212759539862e+00
4.700000000000000000e+01,4.318084501698940869e+00
4.800000000000000000e+01,4.411318126303654275e+00
4.900000000000000000e+01,4.502930807983325678e+00
5.000000000000000000e+01,4.592943201356386673e+00
5.100000000000000000e+01,4.681378766180153583e+00
5.200000000000000000e+01,4.768261348623539675e+00
5.300000000000000000e+01,4.853619845471330407e+00
5.400000000000000000e+01,4.937481380261984576e+00
5.500000000000000000e+01,5.022102767281245939e+00
5.600000000000000000e+01,5.103908603008895817e+00
5.700000000000000000e+01,5.183966328904147325e+00
5.800000000000000000e+01,5.262531200615648608e+00
5.900000000000000000e+01,5.339676217874512965e+00
6.000000000000000000e+01,5.415459872055100377e+00
6.100000000000000000e+01,5.489932060299313576e+00
6.200000000000000000e+01,5.563134678281852707e+00
6.300000000000000000e+01,5.635108537250375527e+00
6.400000000000000000e+01,5.705890447770283203e+00
6.500000000000000000e+01,5.775513888914353799e+00
6.600000000000000000e+01,5.844016578353463665e+00
6.700000000000000000e+01,5.911430700865591525e+00
6.800000000000000000e+01,5.977786728424485219e+00
6.900000000000000000e+01,6.043114501157081264e+00
7.000000000000000000e+01,6.107441507339163245e+00
7.100000000000000000e+01,6.170797310875180131e+00
7.200000000000000000e+01,6.233206724085923689e+00
7.300000000000000000e+01,6.294695807556430545e+00
7.400000000000000000e+01,6.355288865233594819e+00
7.500000000000000000e+01,6.415010272641548994e+00
7.600000000000000000e+01,6.473884011843358266e+00
7.700000000000000000e+01,6.531936193851098693e+00
7.800000000000000000e+01,6.589183678138532230e+00
7.900000000000000000e+01,6.645647627565520743e+00
8.000000000000000000e+01,6.701351057215759077e+00
8.100000000000000000e+01,6.756311756053295703e+00
8.200000000000000000e+01,6.810545980930642784e+00
8.300000000000000000e+01,6.864074037196566280e+00
8.400000000000000000e+01,6.916914583391909233e+00
8.500000000000000000e+01,6.969079210343173791e+00
8.600000000000000000e+01,7.020587919719917025e+00
8.700000000000000000e+01,7.071453299978300855e+00
8.800000000000000000e+01,7.121688896833481053e+00
8.900000000000000000e+01,7.171311420724968855e+00
9.000000000000000000e+01,7.220328855196576079e+00
9.100000000000000000e+01,7.268797092065356402e+00
9.200000000000000000e+01,7.316665703722078362e+00
9.300000000000000000e+01,7.363962007447104163e+00
9.400000000000000000e+01,7.410704283004553972e+00
9.500000000000000000e+01,7.456900657192675475e+00
9.600000000000000000e+01,7.502566777681460408e+00
9.700000000000000000e+01,7.547711800835960716e+00
9.800000000000000000e+01,7.592350554036142007e+00
9.900000000000000000e+01,7.636491365116221175e+00
1.000000000000000000e+02,7.680149135472022159e+00
1.010000000000000000e+02,7.723330254783800086e+00
1.020000000000000000e+02,7.766044329010775016e+00
1.030000000000000000e+02,7.808296709868169039e+00
1.040000000000000000e+02,7.850093850677332341e+00
1.050000000000000000e+02,7.891440991900862123e+00
1.060000000000000000e+02,7.932342781245826480e+00
1.070000000000000000e+02,7.972807170037631508e+00
1.080000000000000000e+02,8.012836313761898310e+00
1.090000000000000000e+02,8.052438411400075324e+00
1.100000000000000000e+02,8.091614896141059887e+00
1.110000000000000000e+02,8.130374571336428602e+00
1.120000000000000000e+02,8.168719579545676623e+00
1.130000000000000000e+02,8.206656661731402735e+00
1.140000000000000000e+02,8.244188679574364187e+00
1.150000000000000000e+02,8.281320081418197532e+00
1.160000000000000000e+02,8.318057508030465286e+00
1.170000000000000000e+02,8.354402485476272844e+00
1.180000000000000000e+02,8.390361123183303960e+00
1.190000000000000000e+02,8.425934356175490691e+00
1.200000000000000000e+02,8.461126500097467584e+00
1.210000000000000000e+02,8.495943327363507436e+00
1.220000000000000000e+02,8.530385413072501422e+00
1.230000000000000000e+02,8.564456002857014028e+00
1.240000000000000000e+02,8.598159640028359973e+00
1.250000000000000000e+02,8.631497087511329269e+00
1.260000000000000000e+02,8.664471709210236128e+00
1.270000000000000000e+02,8.697103764054814334e+00
1.280000000000000000e+02,8.729369103340028246e+00
1.290000000000000000e+02,8.761277502877153012e+00
1.300000000000000000e+02,8.792834035019247096e+00
1.310000000000000000e+02,8.824045552674606441e+00
1.320000000000000000e+02,8.854918389143485058e+00
1.330000000000000000e+02,8.885457043675165423e+00
1.340000000000000000e+02,8.915665423531196510e+00
1.350000000000000000e+02,8.945542476217026362e+00
1.360000000000000000e+02,8.975086712915869569e+00
1.370000000000000000e+02,9.004297231531841916e+00
1.380000000000000000e+02,9.033171974472042010e+00
1.390000000000000000e+02,9.061709474002167752e+00
1.400000000000000000e+02,9.089908123319329292e+00
1.410000000000000000e+02,9.117767305303734915e+00
1.420000000000000000e+02,9.145285821139500726e+00
1.430000000000000000e+02,9.172461210360436823e+00
1.440000000000000000e+02,9.199293243915397156e+00
1.450000000000000000e+02,9.225780144307925923e+00
1.460000000000000000e+02,9.251919448581480410e+00
1.470000000000000000e+02,9.277708297208388188e+00
1.480000000000000000e+02,9.303143307116009453e+00
1.490000000000000000e+02,9.328221928213899616e+00
1.500000000000000000e+02,9.352940277170306516e+00
1.510000000000000000e+02,9.377293701826912908e+00
1.520000000000000000e+02,9.401278519037127523e+00
1.530000000000000000e+02,9.424887769297795259e+00
1.540000000000000000e+02,9.448118768408543033e+00
1.550000000000000000e+02,9.470964907472280814e+00
1.560000000000000000e+02,9.493419119757408708e+00
1.570000000000000000e+02,9.515478410537212994e+00
1.580000000000000000e+02,9.537134234840387137e+00
1.590000000000000000e+02,9.558444752525666388e+00
1.600000000000000000e+02,9.579316885750944977e+00
1.610000000000000000e+02,9.599776207468234901e+00
1.620000000000000000e+02,9.619829554609372835e+00
1.630000000000000000e+02,9.639473364594749683e+00
1.640000000000000000e+02,9.658698403590555870e+00
1.650000000000000000e+02,9.677489497828672071e+00
1.660000000000000000e+02,9.695833606794282744e+00
1.670000000000000000e+02,9.713719273984942504e+00
1.680000000000000000e+02,9.731139553057793989e+00
1.690000000000000000e+02,9.748088222541328562e+00
1.700000000000000000e+02,9.764563449414428220e+00
1.710000000000000000e+02,9.780563917028999299e+00
1.720000000000000000e+02,9.796089302047720437e+00
1.730000000000000000e+02,9.811140743333091052e+00
1.740000000000000000e+02,9.825721061385104704e+00
1.750000000000000000e+02,9.839833887922244671e+00
1.760000000000000000e+02,9.853484982455990249e+00
1.770000000000000000e+02,9.866679801281110329e+00
1.780000000000000000e+02,9.879426144184416003e+00
1.790000000000000000e+02,9.891732573997073175e+00
1.800000000000000000e+02,9.903610084302902905e+00
1.810000000000000000e+02,9.915068505663157339e+00
1.820000000000000000e+02,9.926120922890149245e+00
1.830000000000000000e+02,9.936780446508919340e+00
1.840000000000000000e+02,9.947060931971480002e+00
1.850000000000000000e+02,9.956978162348088190e+00
1.860000000000000000e+02,9.966547718172815706e+00
1.870000000000000000e+02,9.975785813249828493e+00
1.880000000000000000e+02,9.984967496831337996e+00
1.890000000000000000e+02,9.993789041314132149e+00
1.900000000000000000e+02,1.000234325029038551e+01
1.910000000000000000e+02,1.001064748336349020e+01
1.920000000000000000e+02,1.001869364088446623e+01
1.930000000000000000e+02,1.002648155631671756e+01
1.940000000000000000e+02,1.003402462962893438e+01
1.950000000000000000e+02,1.004134357528555910e+01
1.960000000000000000e+02,1.004846034802459975e+01
1.970000000000000000e+02,1.005539756390838413e+01
1.980000000000000000e+02,1.006217549783129073e+01
1.990000000000000000e+02,1.006881337635092599e+01
2.000000000000000000e+02,1.007532835238417412e+01
2.010000000000000000e+02,1.008173621417558508e+01
2.020000000000000000e+02,1.008805139755419056e+01
2.030000000000000000e+02,1.009428814607780645e+01
2.040000000000000000e+02,1.010045913760075997e+01
2.050000000000000000e+02,1.010657595405787035e+01
2.060000000000000000e+02,1.011264886049917422e+01
2.070000000000000000e+02,1.011868818592887997e+01
2.080000000000000000e+02,1.012470432363387296e+01
2.090000000000000000e+02,1.013070533606483714e+01
2.100000000000000000e+02,1.013669993094687172e+01
2.110000000000000000e+02,1.014269393010637899e+01
2.120000000000000000e+02,1.014869596926764928e+01
2.130000000000000000e+02,1.015471259994196807e+01
2.140000000000000000e+02,1.016186457408613109e+01
2.150000000000000000e+02,1.016852423361200763e+01
2.160000000000000000e+02,1.017500128538581095e+01
2.170000000000000000e+02,1.018138089030072457e+01
2.180000000000000000e+02,1.018768878623079743e+01
2.190000000000000000e+02,1.019396443597222124e+01
2.200000000000000000e+02,1.020024609447716557e+01
2.210000000000000000e+02,1.020655643364283804e+01
2.220000000000000000e+02,1.021291206477230240e+01
2.230000000000000000e+02,1.021932615276786294e+01
2.240000000000000000e+02,1.022580048784677587e+01
2.250000000000000000e+02,1.023234378068830353e+01
2.260000000000000000e+02,1.023895978155750797e+01
2.270000000000000000e+02,1.024565065682333120e+01
2.280000000000000000e+02,1.025241978300403822e+01
2.290000000000000000e+02,1.025927196077742209e+01
2.300000000000000000e+02,1.026620962847873741e+01
2.310000000000000000e+02,1.027323509572663340e+01
2.320000000000000000e+02,1.028034821784821595e+01
2.330000000000000000e+02,1.028755658853215849e+01
2.340000000000000000e+02,1.029486057413440037e+01
2.350000000000000000e+02,1.030226306978140549e+01
2.360000000000000000e+02,1.030977146325383309e+01
2.370000000000000000e+02,1.031738715418048180e+01
2.380000000000000000e+02,1.032511185604363746e+01
2.390000000000000000e+02,1.033295285608865122e+01
2.400000000000000000e+02,1.034091399557203239e+01
2.410000000000000000e+02,1.034900017610795864e+01
2.420000000000000000e+02,1.036042844213933378e+01
2.430000000000000000e+02,1.036971832089877310e+01
2.440000000000000000e+02,1.037834649478928917e+01
2.450000000000000000e+02,1.038694287755125956e+01
2.460000000000000000e+02,1.039559838831105409e+01
2.470000000000000000e+02,1.040442193965546558e+01
2.480000000000000000e+02,1.041343198874220199e+01
2.490000000000000000e+02,1.042263919403715455e+01
2.500000000000000000e+02,1.043204841461026611e+01
2.510000000000000000e+02,1.044166283909899562e+01
2.520000000000000000e+02,1.045148624978737217e+01
2.530000000000000000e+02,1.046152504772124381e+01
2.540000000000000000e+02,1.047178459586149835e+01
2.550000000000000000e+02,1.048226965269889277e+01
2.560000000000000000e+02,1.049299032977205393e+01
2.570000000000000000e+02,1.050395662258303098e+01
2.580000000000000000e+02,1.051518475908368622e+01
2.590000000000000000e+02,1.052668075236844381e+01
2.600000000000000000e+02,1.053845947858618359e+01
2.610000000000000000e+02,1.055052900814378702e+01
2.620000000000000000e+02,1.056291585651479181e+01
2.630000000000000000e+02,1.057563021869949438e+01
2.640000000000000000e+02,1.058870185978742740e+01
2.650000000000000000e+02,1.060212549844378138e+01
2.660000000000000000e+02,1.061593145728232201e+01
2.670000000000000000e+02,1.063015380275868615e+01
2.680000000000000000e+02,1.064480599211512946e+01
2.690000000000000000e+02,1.065991214362316875e+01
2.700000000000000000e+02,1.067549608390994109e+01
2.710000000000000000e+02,1.069159802172717910e+01
2.720000000000000000e+02,1.070824058100003029e+01
2.730000000000000000e+02,1.072545264819416921e+01
2.740000000000000000e+02,1.074328354368471317e+01
2.750000000000000000e+02,1.076819752810150987e+01
2.760000000000000000e+02,1.078867443390162073e+01
2.770000000000000000e+02,1.080829104715666844e+01
2.780000000000000000e+02,1.082884525075832549e+01
2.790000000000000000e+02,1.085024026232822969e+01
2.800000000000000000e+02,1.087254494242962011e+01
2.810000000000000000e+02,1.089578050509372353e+01
2.820000000000000000e+02,1.092000017515150390e+01
2.830000000000000000e+02,1.094523339494109138e+01
2.840000000000000000e+02,1.097151720946746423e+01
2.850000000000000000e+02,1.099888594963661426e+01
2.860000000000000000e+02,1.102738305976615685e+01
2.870000000000000000e+02,1.105700734538347696e+01
2.880000000000000000e+02,1.108777704649121176e+01
2.890000000000000000e+02,1.111967606818570786e+01
2.900000000000000000e+02,1.115266162843842501e+01
2.910000000000000000e+02,1.118667594524512410e+01
2.920000000000000000e+02,1.122162270612132318e+01
2.930000000000000000e+02,1.125738668598814840e+01
2.940000000000000000e+02,1.129380597650955131e+01
2.950000000000000000e+02,1.133070577284121150e+01
2.960000000000000000e+02,1.136788422257953002e+01
2.970000000000000000e+02,1.140511580287928339e+01
2.980000000000000000e+02,1.144219939973590883e+01
2.990000000000000000e+02,1.147893170015516340e+01
3.000000000000000000e+02,1.151513599585076086e+01
3.010000000000000000e+02,1.155066712692038955e+01
3.020000000000000000e+02,1.158540959856875929e+01
3.030000000000000000e+02,1.161928392692622047e+01
3.040000000000000000e+02,1.165224814511440421e+01
3.050000000000000000e+02,1.168427574093407273e+01
3.060000000000000000e+02,1.171537624857505477e+01
3.070000000000000000e+02,1.174555974502399991e+01
3.080000000000000000e+02,1.177485499691305115e+01
3.090000000000000000e+02,1.180329717249164823e+01
3.100000000000000000e+02,1.183092964980438744e+01
3.110000000000000000e+02,1.185779221646394888e+01
3.120000000000000000e+02,1.188392534176081305e+01
3.130000000000000000e+02,1.190936591293668378e+01
3.140000000000000000e+02,1.193415178902787588e+01
3.150000000000000000e+02,1.195831903361935744e+01
3.160000000000000000e+02,1.198189807097703685e+01
3.170000000000000000e+02,1.200492365352965685e+01
3.180000000000000000e+02,1.202741918801296883e+01
3.190000000000000000e+02,1.204940962767928170e+01
3.200000000000000000e+02,1.207092242597501830e+01
3.210000000000000000e+02,1.209197478101483014e+01
3.220000000000000000e+02,1.211258691345554972e+01
3.230000000000000000e+02,1.213277868714852836e+01
3.240000000000000000e+02,1.215256249353965323e+01
3.250000000000000000e+02,1.217195697214553540e+01
3.260000000000000000e+02,1.219097408133439053e+01
3.270000000000000000e+02,1.220962761251633566e+01
3.280000000000000000e+02,1.222792815833038382e+01
3.290000000000000000e+02,1.224588582045939766e+01
3.300000000000000000e+02,1.226350967690049920e+01
3.310000000000000000e+02,1.228081307901231334e+01
3.320000000000000000e+02,1.229780183144568007e+01
3.330000000000000000e+02,1.231448186516260712e+01
3.340000000000000000e+02,1.233086547416041157e+01
3.350000000000000000e+02,1.234695956333361444e+01
3.360000000000000000e+02,1.236276779038785456e+01
3.370000000000000000e+02,1.237829924233255774e+01
3.380000000000000000e+02,1.239355884361949300e+01
3.390000000000000000e+02,1.240855402422813825e+01
3.400000000000000000e+02,1.242328991339401512e+01
3.410000000000000000e+02,1.243777156351091584e+01
3.420000000000000000e+02,1.245200440576919654e+01
3.430000000000000000e+02,1.246599462426761562e+01
3.440000000000000000e+02,1.247974343724152924e+01
3.450000000000000000e+02,1.249325877772798776e+01
3.460000000000000000e+02,1.250654579271787448e+01
3.470000000000000000e+02,1.251960635200924443e+01
3.480000000000000000e+02,1.253244728179893208e+01
3.490000000000000000e+02,1.254507220779299814e+01
3.500000000000000000e+02,1.255748366748151312e+01
3.510000000000000000e+02,1.256968667807562845e+01
3.520000000000000000e+02,1.258168457243334259e+01
3.530000000000000000e+02,1.259348078772764623e+01
3.540000000000000000e+02,1.260508004420140260e+01
3.550000000000000000e+02,1.261648605472402807e+01
3.560000000000000000e+02,1.262770168184735198e+01
3.570000000000000000e+02,1.263872967903456512e+01
3.580000000000000000e+02,1.264957364337324641e+01
3.590000000000000000e+02,1.266023954288442965e+01
3.600000000000000000e+02,1.267072687531478437e+01
3.610000000000000000e+02,1.268103949586913792e+01
3.620000000000000000e+02,1.269118282044297530e+01
3.630000000000000000e+02,1.270115721095873340e+01
3.640000000000000000e+02,1.271096779672525301e+01
3.650000000000000000e+02,1.272061438273962963e+01
3.660000000000000000e+02,1.273010319256959555e+01
3.670000000000000000e+02,1.273943607407100664e+01
3.680000000000000000e+02,1.274861413354577167e+01
3.690000000000000000e+02,1.275763989906852736e+01
3.700000000000000000e+02,1.276651788540739396e+01
3.710000000000000000e+02,1.277524999058202582e+01
3.720000000000000000e+02,1.278383816465216682e+01
3.730000000000000000e+02,1.279228605503698013e+01
3.740000000000000000e+02,1.280059456652748473e+01
3.750000000000000000e+02,1.280876737346971872e+01
3.760000000000000000e+02,1.281680619935779042e+01
3.770000000000000000e+02,1.282471332061883196e+01
3.780000000000000000e+02,1.283249049728192936e+01
3.790000000000000000e+02,1.284014131953685478e+01
3.800000000000000000e+02,1.284766651669766802e+01
3.810000000000000000e+02,1.285506836622257687e+01
3.820000000000000000e+02,1.286235033128586558e+01
3.830000000000000000e+02,1.286951267253061992e+01
3.840000000000000000e+02,1.287655896146317680e+01
3.850000000000000000e+02,1.288348950386319558e+01
3.860000000000000000e+02,1.289030812088100753e+01
3.870000000000000000e+02,1.289701467083316899e+01
3.880000000000000000e+02,1.290361217089613532e+01
3.890000000000000000e+02,1.291010214572390602e+01
3.900000000000000000e+02,1.291648716123837914e+01
3.910000000000000000e+02,1.292276829631426693e+01
3.920000000000000000e+02,1.292894669092837390e+01
3.930000000000000000e+02,1.293502529512918997e+01
3.940000000000000000e+02,1.294100473677367802e+01
3.950000000000000000e+02,1.294688745282091347e+01
3.960000000000000000e+02,1.295267496016797004e+01
3.970000000000000000e+02,1.295836841772925396e+01
3.980000000000000000e+02,1.296396925505627529e+01
