# Time [s], Convective Heat Transfer Coefficient [W/m2K]
1.000000000000000000e+00,0.000000000000000000e+00
2.000000000000000000e+00,0.000000000000000000e+00
3.000000000000000000e+00,0.000000000000000000e+00
4.000000000000000000e+00,0.000000000000000000e+00
5.000000000000000000e+00,0.000000000000000000e+00
6.000000000000000000e+00,2.412849599104084641e-02
7.000000000000000000e+00,3.908348017778424249e-02
8.000000000000000000e+00,6.111503153033919639e-02
9.000000000000000000e+00,8.977029687088833310e-02
1.000000000000000000e+01,1.256588470237608723e-01
1.100000000000000000e+01,1.692679810363234283e-01
1.200000000000000000e+01,2.204331301762776640e-01
1.300000000000000000e+01,2.788167712891186922e-01
1.400000000000000000e+01,3.438453012726396807e-01
1.500000000000000000e+01,4.148891705556128073e-01
1.600000000000000000e+01,4.912596192139538354e-01
1.700000000000000000e+01,5.722380984084364242e-01
1.800000000000000000e+01,6.571538878488313307e-01
1.900000000000000000e+01,7.453630062107570176e-01
2.000000000000000000e+01,8.362963577401935078e-01
2.100000000000000000e+01,9.294290898346257990e-01
2.200000000000000000e+01,1.024295911062704345e+00
2.300000000000000000e+01,1.120482891633729938e+00
2.400000000000000000e+01,1.217624703259618579e+00
2.500000000000000000e+01,1.315403324966420984e+00
2.600000000000000000e+01,1.413533214557805895e+00
2.700000000000000000e+01,1.511766225197449520e+00
2.800000000000000000e+01,1.609878137362226402e+00
2.900000000000000000e+01,1.707679296027175386e+00
3.000000000000000000e+01,1.804997288416978929e+00
3.100000000000000000e+01,1.901680160737434067e+00
3.200000000000000000e+01,1.997600645259485219e+00
3.300000000000000000e+01,2.092646956773182687e+00
3.400000000000000000e+01,2.186722346889397706e+00
3.500000000000000000e+01,2.279748665628664295e+00
3.600000000000000000e+01,2.373656669330077573e+00
3.700000000000000000e+01,2.465210832784689110e+00
3.800000000000000000e+01,2.555263390926354017e+00
3.900000000000000000e+01,2.643968347314742395e+00
4.000000000000000000e+01,2.731337920520985563e+00
4.100000000000000000e+01,2.817384259059970919e+00
4.200000000000000000e+01,2.902117959750608822e+00
4.300000000000000000e+01,2.985549072468237863e+00
4.400000000000000000e+01,3.067694417555870245e+00
4.500000000000000000e+01,3.148572664469249993e+00
4.600000000000000000e+01,3.228201717342078503e+00
4.700000000000000000e+01,3.306606054743411072e+00
4.800000000000000000e+01,3.383808921617997179e+00
4.900000000000000000e+01,3.459837206241091145e+00
5.000000000000000000e+01,3.534718091715614463e+00
5.100000000000000000e+01,3.608479674201460874e+00
5.200000000000000000e+01,3.681150505249610738e+00
5.300000000000000000e+01,3.752758755276698999e+00
5.400000000000000000e+01,3.823331256410147816e+00
5.500000000000000000e+01,3.892892842534072528e+00
5.600000000000000000e+01,3.961467632060370114e+00
5.700000000000000000e+01,4.029077041521658131e+00
5.800000000000000000e+01,4.095743150418214462e+00
5.900000000000000000e+01,4.161487660615637907e+00
6.000000000000000000e+01,4.226329808560072010e+00
6.100000000000000000e+01,4.290290380093735756e+00
6.200000000000000000e+01,4.353410235042431964e+00
6.300000000000000000e+01,4.415675909913024277e+00
6.400000000000000000e+01,4.477111565143275129e+00
6.500000000000000000e+01,4.537735384954793005e+00
6.600000000000000000e+01,4.597564220521746847e+00
6.700000000000000000e+01,4.656613217036809083e+00
6.800000000000000000e+01,4.714899396286888589e+00
6.900000000000000000e+01,4.772438508329333473e+00
7.000000000000000000e+01,4.829245992815132560e+00
7.100000000000000000e+01,4.885336241738456486e+00
7.200000000000000000e+01,4.940723785704546955e+00
7.300000000000000000e+01,4.995421512638118067e+00
7.400000000000000000e+01,5.049440998670418068e+00
7.500000000000000000e+01,5.102792753994059183e+00
7.600000000000000000e+01,5.155487276603400559e+00
7.700000000000000000e+01,5.207535161093852949e+00
7.800000000000000000e+01,5.258946265059243785e+00
7.900000000000000000e+01,5.309730300837881778e+00
8.000000000000000000e+01,5.359897443360364555e+00
8.100000000000000000e+01,5.409458272502215337e+00
8.200000000000000000e+01,5.458424273157958417e+00
8.300000000000000000e+01,5.506805543484796672e+00
8.400000000000000000e+01,5.554613255497761415e+00
8.500000000000000000e+01,5.601858062599765375e+00
8.600000000000000000e+01,5.648548959709445150e+00
8.700000000000000000e+01,5.694695575095528817e+00
8.800000000000000000e+01,5.740307543978422800e+00
8.900000000000000000e+01,5.785392752604380462e+00
9.000000000000000000e+01,5.829959187570567636e+00
9.100000000000000000e+01,5.874012615083395339e+00
9.200000000000000000e+01,5.917593008563266643e+00
9.300000000000000000e+01,5.960656203382973750e+00
9.400000000000000000e+01,6.003222940186408785e+00
9.500000000000000000e+01,6.045304690689467186e+00
9.600000000000000000e+01,6.086910043619743860e+00
9.700000000000000000e+01,6.128049198449732060e+00
9.800000000000000000e+01,6.168732226923380857e+00
9.900000000000000000e+01,6.208964829365122284e+00
1.000000000000000000e+02,6.248751999245691024e+00
1.010000000000000000e+02,6.288096228942130494e+00
1.020000000000000000e+02,6.326999239239146533e+00
1.030000000000000000e+02,6.365461588278836125e+00
1.040000000000000000e+02,6.403486018962297521e+00
1.050000000000000000e+02,6.441076988199830211e+00
1.060000000000000000e+02,6.478238529256831413e+00
1.070000000000000000e+02,6.514976066138919997e+00
1.080000000000000000e+02,6.551295979989262719e+00
1.090000000000000000e+02,6.587203559654342122e+00
1.100000000000000000e+02,6.622705195003804057e+00
1.110000000000000000e+02,6.657805413343387713e+00
1.120000000000000000e+02,6.692508021308488431e+00
1.130000000000000000e+02,6.726816140657261300e+00
1.140000000000000000e+02,6.760733009691954010e+00
1.150000000000000000e+02,6.794260454537478289e+00
1.160000000000000000e+02,6.827398956262395124e+00
1.170000000000000000e+02,6.860149951529024293e+00
1.180000000000000000e+02,6.892514552942719419e+00
1.190000000000000000e+02,6.924493561861035040e+00
1.200000000000000000e+02,6.956087238325222799e+00
1.210000000000000000e+02,6.987296761414616419e+00
1.220000000000000000e+02,7.018123473291372427e+00
1.230000000000000000e+02,7.048566985264973717e+00
1.240000000000000000e+02,7.078632024370725695e+00
1.250000000000000000e+02,7.108316865268796469e+00
1.260000000000000000e+02,7.137626233025821776e+00
1.270000000000000000e+02,7.166566253119988517e+00
1.280000000000000000e+02,7.195139874537929359e+00
1.290000000000000000e+02,7.223348117319154937e+00
1.300000000000000000e+02,7.251185025761929026e+00
1.310000000000000000e+02,7.278639034531626528e+00
1.320000000000000000e+02,7.305699310659687917e+00
1.330000000000000000e+02,7.332356368944086711e+00
1.340000000000000000e+02,7.358604390862236500e+00
1.350000000000000000e+02,7.384440442170695285e+00
1.360000000000000000e+02,7.409863727145447498e+00
1.370000000000000000e+02,7.434871911776940401e+00
1.380000000000000000e+02,7.459464116623582441e+00
1.390000000000000000e+02,7.483637103201314034e+00
1.400000000000000000e+02,7.507387214735926406e+00
1.410000000000000000e+02,7.530709558256919678e+00
1.420000000000000000e+02,7.553598651886527904e+00
1.430000000000000000e+02,7.576050270972799261e+00
1.440000000000000000e+02,7.598058362662126086e+00
1.450000000000000000e+02,7.619617309078858369e+00
1.460000000000000000e+02,7.640722308076323799e+00
1.470000000000000000e+02,7.661369143908532742e+00
1.480000000000000000e+02,7.681553371120937612e+00
1.490000000000000000e+02,7.701272287527808125e+00
1.500000000000000000e+02,7.720521938069397905e+00
1.510000000000000000e+02,7.739301244306871830e+00
1.520000000000000000e+02,7.757606872808619158e+00
1.530000000000000000e+02,7.775438124173885690e+00
1.540000000000000000e+02,7.792907320133053872e+00
1.550000000000000000e+02,7.809873079863655754e+00
1.560000000000000000e+02,7.826384962319436589e+00
1.570000000000000000e+02,7.842455008060034594e+00
1.580000000000000000e+02,7.858076734092978022e+00
1.590000000000000000e+02,7.873233055353712651e+00
1.600000000000000000e+02,7.887907197593769126e+00
1.610000000000000000e+02,7.902094294010450604e+00
1.620000000000000000e+02,7.915800597902103775e+00
1.630000000000000000e+02,7.929041614362393631e+00
1.640000000000000000e+02,7.941834904499060599e+00
1.650000000000000000e+02,7.954199514039525631e+00
1.660000000000000000e+02,7.966153201310897103e+00
1.670000000000000000e+02,7.977713577460693095e+00
1.680000000000000000e+02,7.988897757787960963e+00
1.690000000000000000e+02,7.999722383779599433e+00
1.700000000000000000e+02,8.010204373351324847e+00
1.710000000000000000e+02,8.020361476583607541e+00
1.720000000000000000e+02,8.030210826170467442e+00
1.730000000000000000e+02,8.039770768643196064e+00
1.740000000000000000e+02,8.049059055309802702e+00
1.750000000000000000e+02,8.058093942457038139e+00
1.760000000000000000e+02,8.066893117294895887e+00
1.770000000000000000e+02,8.075474073315982437e+00
1.780000000000000000e+02,8.083854300707114859e+00
1.790000000000000000e+02,8.092048970850820311e+00
1.800000000000000000e+02,8.100074000101876948e+00
1.810000000000000000e+02,8.108583306886972153e+00
1.820000000000000000e+02,8.116696339860162368e+00
1.830000000000000000e+02,8.124630925246666635e+00
1.840000000000000000e+02,8.132411808999547631e+00
1.850000000000000000e+02,8.140018480351324470e+00
1.860000000000000000e+02,8.147447668271112775e+00
1.870000000000000000e+02,8.154718460603339381e+00
1.880000000000000000e+02,8.161867363380482132e+00
1.890000000000000000e+02,8.168930790671604214e+00
1.900000000000000000e+02,8.175939119954456658e+00
1.910000000000000000e+02,8.182915000860855770e+00
1.920000000000000000e+02,8.189876215837273321e+00
1.930000000000000000e+02,8.196835025432921640e+00
1.940000000000000000e+02,8.203801519922469865e+00
1.950000000000000000e+02,8.210784332021912491e+00
1.960000000000000000e+02,8.217790648857510760e+00
1.970000000000000000e+02,8.224827435079458127e+00
1.980000000000000000e+02,8.231900570461842648e+00
1.990000000000000000e+02,8.239015548384282184e+00
2.000000000000000000e+02,8.246177994982760495e+00
2.010000000000000000e+02,8.253391605133213460e+00
2.020000000000000000e+02,8.260660217215114898e+00
2.030000000000000000e+02,8.267986612609352193e+00
2.040000000000000000e+02,8.275373892024646238e+00
2.050000000000000000e+02,8.282824277772796506e+00
2.060000000000000000e+02,8.290340824398182207e+00
2.070000000000000000e+02,8.297925030564035964e+00
2.080000000000000000e+02,8.307716668759155709e+00
2.090000000000000000e+02,8.316359713497373463e+00
2.100000000000000000e+02,8.324657141680217975e+00
2.110000000000000000e+02,8.332768970221746230e+00
2.120000000000000000e+02,8.340735471812736890e+00
2.130000000000000000e+02,8.348646476727058285e+00
2.140000000000000000e+02,8.356590795040407471e+00
2.150000000000000000e+02,8.364628621404339270e+00
2.160000000000000000e+02,8.372792799646191497e+00
2.170000000000000000e+02,8.381099741936331782e+00
2.180000000000000000e+02,8.389557067177317862e+00
2.190000000000000000e+02,8.398165676658875256e+00
2.200000000000000000e+02,8.406928930622337148e+00
2.210000000000000000e+02,8.415846010690419376e+00
2.220000000000000000e+02,8.424919714772892476e+00
2.230000000000000000e+02,8.434148518819430507e+00
2.240000000000000000e+02,8.443535161803218614e+00
2.250000000000000000e+02,8.453079881310406662e+00
2.260000000000000000e+02,8.462786815538313689e+00
2.270000000000000000e+02,8.472657924159914700e+00
2.280000000000000000e+02,8.482698218126731859e+00
2.290000000000000000e+02,8.492912476247045817e+00
2.300000000000000000e+02,8.503302007836197163e+00
2.310000000000000000e+02,8.513876159568003033e+00
2.320000000000000000e+02,8.524643353672578527e+00
2.330000000000000000e+02,8.535609167168564326e+00
2.340000000000000000e+02,8.546786620866274831e+00
2.350000000000000000e+02,8.558185209220695810e+00
2.360000000000000000e+02,8.569812694211536908e+00
2.370000000000000000e+02,8.581686727191447872e+00
2.380000000000000000e+02,8.593819488440917809e+00
2.390000000000000000e+02,8.613547711696174503e+00
2.400000000000000000e+02,8.627690383208948433e+00
2.410000000000000000e+02,8.640619535890280645e+00
2.420000000000000000e+02,8.653366760339364916e+00
2.430000000000000000e+02,8.666398712050444431e+00
2.440000000000000000e+02,8.679937914794445319e+00
2.450000000000000000e+02,8.694037186353295255e+00
2.460000000000000000e+02,8.708703064935244598e+00
2.470000000000000000e+02,8.723941456633603764e+00
2.480000000000000000e+02,8.739750279947589462e+00
2.490000000000000000e+02,8.756143423285609018e+00
2.500000000000000000e+02,8.773131730076238810e+00
2.510000000000000000e+02,8.790744548231684163e+00
2.520000000000000000e+02,8.809015149144542534e+00
2.530000000000000000e+02,8.827996818327649819e+00
2.540000000000000000e+02,8.847740670600389379e+00
2.550000000000000000e+02,8.868294561440459134e+00
2.560000000000000000e+02,8.889732690971971607e+00
2.570000000000000000e+02,8.912137010744590526e+00
2.580000000000000000e+02,8.935595387030558001e+00
2.590000000000000000e+02,8.960192925926687479e+00
2.600000000000000000e+02,8.986036171474463430e+00
2.610000000000000000e+02,9.013230022721028689e+00
2.620000000000000000e+02,9.041901646274306259e+00
2.630000000000000000e+02,9.072178324773444658e+00
2.640000000000000000e+02,9.104173558794160570e+00
2.650000000000000000e+02,9.138062056538633016e+00
2.660000000000000000e+02,9.173948605194496508e+00
2.670000000000000000e+02,9.211972470952542125e+00
2.680000000000000000e+02,9.252248061149035863e+00
2.690000000000000000e+02,9.294853373622434134e+00
2.700000000000000000e+02,9.339798463552652308e+00
2.710000000000000000e+02,9.387063431880889652e+00
2.720000000000000000e+02,9.436488382784537166e+00
2.730000000000000000e+02,9.487831489072668489e+00
2.740000000000000000e+02,9.540706598425604312e+00
2.750000000000000000e+02,9.594633281700410521e+00
2.760000000000000000e+02,9.649032343681637869e+00
2.770000000000000000e+02,9.703349908809567381e+00
2.780000000000000000e+02,9.757059306047505487e+00
2.790000000000000000e+02,9.809740686946680555e+00
2.800000000000000000e+02,9.861117614386646579e+00
2.810000000000000000e+02,9.911044542620857101e+00
2.820000000000000000e+02,9.959486131505130402e+00
2.830000000000000000e+02,1.000645675618708630e+01
2.840000000000000000e+02,1.005201802727514604e+01
2.850000000000000000e+02,1.009625778605274071e+01
2.860000000000000000e+02,1.013927123340317138e+01
2.870000000000000000e+02,1.018114306138771319e+01
2.880000000000000000e+02,1.022194983092433951e+01
2.890000000000000000e+02,1.026176264695776474e+01
2.900000000000000000e+02,1.030065387790866183e+01
2.910000000000000000e+02,1.033868220471175192e+01
2.920000000000000000e+02,1.037589059506446176e+01
2.930000000000000000e+02,1.041233380782859008e+01
2.940000000000000000e+02,1.044805777078764564e+01
2.950000000000000000e+02,1.048309471376400204e+01
2.960000000000000000e+02,1.051748016948829978e+01
2.970000000000000000e+02,1.055124206708534196e+01
2.980000000000000000e+02,1.058440664349773641e+01
2.990000000000000000e+02,1.061700724156506226e+01
3.000000000000000000e+02,1.064906605246287441e+01
3.010000000000000000e+02,1.068060616806650920e+01
3.020000000000000000e+02,1.071164310248325080e+01
3.030000000000000000e+02,1.074219608018192673e+01
3.040000000000000000e+02,1.077228895090999750e+01
3.050000000000000000e+02,1.080192990964309452e+01
3.060000000000000000e+02,1.083113997200947765e+01
3.070000000000000000e+02,1.085993368108033330e+01
3.080000000000000000e+02,1.088832086756980644e+01
3.090000000000000000e+02,1.091631532439714292e+01
3.100000000000000000e+02,1.094393041108014231e+01
3.110000000000000000e+02,1.097117411138609988e+01
3.120000000000000000e+02,1.099806049400170593e+01
3.130000000000000000e+02,1.102459531536423576e+01
3.140000000000000000e+02,1.105079184754171351e+01
3.150000000000000000e+02,1.107666335857492079e+01
3.160000000000000000e+02,1.110221561558284797e+01
3.170000000000000000e+02,1.112745178725975848e+01
3.180000000000000000e+02,1.115238389224292881e+01
3.190000000000000000e+02,1.117701883069693558e+01
3.200000000000000000e+02,1.120136568397049714e+01
3.210000000000000000e+02,1.122542721664478726e+01
3.220000000000000000e+02,1.124921657160185262e+01
3.230000000000000000e+02,1.127273513002464966e+01
3.240000000000000000e+02,1.129598798687688088e+01
3.250000000000000000e+02,1.131898378432043906e+01
3.260000000000000000e+02,1.134172818106242531e+01
3.270000000000000000e+02,1.136422463928239956e+01
3.280000000000000000e+02,1.138647916418576500e+01
3.290000000000000000e+02,1.140849746774181561e+01
3.300000000000000000e+02,1.143028542400618619e+01
3.310000000000000000e+02,1.145184505097746275e+01
3.320000000000000000e+02,1.147318303210761492e+01
3.330000000000000000e+02,1.149430301128328757e+01
3.340000000000000000e+02,1.151520759197619093e+01
3.350000000000000000e+02,1.153590002810403270e+01
3.360000000000000000e+02,1.155638552787783269e+01
3.370000000000000000e+02,1.157666929875019868e+01
3.380000000000000000e+02,1.159675480786918023e+01
3.390000000000000000e+02,1.161664624201521434e+01
3.400000000000000000e+02,1.163634192584410521e+01
3.410000000000000000e+02,1.165585087804959308e+01
3.420000000000000000e+02,1.167517528654633807e+01
3.430000000000000000e+02,1.169431370388716473e+01
3.440000000000000000e+02,1.171327586690862610e+01
3.450000000000000000e+02,1.173205853395465503e+01
3.460000000000000000e+02,1.175066790443401921e+01
3.470000000000000000e+02,1.176910577904767230e+01
3.480000000000000000e+02,1.178737198831261068e+01
3.490000000000000000e+02,1.180547349429682313e+01
3.500000000000000000e+02,1.182341188910856111e+01
3.510000000000000000e+02,1.184118848616335207e+01
3.520000000000000000e+02,1.185880765414701798e+01
3.530000000000000000e+02,1.187626980078634098e+01
3.540000000000000000e+02,1.189357598273375949e+01
3.550000000000000000e+02,1.191073045419306986e+01
3.560000000000000000e+02,1.192773494420269209e+01
3.570000000000000000e+02,1.194459419025873004e+01
3.580000000000000000e+02,1.196130607835233128e+01
3.590000000000000000e+02,1.197787356946857251e+01
3.600000000000000000e+02,1.199429852695462984e+01
3.610000000000000000e+02,1.201058351718249106e+01
3.620000000000000000e+02,1.202673058645275717e+01
3.630000000000000000e+02,1.204274134905104177e+01
3.640000000000000000e+02,1.205861723476978398e+01
3.650000000000000000e+02,1.207435684186429192e+01
3.660000000000000000e+02,1.208996566426034924e+01
3.670000000000000000e+02,1.210544593802102931e+01
3.680000000000000000e+02,1.212079779903494980e+01
3.690000000000000000e+02,1.213602296576396355e+01
3.700000000000000000e+02,1.215112107257420071e+01
3.710000000000000000e+02,1.216609681348571570e+01
3.720000000000000000e+02,1.218094954521782469e+01
3.730000000000000000e+02,1.219568012092765130e+01
3.740000000000000000e+02,1.221029236396370088e+01
3.750000000000000000e+02,1.222478598309315778e+01
3.760000000000000000e+02,1.223916240418717294e+01
3.770000000000000000e+02,1.225342420441357660e+01
3.780000000000000000e+02,1.226756926533141545e+01
3.790000000000000000e+02,1.228160324396215231e+01
3.800000000000000000e+02,1.229552337877046853e+01
3.810000000000000000e+02,1.230933434542633442e+01
3.820000000000000000e+02,1.232303383575668043e+01
3.830000000000000000e+02,1.233662794161040743e+01
3.840000000000000000e+02,1.235011241302017559e+01
3.850000000000000000e+02,1.236349046139358698e+01
3.860000000000000000e+02,1.237676587768554626e+01
3.870000000000000000e+02,1.238993517236028552e+01
3.880000000000000000e+02,1.240300036042884280e+01
3.890000000000000000e+02,1.241596434730878862e+01
3.900000000000000000e+02,1.242882872228270585e+01
3.910000000000000000e+02,1.244159225990150297e+01
3.920000000000000000e+02,1.245425638262201673e+01
3.930000000000000000e+02,1.246682310035590291e+01
3.940000000000000000e+02,1.247929244908201341e+01
3.950000000000000000e+02,1.249166603651017660e+01
3.960000000000000000e+02,1.250394567895464881e+01
3.970000000000000000e+02,1.251613055992273260e+01
3.980000000000000000e+02,1.252822210352151089e+01
