# Time [s], Convective Heat Transfer Coefficient [W/m2K]
1.000000000000000000e+00,0.000000000000000000e+00
2.000000000000000000e+00,0.000000000000000000e+00
3.000000000000000000e+00,0.000000000000000000e+00
4.000000000000000000e+00,0.000000000000000000e+00
5.000000000000000000e+00,0.000000000000000000e+00
6.000000000000000000e+00,2.412849599104084641e-02
7.000000000000000000e+00,3.748642353082986406e-02
8.000000000000000000e+00,5.780487740346602205e-02
9.000000000000000000e+00,8.320029585720792320e-02
1.000000000000000000e+01,1.142807893115689172e-01
1.100000000000000000e+01,1.511849709313132228e-01
1.200000000000000000e+01,1.933416310773919677e-01
1.300000000000000000e+01,2.403159335554585219e-01
1.400000000000000000e+01,2.915526280001010662e-01
1.500000000000000000e+01,3.464493213822014694e-01
1.600000000000000000e+01,4.043622727015128704e-01
1.700000000000000000e+01,4.647971923917255666e-01
1.800000000000000000e+01,5.272172122564697805e-01
1.900000000000000000e+01,5.911933703814156171e-01
2.000000000000000000e+01,6.563342460843153425e-01
2.100000000000000000e+01,7.223122859604118595e-01
2.200000000000000000e+01,7.888379405927105070e-01
2.300000000000000000e+01,8.556680027340547445e-01
2.400000000000000000e+01,9.225993726337397005e-01
2.500000000000000000e+01,9.894620720011779724e-01
2.600000000000000000e+01,1.056110018228316738e+00
2.700000000000000000e+01,1.122420780526813378e+00
2.800000000000000000e+01,1.188297081412830192e+00
2.900000000000000000e+01,1.253654776104816015e+00
3.000000000000000000e+01,1.318427254400922344e+00
3.100000000000000000e+01,1.382558491719827032e+00
3.200000000000000000e+01,1.446008713204270268e+00
3.300000000000000000e+01,1.508738693794682062e+00
3.400000000000000000e+01,1.570722955087619610e+00
3.500000000000000000e+01,1.631945156685783216e+00
3.600000000000000000e+01,1.692386001998809508e+00
3.700000000000000000e+01,1.752036343498011295e+00
3.800000000000000000e+01,1.810892083018864396e+00
3.900000000000000000e+01,1.868950072636152537e+00
4.000000000000000000e+01,1.926210734598186702e+00
4.100000000000000000e+01,1.982675317559014161e+00
4.200000000000000000e+01,2.038349070325735202e+00
4.300000000000000000e+01,2.093240220007305918e+00
4.400000000000000000e+01,2.147354655694380554e+00
4.500000000000000000e+01,2.200701068610325883e+00
4.600000000000000000e+01,2.253291237248972401e+00
4.700000000000000000e+01,2.305132517332934672e+00
4.800000000000000000e+01,2.356237650671741957e+00
4.900000000000000000e+01,2.406618018197910658e+00
5.000000000000000000e+01,2.456285678702222697e+00
5.100000000000000000e+01,2.505254761712951250e+00
5.200000000000000000e+01,2.553533577259416099e+00
5.300000000000000000e+01,2.601135746651056291e+00
5.400000000000000000e+01,2.648075151641442027e+00
5.500000000000000000e+01,2.694362556511233020e+00
5.600000000000000000e+01,2.740010390358950776e+00
5.700000000000000000e+01,2.785032242820964399e+00
5.800000000000000000e+01,2.829439971454431824e+00
5.900000000000000000e+01,2.873244883183962539e+00
6.000000000000000000e+01,2.916459401430281151e+00
6.100000000000000000e+01,2.959096045137922015e+00
6.200000000000000000e+01,3.001164502202386952e+00
6.300000000000000000e+01,3.042674998820992904e+00
6.400000000000000000e+01,3.083641754561786463e+00
6.500000000000000000e+01,3.124075232322878204e+00
6.600000000000000000e+01,3.163986080905479614e+00
6.700000000000000000e+01,3.203383482337235577e+00
6.800000000000000000e+01,3.242278080822722064e+00
6.900000000000000000e+01,3.280680806433361241e+00
7.000000000000000000e+01,3.318600267135517257e+00
7.100000000000000000e+01,3.356046725986836954e+00
7.200000000000000000e+01,3.393029054144299117e+00
7.300000000000000000e+01,3.429557149263918525e+00
7.400000000000000000e+01,3.465640155480140372e+00
7.500000000000000000e+01,3.501286524878009843e+00
7.600000000000000000e+01,3.536504540414307396e+00
7.700000000000000000e+01,3.571303054005543487e+00
7.800000000000000000e+01,3.605689800398835576e+00
7.900000000000000000e+01,3.639672816428444424e+00
8.000000000000000000e+01,3.673259362928478655e+00
8.100000000000000000e+01,3.706457434065927092e+00
8.200000000000000000e+01,3.739274429522927878e+00
8.300000000000000000e+01,3.771718021485029215e+00
8.400000000000000000e+01,3.803794669126258743e+00
8.500000000000000000e+01,3.835511702271091394e+00
8.600000000000000000e+01,3.866875366672981595e+00
8.700000000000000000e+01,3.897892754511761204e+00
8.800000000000000000e+01,3.928569989540292351e+00
8.900000000000000000e+01,3.958913343032631982e+00
9.000000000000000000e+01,3.988928777642827050e+00
9.100000000000000000e+01,4.018622256879189614e+00
9.200000000000000000e+01,4.048000170705154055e+00
9.300000000000000000e+01,4.077067964590279203e+00
9.400000000000000000e+01,4.105830619988048547e+00
9.500000000000000000e+01,4.134293505763278809e+00
9.600000000000000000e+01,4.162462349863398359e+00
9.700000000000000000e+01,4.190342280406212261e+00
9.800000000000000000e+01,4.217938389815135025e+00
9.900000000000000000e+01,4.245255345963198756e+00
1.000000000000000000e+02,4.272298059057189512e+00
1.010000000000000000e+02,4.299071348654173619e+00
1.020000000000000000e+02,4.325579697978116478e+00
1.030000000000000000e+02,4.351827705972792337e+00
1.040000000000000000e+02,4.377819652044318666e+00
1.050000000000000000e+02,4.403559574389262821e+00
1.060000000000000000e+02,4.429052058928953706e+00
1.070000000000000000e+02,4.454301086692047384e+00
1.080000000000000000e+02,4.479310417237460484e+00
1.090000000000000000e+02,4.504084292764582109e+00
1.100000000000000000e+02,4.528627354480781797e+00
1.110000000000000000e+02,4.552942192922222020e+00
1.120000000000000000e+02,4.577033031874071511e+00
1.130000000000000000e+02,4.600902878170508359e+00
1.140000000000000000e+02,4.624555554303182880e+00
1.150000000000000000e+02,4.647994356576599984e+00
1.160000000000000000e+02,4.671222671341180188e+00
1.170000000000000000e+02,4.694243917327966642e+00
1.180000000000000000e+02,4.717061017941409418e+00
1.190000000000000000e+02,4.739677414924665655e+00
1.200000000000000000e+02,4.762096114741852126e+00
1.210000000000000000e+02,4.784319964572890882e+00
1.220000000000000000e+02,4.806352166327148012e+00
1.230000000000000000e+02,4.828196662335402678e+00
1.240000000000000000e+02,4.849855166177603927e+00
1.250000000000000000e+02,4.871330171654054020e+00
1.260000000000000000e+02,4.892624625172434349e+00
1.270000000000000000e+02,4.913741373022522119e+00
1.280000000000000000e+02,4.934682781217714975e+00
1.290000000000000000e+02,4.955451375456917162e+00
1.300000000000000000e+02,4.976049834559131746e+00
1.310000000000000000e+02,4.996480468533101238e+00
1.320000000000000000e+02,5.016745838283292791e+00
1.330000000000000000e+02,5.036848145858857428e+00
1.340000000000000000e+02,5.056790026990940490e+00
1.350000000000000000e+02,5.076574625155878095e+00
1.360000000000000000e+02,5.096202912991140366e+00
1.370000000000000000e+02,5.115677085241031818e+00
1.380000000000000000e+02,5.134999535940507620e+00
1.390000000000000000e+02,5.154172102063531824e+00
1.400000000000000000e+02,5.173197265208049345e+00
1.410000000000000000e+02,5.192076521590164973e+00
1.420000000000000000e+02,5.210812271497977655e+00
1.430000000000000000e+02,5.229406074960214923e+00
1.440000000000000000e+02,5.247860126694153138e+00
1.450000000000000000e+02,5.266176643164151905e+00
1.460000000000000000e+02,5.284356688289362225e+00
1.470000000000000000e+02,5.302403585318690382e+00
1.480000000000000000e+02,5.320317754081963280e+00
1.490000000000000000e+02,5.338100792909957093e+00
1.500000000000000000e+02,5.355754949916954111e+00
1.510000000000000000e+02,5.373281682893533251e+00
1.520000000000000000e+02,5.390682853262418028e+00
1.530000000000000000e+02,5.407959592557811668e+00
1.540000000000000000e+02,5.425113876817515113e+00
1.550000000000000000e+02,5.442147433039763449e+00
1.560000000000000000e+02,5.459061197192488279e+00
1.570000000000000000e+02,5.475857095392226093e+00
1.580000000000000000e+02,5.492536384149675932e+00
1.590000000000000000e+02,5.509100596376057091e+00
1.600000000000000000e+02,5.525551993327017186e+00
1.610000000000000000e+02,5.541890913382131245e+00
1.620000000000000000e+02,5.558119314530364008e+00
1.630000000000000000e+02,5.574237675914236689e+00
1.640000000000000000e+02,5.590248224319557480e+00
1.650000000000000000e+02,5.606151942157868717e+00
1.660000000000000000e+02,5.621949861950009897e+00
1.670000000000000000e+02,5.637643433285778549e+00
1.680000000000000000e+02,5.653233925343119637e+00
1.690000000000000000e+02,5.668722796240767359e+00
1.700000000000000000e+02,5.684110854720685779e+00
1.710000000000000000e+02,5.699399322775748011e+00
1.720000000000000000e+02,5.714589502089346240e+00
1.730000000000000000e+02,5.729682486789087648e+00
1.740000000000000000e+02,5.744679310869535094e+00
1.750000000000000000e+02,5.759581020409140883e+00
1.760000000000000000e+02,5.774389129733069836e+00
1.770000000000000000e+02,5.789104631594351069e+00
1.780000000000000000e+02,5.803727940964090948e+00
1.790000000000000000e+02,5.818260776831907677e+00
1.800000000000000000e+02,5.832704065397255278e+00
1.810000000000000000e+02,5.847058370599492960e+00
1.820000000000000000e+02,5.861324891125995862e+00
1.830000000000000000e+02,5.875504699111029794e+00
1.840000000000000000e+02,5.889598878267823245e+00
1.850000000000000000e+02,5.903607751204108745e+00
1.860000000000000000e+02,5.917532568879162902e+00
1.870000000000000000e+02,5.931374424182498828e+00
1.880000000000000000e+02,5.945133990760218090e+00
1.890000000000000000e+02,5.958812093183678549e+00
1.900000000000000000e+02,5.972409900459060950e+00
1.910000000000000000e+02,5.985928101573312787e+00
1.920000000000000000e+02,5.999367664395028221e+00
1.930000000000000000e+02,6.012729246698791385e+00
1.940000000000000000e+02,6.026013525445391927e+00
1.950000000000000000e+02,6.039221613645066711e+00
1.960000000000000000e+02,6.052354124205929331e+00
1.970000000000000000e+02,6.065411912638924541e+00
1.980000000000000000e+02,6.078395596663873413e+00
1.990000000000000000e+02,6.091306034553127802e+00
2.000000000000000000e+02,6.104143943113626847e+00
2.010000000000000000e+02,6.116909963279490547e+00
2.020000000000000000e+02,6.129605097920266310e+00
2.030000000000000000e+02,6.142229649489852505e+00
2.040000000000000000e+02,6.154784810384704485e+00
2.050000000000000000e+02,6.167270644447060413e+00
2.060000000000000000e+02,6.179688347425994266e+00
2.070000000000000000e+02,6.192038423053443097e+00
2.080000000000000000e+02,6.204321548339565062e+00
2.090000000000000000e+02,6.216538206705325642e+00
2.100000000000000000e+02,6.228689325434292101e+00
2.110000000000000000e+02,6.240775094921583666e+00
2.120000000000000000e+02,6.252796659585473371e+00
2.130000000000000000e+02,6.264754190769641795e+00
2.140000000000000000e+02,6.276648539519171344e+00
2.150000000000000000e+02,6.288480394939467644e+00
2.160000000000000000e+02,6.300250110343657894e+00
2.170000000000000000e+02,6.311958297167718612e+00
2.180000000000000000e+02,6.323605790957340211e+00
2.190000000000000000e+02,6.335192743142770588e+00
2.200000000000000000e+02,6.346719737841959308e+00
2.210000000000000000e+02,6.358187523444569500e+00
2.220000000000000000e+02,6.369596519217550323e+00
2.230000000000000000e+02,6.380947424966344705e+00
2.240000000000000000e+02,6.392240643132222289e+00
2.250000000000000000e+02,6.403476855022409708e+00
2.260000000000000000e+02,6.414656390102086547e+00
2.270000000000000000e+02,6.425779600685633142e+00
2.280000000000000000e+02,6.436847483119895408e+00
2.290000000000000000e+02,6.447860258984948523e+00
2.300000000000000000e+02,6.458818145961927826e+00
2.310000000000000000e+02,6.469721917229727559e+00
2.320000000000000000e+02,6.480572334714517879e+00
2.330000000000000000e+02,6.491369038126427071e+00
2.340000000000000000e+02,6.502113055518694118e+00
2.350000000000000000e+02,6.512804572636620826e+00
2.360000000000000000e+02,6.523444047043782668e+00
2.370000000000000000e+02,6.534032477907258496e+00
2.380000000000000000e+02,6.544569484178486718e+00
2.390000000000000000e+02,6.555056051050502930e+00
2.400000000000000000e+02,6.565492607240265066e+00
2.410000000000000000e+02,6.575879033852838340e+00
2.420000000000000000e+02,6.586216562010386077e+00
2.430000000000000000e+02,6.596504792582921439e+00
2.440000000000000000e+02,6.606744403390503173e+00
2.450000000000000000e+02,6.616936063134845725e+00
2.460000000000000000e+02,6.627079898505232158e+00
2.470000000000000000e+02,6.637176299659969914e+00
2.480000000000000000e+02,6.647225916242872401e+00
2.490000000000000000e+02,6.657228596977498469e+00
2.500000000000000000e+02,6.667185508422281082e+00
2.510000000000000000e+02,6.677096227198288325e+00
2.520000000000000000e+02,6.686961643204208272e+00
2.530000000000000000e+02,6.696781591121459876e+00
2.540000000000000000e+02,6.706556687683108642e+00
2.550000000000000000e+02,6.716287801307293748e+00
2.560000000000000000e+02,6.725974495950617360e+00
2.570000000000000000e+02,6.735617888063128333e+00
2.580000000000000000e+02,6.745217537016276133e+00
2.590000000000000000e+02,6.754774032795998195e+00
2.600000000000000000e+02,6.764287702276760683e+00
2.610000000000000000e+02,6.773758868060649974e+00
2.620000000000000000e+02,6.783188102968018995e+00
2.630000000000000000e+02,6.792575465463097650e+00
2.640000000000000000e+02,6.801921265799003358e+00
2.650000000000000000e+02,6.811225810250682855e+00
2.660000000000000000e+02,6.820489652823728655e+00
2.670000000000000000e+02,6.829713090006274356e+00
2.680000000000000000e+02,6.838896164259960386e+00
2.690000000000000000e+02,6.848039416279659619e+00
2.700000000000000000e+02,6.857142882552273555e+00
2.710000000000000000e+02,6.866206846940702491e+00
2.720000000000000000e+02,6.875231589784682740e+00
2.730000000000000000e+02,6.884217634962286780e+00
2.740000000000000000e+02,6.893165254021971222e+00
2.750000000000000000e+02,6.902074469469750895e+00
2.760000000000000000e+02,6.910945793261810799e+00
2.770000000000000000e+02,6.919779242675284436e+00
2.780000000000000000e+02,6.928575322012784810e+00
2.790000000000000000e+02,6.937334529982878806e+00
2.800000000000000000e+02,6.946056631929860892e+00
2.810000000000000000e+02,6.954741879105656110e+00
2.820000000000000000e+02,6.963390519779602883e+00
2.830000000000000000e+02,6.972003521749624788e+00
2.840000000000000000e+02,6.980580401452050943e+00
2.850000000000000000e+02,6.989121638178075635e+00
2.860000000000000000e+02,6.997627467033117554e+00
2.870000000000000000e+02,7.006097881914929104e+00
2.880000000000000000e+02,7.014533590061071244e+00
2.890000000000000000e+02,7.022934579469949590e+00
2.900000000000000000e+02,7.031301074601962853e+00
2.910000000000000000e+02,7.039633297359415565e+00
2.920000000000000000e+02,7.047931467126155702e+00
2.930000000000000000e+02,7.056196271023314814e+00
2.940000000000000000e+02,7.064426747423865116e+00
2.950000000000000000e+02,7.072624283389290945e+00
2.960000000000000000e+02,7.080788618405937207e+00
2.970000000000000000e+02,7.088920192788053853e+00
2.980000000000000000e+02,7.097019210016427770e+00
2.990000000000000000e+02,7.105085407565304934e+00
3.000000000000000000e+02,7.113119913055317767e+00
3.010000000000000000e+02,7.121121766006242915e+00
3.020000000000000000e+02,7.129091856761129442e+00
3.030000000000000000e+02,7.137030148090071080e+00
3.040000000000000000e+02,7.144937519937899495e+00
3.050000000000000000e+02,7.152813242525575710e+00
3.060000000000000000e+02,7.160657961910812830e+00
3.070000000000000000e+02,7.168472318140971744e+00
3.080000000000000000e+02,7.176255581508982573e+00
3.090000000000000000e+02,7.184008162351030791e+00
3.100000000000000000e+02,7.191730467111050906e+00
3.110000000000000000e+02,7.199423350097025498e+00
3.120000000000000000e+02,7.207085855073263936e+00
3.130000000000000000e+02,7.214718832696989992e+00
3.140000000000000000e+02,7.222322452857946828e+00
3.150000000000000000e+02,7.229895987905953447e+00
3.160000000000000000e+02,7.237440727253916073e+00
3.170000000000000000e+02,7.244956834180344529e+00
3.180000000000000000e+02,7.252443802633684378e+00
3.190000000000000000e+02,7.259902018808837454e+00
3.200000000000000000e+02,7.267331865414043079e+00
3.210000000000000000e+02,7.274733500530000896e+00
3.220000000000000000e+02,7.282106859901526619e+00
3.230000000000000000e+02,7.289452099787731676e+00
3.240000000000000000e+02,7.296769814605896798e+00
3.250000000000000000e+02,7.304059935454292329e+00
3.260000000000000000e+02,7.311322612674223897e+00
3.270000000000000000e+02,7.318557776569014628e+00
3.280000000000000000e+02,7.325766012069134803e+00
3.290000000000000000e+02,7.332947028439003923e+00
3.300000000000000000e+02,7.340101188746250394e+00
3.310000000000000000e+02,7.347228852949332811e+00
3.320000000000000000e+02,7.354329728645421227e+00
3.330000000000000000e+02,7.361404173455881050e+00
3.340000000000000000e+02,7.368452541981087123e+00
3.350000000000000000e+02,7.375474970651629825e+00
3.360000000000000000e+02,7.382471594596809794e+00
3.370000000000000000e+02,7.389442118899505196e+00
3.380000000000000000e+02,7.396386892529432266e+00
3.390000000000000000e+02,7.403306261574031488e+00
3.400000000000000000e+02,7.410200782462214697e+00
3.410000000000000000e+02,7.417069730524417537e+00
3.420000000000000000e+02,7.423913235770077002e+00
3.430000000000000000e+02,7.430732063004278132e+00
3.440000000000000000e+02,7.437526336328315502e+00
3.450000000000000000e+02,7.444295967465448527e+00
3.460000000000000000e+02,7.451040657686462509e+00
3.470000000000000000e+02,7.457761162525552656e+00
3.480000000000000000e+02,7.464457181373323813e+00
3.490000000000000000e+02,7.471129464125272790e+00
3.500000000000000000e+02,7.477777917716841749e+00
3.510000000000000000e+02,7.484402240541436768e+00
3.520000000000000000e+02,7.491002341495308414e+00
3.530000000000000000e+02,7.497579171081613758e+00
3.540000000000000000e+02,7.504132841410024568e+00
3.550000000000000000e+02,7.510663048558944510e+00
3.560000000000000000e+02,7.517169904808738146e+00
3.570000000000000000e+02,7.523653314638453438e+00
3.580000000000000000e+02,7.530114215187116322e+00
3.590000000000000000e+02,7.536552300402650673e+00
3.600000000000000000e+02,7.542967266109662283e+00
3.610000000000000000e+02,7.549359631556613159e+00
3.620000000000000000e+02,7.555729707218609370e+00
3.630000000000000000e+02,7.562076982457465846e+00
3.640000000000000000e+02,7.568402584742798034e+00
3.650000000000000000e+02,7.574705389575211001e+00
3.660000000000000000e+02,7.580986520244957561e+00
3.670000000000000000e+02,7.587245668970084900e+00
3.680000000000000000e+02,7.593482935826485480e+00
3.690000000000000000e+02,7.599698420032989787e+00
3.700000000000000000e+02,7.605892422313957901e+00
3.710000000000000000e+02,7.612064837194584044e+00
3.720000000000000000e+02,7.618215963085304132e+00
3.730000000000000000e+02,7.624345693532216472e+00
3.740000000000000000e+02,7.630454324676857247e+00
3.750000000000000000e+02,7.636541949847012845e+00
3.760000000000000000e+02,7.642608461177131218e+00
3.770000000000000000e+02,7.648654351586443134e+00
3.780000000000000000e+02,7.654679111793323720e+00
3.790000000000000000e+02,7.660683432340687382e+00
3.800000000000000000e+02,7.666667202639542822e+00
3.810000000000000000e+02,7.672630312611739889e+00
3.820000000000000000e+02,7.678573248300792464e+00
3.830000000000000000e+02,7.684495897867806846e+00
3.840000000000000000e+02,7.690398545847548561e+00
3.850000000000000000e+02,7.696280881976072408e+00
3.860000000000000000e+02,7.702143189687989278e+00
3.870000000000000000e+02,7.707985750520763624e+00
3.880000000000000000e+02,7.713808647408641583e+00
3.890000000000000000e+02,7.719611766185087376e+00
3.900000000000000000e+02,7.725395385482530131e+00
3.910000000000000000e+02,7.731159390405294651e+00
3.920000000000000000e+02,7.736904057691362802e+00
3.930000000000000000e+02,7.742629271737260233e+00
3.940000000000000000e+02,7.748335697383005538e+00
3.950000000000000000e+02,7.754022827232064152e+00
3.960000000000000000e+02,7.759690545522729188e+00
3.970000000000000000e+02,7.765339707644221434e+00
3.980000000000000000e+02,7.770969806933898383e+00
