# Time [s], Convective Heat Transfer Coefficient [W/m2K]
1.000000000000000000e+00,0.000000000000000000e+00
2.000000000000000000e+00,0.000000000000000000e+00
3.000000000000000000e+00,0.000000000000000000e+00
4.000000000000000000e+00,0.000000000000000000e+00
5.000000000000000000e+00,1.915079995362458862e-02
6.000000000000000000e+00,2.762023300960968902e-02
7.000000000000000000e+00,4.559999999962457279e-02
8.000000000000000000e+00,6.886595442038928594e-02
9.000000000000000000e+00,9.860474257408465004e-02
1.000000000000000000e+01,1.344452984119085259e-01
1.100000000000000000e+01,1.763615597633671761e-01
1.200000000000000000e+01,2.240124448868270890e-01
1.300000000000000000e+01,2.766466077397899404e-01
1.400000000000000000e+01,3.336235428601703190e-01
1.500000000000000000e+01,3.942533555624802011e-01
1.600000000000000000e+01,4.578725958244201366e-01
1.700000000000000000e+01,5.238774883645240799e-01
1.800000000000000000e+01,5.917421414135145552e-01
1.900000000000000000e+01,6.609967755234009701e-01
2.000000000000000000e+01,7.312434019887477099e-01
2.100000000000000000e+01,8.021436829153671955e-01
2.200000000000000000e+01,8.734028939847863215e-01
2.300000000000000000e+01,9.447888751912536520e-01
2.400000000000000000e+01,1.016089989590496678e+00
2.500000000000000000e+01,1.087145901926102942e+00
2.600000000000000000e+01,1.157816001302582665e+00
2.700000000000000000e+01,1.227982167827718074e+00
2.800000000000000000e+01,1.297554677477975149e+00
2.900000000000000000e+01,1.366459500468476973e+00
3.000000000000000000e+01,1.434634689223056148e+00
3.100000000000000000e+01,1.502031791355835644e+00
3.200000000000000000e+01,1.568614420390922914e+00
3.300000000000000000e+01,1.634355110128320687e+00
3.400000000000000000e+01,1.699231884248670665e+00
3.500000000000000000e+01,1.763231628445722343e+00
3.600000000000000000e+01,1.826345944424218048e+00
3.700000000000000000e+01,1.888568405750858270e+00
3.800000000000000000e+01,1.949900740134449473e+00
3.900000000000000000e+01,2.010341425841391416e+00
4.000000000000000000e+01,2.069898551864254976e+00
4.100000000000000000e+01,2.128576564858614795e+00
4.200000000000000000e+01,2.186387155971127871e+00
4.300000000000000000e+01,2.243338541493844485e+00
4.400000000000000000e+01,2.299440419050058360e+00
4.500000000000000000e+01,2.354708003375670877e+00
4.600000000000000000e+01,2.409153486548376577e+00
4.700000000000000000e+01,2.462790498451783883e+00
4.800000000000000000e+01,2.515631746906027200e+00
4.900000000000000000e+01,2.567692736146194310e+00
5.000000000000000000e+01,2.618986271154304823e+00
5.100000000000000000e+01,2.669529042494198645e+00
5.200000000000000000e+01,2.719334445786905974e+00
5.300000000000000000e+01,2.768416538804760130e+00
5.400000000000000000e+01,2.816789220701966023e+00
5.500000000000000000e+01,2.864469146848640069e+00
5.600000000000000000e+01,2.911468561876411343e+00
5.700000000000000000e+01,2.957802184867492024e+00
5.800000000000000000e+01,3.003482994457385313e+00
5.900000000000000000e+01,3.048524805622663703e+00
6.000000000000000000e+01,3.092941229632756084e+00
6.100000000000000000e+01,3.136745168228534109e+00
6.200000000000000000e+01,3.179950477609653881e+00
6.300000000000000000e+01,3.222569203171736341e+00
6.400000000000000000e+01,3.264613306369056556e+00
6.500000000000000000e+01,3.306094636653242880e+00
6.600000000000000000e+01,3.347024910289245536e+00
6.700000000000000000e+01,3.387416102799976958e+00
6.800000000000000000e+01,3.427279194757834269e+00
6.900000000000000000e+01,3.466625524961312710e+00
7.000000000000000000e+01,3.505465013078542302e+00
7.100000000000000000e+01,3.543808808360017437e+00
7.200000000000000000e+01,3.581666586157939314e+00
7.300000000000000000e+01,3.619049006425881121e+00
7.400000000000000000e+01,3.655965146940014510e+00
7.500000000000000000e+01,3.692424963377266778e+00
7.600000000000000000e+01,3.728437760526378320e+00
7.700000000000000000e+01,3.764012407648629654e+00
7.800000000000000000e+01,3.799158017185253922e+00
7.900000000000000000e+01,3.833880966813941082e+00
8.000000000000000000e+01,3.868191078504814140e+00
8.100000000000000000e+01,3.902096314633873408e+00
8.200000000000000000e+01,3.935605272443161606e+00
8.300000000000000000e+01,3.968725192691823445e+00
8.400000000000000000e+01,4.001463892701183411e+00
8.500000000000000000e+01,4.033828707829265170e+00
8.600000000000000000e+01,4.065826524872382386e+00
8.700000000000000000e+01,4.097464718884567425e+00
8.800000000000000000e+01,4.128749807750756950e+00
8.900000000000000000e+01,4.159687309642877473e+00
9.000000000000000000e+01,4.190284812717176344e+00
9.100000000000000000e+01,4.220548603860104109e+00
9.200000000000000000e+01,4.250485183658652133e+00
9.300000000000000000e+01,4.280100163199325181e+00
9.400000000000000000e+01,4.309399646311244503e+00
9.500000000000000000e+01,4.338389324104959144e+00
9.600000000000000000e+01,4.367073702643079258e+00
9.700000000000000000e+01,4.395459207347473196e+00
9.800000000000000000e+01,4.423551188248715071e+00
9.900000000000000000e+01,4.451354813456211090e+00
1.000000000000000000e+02,4.478875312794167840e+00
1.010000000000000000e+02,4.506117512039859108e+00
1.020000000000000000e+02,4.533085343546493284e+00
1.030000000000000000e+02,4.559784374989260591e+00
1.040000000000000000e+02,4.586219154305557488e+00
1.050000000000000000e+02,4.612394422851943787e+00
1.060000000000000000e+02,4.638314777737237549e+00
1.070000000000000000e+02,4.663982849843817391e+00
1.080000000000000000e+02,4.689404413771703695e+00
1.090000000000000000e+02,4.714583216242722585e+00
1.100000000000000000e+02,4.739523532334551703e+00
1.110000000000000000e+02,4.764229106403442771e+00
1.120000000000000000e+02,4.788704046968705441e+00
1.130000000000000000e+02,4.812950786907332024e+00
1.140000000000000000e+02,4.836974169251082145e+00
1.150000000000000000e+02,4.860777712134136230e+00
1.160000000000000000e+02,4.884364997953399623e+00
1.170000000000000000e+02,4.907739378731451829e+00
1.180000000000000000e+02,4.930903361122021877e+00
1.190000000000000000e+02,4.953861173673574925e+00
1.200000000000000000e+02,4.976615899405801180e+00
1.210000000000000000e+02,4.999170652011135196e+00
1.220000000000000000e+02,5.021528853113776947e+00
1.230000000000000000e+02,5.043692194177524790e+00
1.240000000000000000e+02,5.065664862909760480e+00
1.250000000000000000e+02,5.087449591878325350e+00
1.260000000000000000e+02,5.109049155606290249e+00
1.270000000000000000e+02,5.130466235521974561e+00
1.280000000000000000e+02,5.151703159305180968e+00
1.290000000000000000e+02,5.172763052875308354e+00
1.300000000000000000e+02,5.193648376293027447e+00
1.310000000000000000e+02,5.214362156000523107e+00
1.320000000000000000e+02,5.234906168703827412e+00
1.330000000000000000e+02,5.255283024590017504e+00
1.340000000000000000e+02,5.275495083878832148e+00
1.350000000000000000e+02,5.295545134410566845e+00
1.360000000000000000e+02,5.315435340066397174e+00
1.370000000000000000e+02,5.335168086648227614e+00
1.380000000000000000e+02,5.354744708337865866e+00
1.390000000000000000e+02,5.374168079318462965e+00
1.400000000000000000e+02,5.393440104018417891e+00
1.410000000000000000e+02,5.412563469906713998e+00
1.420000000000000000e+02,5.431540271211151349e+00
1.430000000000000000e+02,5.450371202224284950e+00
1.440000000000000000e+02,5.469059205832596859e+00
1.450000000000000000e+02,5.487605821178702215e+00
1.460000000000000000e+02,5.506013779432461064e+00
1.470000000000000000e+02,5.524284241074775004e+00
1.480000000000000000e+02,5.542418943524386243e+00
1.490000000000000000e+02,5.560419576696319588e+00
1.500000000000000000e+02,5.578288612287809478e+00
1.510000000000000000e+02,5.596027372752182316e+00
1.520000000000000000e+02,5.613637367781379339e+00
1.530000000000000000e+02,5.631120953057475731e+00
1.540000000000000000e+02,5.648478442597160587e+00
1.550000000000000000e+02,5.665712364800617351e+00
1.560000000000000000e+02,5.682824097158368559e+00
1.570000000000000000e+02,5.699815558357793854e+00
1.580000000000000000e+02,5.716687974570329622e+00
1.590000000000000000e+02,5.733443181874176453e+00
1.600000000000000000e+02,5.750081590636376916e+00
1.610000000000000000e+02,5.766605465125343777e+00
1.620000000000000000e+02,5.783015930653346182e+00
1.630000000000000000e+02,5.799314676560908488e+00
1.640000000000000000e+02,5.815503317579620912e+00
1.650000000000000000e+02,5.831582363422584514e+00
1.660000000000000000e+02,5.847553371631903474e+00
1.670000000000000000e+02,5.863417863685218556e+00
1.680000000000000000e+02,5.879177089067399109e+00
1.690000000000000000e+02,5.894832470588474926e+00
1.700000000000000000e+02,5.910385231329373212e+00
1.710000000000000000e+02,5.925836166643890124e+00
1.720000000000000000e+02,5.941186484400662771e+00
1.730000000000000000e+02,5.956437266556928734e+00
1.740000000000000000e+02,5.971590293134482863e+00
1.750000000000000000e+02,5.986646097720069726e+00
1.760000000000000000e+02,6.001606241177618983e+00
1.770000000000000000e+02,6.016471960389206508e+00
1.780000000000000000e+02,6.031243210944198907e+00
1.790000000000000000e+02,6.045921932824443346e+00
1.800000000000000000e+02,6.060509038614558364e+00
1.810000000000000000e+02,6.075005453245623244e+00
1.820000000000000000e+02,6.089412555736084087e+00
1.830000000000000000e+02,6.103730943209084714e+00
1.840000000000000000e+02,6.117961950408266958e+00
1.850000000000000000e+02,6.132105920527079590e+00
1.860000000000000000e+02,6.146164118311062019e+00
1.870000000000000000e+02,6.160137382685157093e+00
1.880000000000000000e+02,6.174026658519294664e+00
1.890000000000000000e+02,6.187833208339481139e+00
1.900000000000000000e+02,6.201557509640953647e+00
1.910000000000000000e+02,6.215200545002794286e+00
1.920000000000000000e+02,6.228763700593363595e+00
1.930000000000000000e+02,6.242246474366965003e+00
1.940000000000000000e+02,6.255650495105725462e+00
1.950000000000000000e+02,6.268976617546740293e+00
1.960000000000000000e+02,6.282225769383710912e+00
1.970000000000000000e+02,6.295398300005057735e+00
1.980000000000000000e+02,6.308495492698541263e+00
1.990000000000000000e+02,6.321517992889896576e+00
2.000000000000000000e+02,6.334466579818190723e+00
2.010000000000000000e+02,6.347341815202853788e+00
2.020000000000000000e+02,6.360144279188343575e+00
2.030000000000000000e+02,6.372874512362032284e+00
2.040000000000000000e+02,6.385533935254339433e+00
2.050000000000000000e+02,6.398122886548370580e+00
2.060000000000000000e+02,6.410641755230868988e+00
2.070000000000000000e+02,6.423092001086403435e+00
2.080000000000000000e+02,6.435473816398824098e+00
2.090000000000000000e+02,6.447787896033315924e+00
2.100000000000000000e+02,6.460035203499047363e+00
2.110000000000000000e+02,6.472215568703572508e+00
2.120000000000000000e+02,6.484330493265819229e+00
2.130000000000000000e+02,6.496379790983008107e+00
2.140000000000000000e+02,6.508364382581869556e+00
2.150000000000000000e+02,6.520284898717998878e+00
2.160000000000000000e+02,6.532142234011602433e+00
2.170000000000000000e+02,6.543936995625296404e+00
2.180000000000000000e+02,6.555669236103511821e+00
2.190000000000000000e+02,6.567340091740917707e+00
2.200000000000000000e+02,6.578949599803648240e+00
2.210000000000000000e+02,6.590498604441882513e+00
2.220000000000000000e+02,6.601987936920863831e+00
2.230000000000000000e+02,6.613417880627978640e+00
2.240000000000000000e+02,6.624788713991610400e+00
2.250000000000000000e+02,6.636101508024232487e+00
2.260000000000000000e+02,6.647355993575989608e+00
2.270000000000000000e+02,6.658552960201228110e+00
2.280000000000000000e+02,6.669692922701141669e+00
2.290000000000000000e+02,6.680776650292308716e+00
2.300000000000000000e+02,6.691804639630858809e+00
2.310000000000000000e+02,6.702777119333382494e+00
2.320000000000000000e+02,6.713694833490324143e+00
2.330000000000000000e+02,6.724557997867946391e+00
2.340000000000000000e+02,6.735367082559625906e+00
2.350000000000000000e+02,6.746122807936671961e+00
2.360000000000000000e+02,6.756825371506298694e+00
2.370000000000000000e+02,6.767475478578827364e+00
2.380000000000000000e+02,6.778073569939846443e+00
2.390000000000000000e+02,6.788619572003475433e+00
2.400000000000000000e+02,6.799114677340622137e+00
2.410000000000000000e+02,6.809558548323353833e+00
2.420000000000000000e+02,6.819952360677769221e+00
2.430000000000000000e+02,6.830295769525947414e+00
2.440000000000000000e+02,6.840589684140625515e+00
2.450000000000000000e+02,6.850834503249455310e+00
2.460000000000000000e+02,6.861030122689689037e+00
2.470000000000000000e+02,6.871177678434894354e+00
2.480000000000000000e+02,6.881277056251587254e+00
2.490000000000000000e+02,6.891328635462361518e+00
2.500000000000000000e+02,6.901333035992736953e+00
2.510000000000000000e+02,6.911290379717075716e+00
2.520000000000000000e+02,6.921201275106513506e+00
2.530000000000000000e+02,6.931066079283820791e+00
2.540000000000000000e+02,6.940884901619395642e+00
2.550000000000000000e+02,6.950657849534523258e+00
2.560000000000000000e+02,6.960386236653688385e+00
2.570000000000000000e+02,6.970069433645951662e+00
2.580000000000000000e+02,6.979708499487276008e+00
2.590000000000000000e+02,6.989303282668577033e+00
2.600000000000000000e+02,6.998854349598720326e+00
2.610000000000000000e+02,7.008362021532330566e+00
2.620000000000000000e+02,7.017826615598190543e+00
2.630000000000000000e+02,7.027248207821933157e+00
2.640000000000000000e+02,7.036627582025788641e+00
2.650000000000000000e+02,7.045964805701064648e+00
2.660000000000000000e+02,7.055260180178618334e+00
2.670000000000000000e+02,7.064514237563561672e+00
2.680000000000000000e+02,7.073726801968766686e+00
2.690000000000000000e+02,7.082898865423563173e+00
2.700000000000000000e+02,7.092030012698277375e+00
2.710000000000000000e+02,7.101120760810156973e+00
2.720000000000000000e+02,7.110171389359761562e+00
2.730000000000000000e+02,7.119182636466683256e+00
2.740000000000000000e+02,7.128154080316641661e+00
2.750000000000000000e+02,7.137086451812018950e+00
2.760000000000000000e+02,7.145980015530424723e+00
2.770000000000000000e+02,7.154834804211573029e+00
2.780000000000000000e+02,7.163651305945549552e+00
2.790000000000000000e+02,7.172429548397945887e+00
2.800000000000000000e+02,7.181170012425841520e+00
2.810000000000000000e+02,7.189872720801298911e+00
2.820000000000000000e+02,7.198538147360854289e+00
2.830000000000000000e+02,7.207166760879686329e+00
2.840000000000000000e+02,7.215758575508909090e+00
2.850000000000000000e+02,7.224313829063609305e+00
2.860000000000000000e+02,7.232832532853969987e+00
2.870000000000000000e+02,7.241315144071760912e+00
2.880000000000000000e+02,7.249762337871434426e+00
2.890000000000000000e+02,7.258173671639005065e+00
2.900000000000000000e+02,7.266549593152336506e+00
2.910000000000000000e+02,7.274890324414019283e+00
2.920000000000000000e+02,7.283196526293973960e+00
2.930000000000000000e+02,7.291468192659133152e+00
2.940000000000000000e+02,7.299705536672458805e+00
2.950000000000000000e+02,7.307908549944240661e+00
2.960000000000000000e+02,7.316077661119841480e+00
2.970000000000000000e+02,7.324212858156233352e+00
2.980000000000000000e+02,7.332314781884889499e+00
2.990000000000000000e+02,7.340383632552851978e+00
3.000000000000000000e+02,7.348418741112819674e+00
3.010000000000000000e+02,7.356421390710754515e+00
3.020000000000000000e+02,7.364391342051240130e+00
3.030000000000000000e+02,7.372328572877746566e+00
3.040000000000000000e+02,7.380233705461544780e+00
3.050000000000000000e+02,7.388106927438848004e+00
3.060000000000000000e+02,7.395947996451554651e+00
3.070000000000000000e+02,7.403757953109765921e+00
3.080000000000000000e+02,7.411536337153635579e+00
3.090000000000000000e+02,7.419283755096451216e+00
3.100000000000000000e+02,7.426999534714130213e+00
3.110000000000000000e+02,7.434684914985830062e+00
3.120000000000000000e+02,7.442339222204402915e+00
3.130000000000000000e+02,7.449963475115197298e+00
3.140000000000000000e+02,7.457556789441371237e+00
3.150000000000000000e+02,7.465120388283851938e+00
3.160000000000000000e+02,7.472654017068061094e+00
3.170000000000000000e+02,7.480157841343094915e+00
3.180000000000000000e+02,7.487632442571443114e+00
3.190000000000000000e+02,7.495077355341765113e+00
3.200000000000000000e+02,7.502493157430509818e+00
3.210000000000000000e+02,7.509880214156160250e+00
3.220000000000000000e+02,7.517238059026378316e+00
3.230000000000000000e+02,7.524567055857419362e+00
3.240000000000000000e+02,7.531867771650576415e+00
3.250000000000000000e+02,7.539140150842966293e+00
3.260000000000000000e+02,7.546383932423171181e+00
3.270000000000000000e+02,7.553600293200212867e+00
3.280000000000000000e+02,7.560788762509163874e+00
3.290000000000000000e+02,7.567949077336156627e+00
3.300000000000000000e+02,7.575081996343830504e+00
3.310000000000000000e+02,7.582187864944105904e+00
3.320000000000000000e+02,7.589266212708455583e+00
3.330000000000000000e+02,7.596317180995832530e+00
3.340000000000000000e+02,7.603341517275333139e+00
3.350000000000000000e+02,7.610339356862484195e+00
3.360000000000000000e+02,7.617310430302485003e+00
3.370000000000000000e+02,7.624255073956159201e+00
3.380000000000000000e+02,7.631173420436493160e+00
3.390000000000000000e+02,7.638065400461433008e+00
3.400000000000000000e+02,7.644931545836393560e+00
3.410000000000000000e+02,7.651771584543118898e+00
3.420000000000000000e+02,7.658586044536404458e+00
3.430000000000000000e+02,7.665375051299195164e+00
3.440000000000000000e+02,7.672138729160326243e+00
3.450000000000000000e+02,7.678876804259771482e+00
3.460000000000000000e+02,7.685589797096209708e+00
3.470000000000000000e+02,7.692277432940624493e+00
3.480000000000000000e+02,7.698940623650538662e+00
3.490000000000000000e+02,7.705579091624557009e+00
3.500000000000000000e+02,7.712192757732075243e+00
3.510000000000000000e+02,7.718781739604080983e+00
3.520000000000000000e+02,7.725346546099379097e+00
3.530000000000000000e+02,7.731887094942099026e+00
3.540000000000000000e+02,7.738403499648026873e+00
3.550000000000000000e+02,7.744896067878159762e+00
3.560000000000000000e+02,7.751365104993910293e+00
3.570000000000000000e+02,7.757809941562917366e+00
3.580000000000000000e+02,7.764231271633587284e+00
3.590000000000000000e+02,7.770629008976633223e+00
3.600000000000000000e+02,7.777003648332923014e+00
3.610000000000000000e+02,7.783355101285491351e+00
3.620000000000000000e+02,7.789683279766457247e+00
3.630000000000000000e+02,7.795988481258059544e+00
3.640000000000000000e+02,7.802271001094299940e+00
3.650000000000000000e+02,7.808530364543718960e+00
3.660000000000000000e+02,7.814767633127693180e+00
3.670000000000000000e+02,7.820982330383249526e+00
3.680000000000000000e+02,7.827174173729025242e+00
3.690000000000000000e+02,7.833344217549207400e+00
3.700000000000000000e+02,7.839491604656344315e+00
3.710000000000000000e+02,7.845617384771474967e+00
3.720000000000000000e+02,7.851720891942536973e+00
3.730000000000000000e+02,7.857802791245552143e+00
3.740000000000000000e+02,7.863862986263228549e+00
3.750000000000000000e+02,7.869901380968785887e+00
3.760000000000000000e+02,7.875918257148020629e+00
3.770000000000000000e+02,7.881914083092766532e+00
3.780000000000000000e+02,7.887888195198645924e+00
3.790000000000000000e+02,7.893841248687510692e+00
3.800000000000000000e+02,7.899773144328615437e+00
3.810000000000000000e+02,7.905684345181964723e+00
3.820000000000000000e+02,7.911574563281421391e+00
3.830000000000000000e+02,7.917444072404707711e+00
3.840000000000000000e+02,7.923292771588505090e+00
3.850000000000000000e+02,7.929120560274593998e+00
3.860000000000000000e+02,7.934928267895998921e+00
3.870000000000000000e+02,7.940715604968616503e+00
3.880000000000000000e+02,7.946482654269952484e+00
3.890000000000000000e+02,7.952229312804725225e+00
3.900000000000000000e+02,7.957956217365741658e+00
3.910000000000000000e+02,7.963663078012614527e+00
3.920000000000000000e+02,7.969349974920800328e+00
3.930000000000000000e+02,7.975016987631047272e+00
3.940000000000000000e+02,7.980664378850050866e+00
3.950000000000000000e+02,7.986292042556988768e+00
3.960000000000000000e+02,7.991900422987348485e+00
3.970000000000000000e+02,7.997489412654648966e+00
3.980000000000000000e+02,8.003058721738620207e+00
