# Time [s], Convective Heat Transfer Coefficient [W/m2K]
1.000000000000000000e+00,0.000000000000000000e+00
2.000000000000000000e+00,0.000000000000000000e+00
3.000000000000000000e+00,0.000000000000000000e+00
4.000000000000000000e+00,0.000000000000000000e+00
5.000000000000000000e+00,0.000000000000000000e+00
6.000000000000000000e+00,0.000000000000000000e+00
7.000000000000000000e+00,1.915079995362458862e-02
8.000000000000000000e+00,3.040000000141642594e-02
9.000000000000000000e+00,4.322677809297574558e-02
1.000000000000000000e+01,6.048166956028514646e-02
1.100000000000000000e+01,8.182483170381224524e-02
1.200000000000000000e+01,1.070168253740379077e-01
1.300000000000000000e+01,1.354736006811268212e-01
1.400000000000000000e+01,1.672837046447254727e-01
1.500000000000000000e+01,2.021417527389425817e-01
1.600000000000000000e+01,2.395840023209567515e-01
1.700000000000000000e+01,2.793878107904065877e-01
1.800000000000000000e+01,3.211753543255680965e-01
1.900000000000000000e+01,3.646151841617472078e-01
2.000000000000000000e+01,4.094525928313752505e-01
2.100000000000000000e+01,4.554024766315580841e-01
2.200000000000000000e+01,5.022505180932907987e-01
2.300000000000000000e+01,5.498030298536649152e-01
2.400000000000000000e+01,5.978632704330059111e-01
2.500000000000000000e+01,6.462870419877824180e-01
2.600000000000000000e+01,6.949407101874272019e-01
2.700000000000000000e+01,7.437031752321545675e-01
2.800000000000000000e+01,7.924781603962045562e-01
2.900000000000000000e+01,8.411736029577238094e-01
3.000000000000000000e+01,8.897213880384966522e-01
3.100000000000000000e+01,9.380540788814947240e-01
3.200000000000000000e+01,9.861244734874664575e-01
3.300000000000000000e+01,1.033882621676436964e+00
3.400000000000000000e+01,1.081288556122375510e+00
3.500000000000000000e+01,1.128316968482522942e+00
3.600000000000000000e+01,1.174935479707657882e+00
3.700000000000000000e+01,1.221121854529096717e+00
3.800000000000000000e+01,1.266860926650600572e+00
3.900000000000000000e+01,1.312139057935823860e+00
4.000000000000000000e+01,1.356945646559351681e+00
4.100000000000000000e+01,1.401269250594480598e+00
4.200000000000000000e+01,1.445106800562926175e+00
4.300000000000000000e+01,1.488451148052079898e+00
4.400000000000000000e+01,1.531301575072650634e+00
4.500000000000000000e+01,1.573656823934704851e+00
4.600000000000000000e+01,1.615516915040210888e+00
4.700000000000000000e+01,1.656885285849046374e+00
4.800000000000000000e+01,1.697761373197689272e+00
4.900000000000000000e+01,1.738148774658489604e+00
5.000000000000000000e+01,1.778053123472904451e+00
5.100000000000000000e+01,1.817478003677061915e+00
5.200000000000000000e+01,1.856427988299138576e+00
5.300000000000000000e+01,1.894907373477058066e+00
5.400000000000000000e+01,1.932924219709179603e+00
5.500000000000000000e+01,1.970482025533226045e+00
5.600000000000000000e+01,2.007588032245198217e+00
5.700000000000000000e+01,2.044249132282092152e+00
5.800000000000000000e+01,2.080470779709565843e+00
5.900000000000000000e+01,2.116259260731287117e+00
6.000000000000000000e+01,2.151621756438052202e+00
6.100000000000000000e+01,2.186565170080454923e+00
6.200000000000000000e+01,2.221094934938297349e+00
6.300000000000000000e+01,2.255219333665147818e+00
6.400000000000000000e+01,2.288943679940870446e+00
6.500000000000000000e+01,2.322275261092118459e+00
6.600000000000000000e+01,2.355221342404660412e+00
6.700000000000000000e+01,2.387787290247961103e+00
6.800000000000000000e+01,2.419979791929243618e+00
6.900000000000000000e+01,2.451805296107909982e+00
7.000000000000000000e+01,2.483269638539749469e+00
7.100000000000000000e+01,2.514380131622800274e+00
7.200000000000000000e+01,2.545141932866120005e+00
7.300000000000000000e+01,2.575561278550791755e+00
7.400000000000000000e+01,2.605643963207987301e+00
7.500000000000000000e+01,2.635396384329370179e+00
7.600000000000000000e+01,2.664823648046112048e+00
7.700000000000000000e+01,2.693931629859144028e+00
7.800000000000000000e+01,2.722726091619297240e+00
7.900000000000000000e+01,2.751212372379064242e+00
8.000000000000000000e+01,2.779395875033897401e+00
8.100000000000000000e+01,2.807280861915841363e+00
8.200000000000000000e+01,2.834873760799756948e+00
8.300000000000000000e+01,2.862178521128534214e+00
8.400000000000000000e+01,2.889201044307226685e+00
8.500000000000000000e+01,2.915945281067231942e+00
8.600000000000000000e+01,2.942417185674611524e+00
8.700000000000000000e+01,2.968619751768357684e+00
8.800000000000000000e+01,2.994559006217978325e+00
8.900000000000000000e+01,3.020238100336793075e+00
9.000000000000000000e+01,3.045662592435689930e+00
9.100000000000000000e+01,3.070835777771283581e+00
9.200000000000000000e+01,3.095762774978346510e+00
9.300000000000000000e+01,3.120446411197627334e+00
9.400000000000000000e+01,3.144891893971057062e+00
9.500000000000000000e+01,3.169102313984324404e+00
9.600000000000000000e+01,3.193081900831323594e+00
9.700000000000000000e+01,3.216834465703653390e+00
9.800000000000000000e+01,3.240363317818981237e+00
9.900000000000000000e+01,3.263672396874612858e+00
1.000000000000000000e+02,3.286764817993517607e+00
1.010000000000000000e+02,3.309644743440430581e+00
1.020000000000000000e+02,3.332314885070694288e+00
1.030000000000000000e+02,3.354779095967447056e+00
1.040000000000000000e+02,3.377040343467375472e+00
1.050000000000000000e+02,3.399101981020060226e+00
1.060000000000000000e+02,3.420967122042921194e+00
1.070000000000000000e+02,3.442638851376607523e+00
1.080000000000000000e+02,3.464119640646929454e+00
1.090000000000000000e+02,3.485412926376208365e+00
1.100000000000000000e+02,3.506521146881119044e+00
1.110000000000000000e+02,3.527447494010191864e+00
1.120000000000000000e+02,3.548194008653942078e+00
1.130000000000000000e+02,3.568764955119429150e+00
1.140000000000000000e+02,3.589161423738394419e+00
1.150000000000000000e+02,3.609386899389359193e+00
1.160000000000000000e+02,3.629443840490684803e+00
1.170000000000000000e+02,3.649334086134717214e+00
1.180000000000000000e+02,3.669060367039461035e+00
1.190000000000000000e+02,3.688625311342700996e+00
1.200000000000000000e+02,3.708031364497981208e+00
1.210000000000000000e+02,3.727280040034975261e+00
1.220000000000000000e+02,3.746374635554210464e+00
1.230000000000000000e+02,3.765316757411551141e+00
1.240000000000000000e+02,3.784108938735338601e+00
1.250000000000000000e+02,3.802753055628332657e+00
1.260000000000000000e+02,3.821251000105435391e+00
1.270000000000000000e+02,3.839605155466673025e+00
1.280000000000000000e+02,3.857817271740593412e+00
1.290000000000000000e+02,3.875889430140712744e+00
1.300000000000000000e+02,3.893824336445464329e+00
1.310000000000000000e+02,3.911622385304059257e+00
1.320000000000000000e+02,3.929286540625296364e+00
1.330000000000000000e+02,3.946817637180425109e+00
1.340000000000000000e+02,3.964218794434545945e+00
1.350000000000000000e+02,3.981491034317402367e+00
1.360000000000000000e+02,3.998635933678310383e+00
1.370000000000000000e+02,4.015655818336679950e+00
1.380000000000000000e+02,4.032551356122705322e+00
1.390000000000000000e+02,4.049324980908167504e+00
1.400000000000000000e+02,4.065977846212307512e+00
1.410000000000000000e+02,4.082512194876300349e+00
1.420000000000000000e+02,4.098929155497921251e+00
1.430000000000000000e+02,4.115229892587051630e+00
1.440000000000000000e+02,4.131416633776710867e+00
1.450000000000000000e+02,4.147490246796910363e+00
1.460000000000000000e+02,4.163452317606262554e+00
1.470000000000000000e+02,4.179304452863226160e+00
1.480000000000000000e+02,4.195048146152218216e+00
1.490000000000000000e+02,4.210684386078948904e+00
1.500000000000000000e+02,4.226214592386033253e+00
1.510000000000000000e+02,4.241640144780673971e+00
1.520000000000000000e+02,4.256962449002684501e+00
1.530000000000000000e+02,4.272182871793130055e+00
1.540000000000000000e+02,4.287302614940419865e+00
1.550000000000000000e+02,4.302322215137992067e+00
1.560000000000000000e+02,4.317243702326100774e+00
1.570000000000000000e+02,4.332067991135596152e+00
1.580000000000000000e+02,4.346796467669521213e+00
1.590000000000000000e+02,4.361430542908759200e+00
1.600000000000000000e+02,4.375970245951160464e+00
1.610000000000000000e+02,4.390417731060827222e+00
1.620000000000000000e+02,4.404773527954324308e+00
1.630000000000000000e+02,4.419038812369545433e+00
1.640000000000000000e+02,4.433215325802184914e+00
1.650000000000000000e+02,4.447302931057394382e+00
1.660000000000000000e+02,4.461303611867260877e+00
1.670000000000000000e+02,4.475217841439517841e+00
1.680000000000000000e+02,4.489046952735831653e+00
1.690000000000000000e+02,4.502791611072420430e+00
1.700000000000000000e+02,4.516453096901563491e+00
1.710000000000000000e+02,4.530032431727032183e+00
1.720000000000000000e+02,4.543529988944517761e+00
1.730000000000000000e+02,4.556947147727964165e+00
1.740000000000000000e+02,4.570284526320687490e+00
1.750000000000000000e+02,4.583543397119979268e+00
1.760000000000000000e+02,4.596724338326591663e+00
1.770000000000000000e+02,4.609828024955292314e+00
1.780000000000000000e+02,4.622855719080182446e+00
1.790000000000000000e+02,4.635808109588631432e+00
1.800000000000000000e+02,4.648686303181940538e+00
1.810000000000000000e+02,4.661490627752398197e+00
1.820000000000000000e+02,4.674221939535097903e+00
1.830000000000000000e+02,4.686881182499941012e+00
1.840000000000000000e+02,4.699469015019835716e+00
1.850000000000000000e+02,4.711986555632815765e+00
1.860000000000000000e+02,4.724434322037698308e+00
1.870000000000000000e+02,4.736812664240997783e+00
1.880000000000000000e+02,4.749122858835944427e+00
1.890000000000000000e+02,4.761365277950082131e+00
1.900000000000000000e+02,4.773540902195658298e+00
1.910000000000000000e+02,4.785650640811991430e+00
1.920000000000000000e+02,4.797694418115959536e+00
1.930000000000000000e+02,4.809673525814860184e+00
1.940000000000000000e+02,4.821588071508934981e+00
1.950000000000000000e+02,4.833439463043650797e+00
1.960000000000000000e+02,4.845227684248214928e+00
1.970000000000000000e+02,4.856953909797065982e+00
1.980000000000000000e+02,4.868618501239375007e+00
1.990000000000000000e+02,4.880221861976285602e+00
2.000000000000000000e+02,4.891765023297607762e+00
2.010000000000000000e+02,4.903248266368860797e+00
2.020000000000000000e+02,4.914672399799643543e+00
2.030000000000000000e+02,4.926037975623307474e+00
2.040000000000000000e+02,4.937345295222637098e+00
2.050000000000000000e+02,4.948595227678492137e+00
2.060000000000000000e+02,4.959788245236584459e+00
2.070000000000000000e+02,4.970924811240702290e+00
2.080000000000000000e+02,4.982005946301741872e+00
2.090000000000000000e+02,4.993031384779997417e+00
2.100000000000000000e+02,5.004002127496777419e+00
2.110000000000000000e+02,5.014918552287094045e+00
2.120000000000000000e+02,5.025781493465624195e+00
2.130000000000000000e+02,5.036591309123295446e+00
2.140000000000000000e+02,5.047348304875113101e+00
2.150000000000000000e+02,5.058053146774855513e+00
2.160000000000000000e+02,5.068706079172234702e+00
2.170000000000000000e+02,5.079307886387868010e+00
2.180000000000000000e+02,5.089858706706701597e+00
2.190000000000000000e+02,5.100359440706573544e+00
2.200000000000000000e+02,5.110810615279102187e+00
2.210000000000000000e+02,5.121211900308937359e+00
2.220000000000000000e+02,5.131564482030948504e+00
2.230000000000000000e+02,5.141868376054915757e+00
2.240000000000000000e+02,5.152124435236353328e+00
2.250000000000000000e+02,5.162332927492867540e+00
2.260000000000000000e+02,5.172494028631994922e+00
2.270000000000000000e+02,5.182608695800571041e+00
2.280000000000000000e+02,5.192676785553683949e+00
2.290000000000000000e+02,5.202698718480307960e+00
2.300000000000000000e+02,5.212675252974356077e+00
2.310000000000000000e+02,5.222606877990815022e+00
2.320000000000000000e+02,5.232493390629808339e+00
2.330000000000000000e+02,5.242335868515556108e+00
2.340000000000000000e+02,5.252134396762511592e+00
2.350000000000000000e+02,5.261889058861775936e+00
2.360000000000000000e+02,5.271600610674988197e+00
2.370000000000000000e+02,5.281269167072815129e+00
2.380000000000000000e+02,5.290895426326683193e+00
2.390000000000000000e+02,5.300479492920680435e+00
2.400000000000000000e+02,5.310021718581574568e+00
2.410000000000000000e+02,5.319522532386872449e+00
2.420000000000000000e+02,5.328982274522718221e+00
2.430000000000000000e+02,5.338401362176287357e+00
2.440000000000000000e+02,5.347779797017059522e+00
2.450000000000000000e+02,5.357118640872044146e+00
2.460000000000000000e+02,5.366417273930951026e+00
2.470000000000000000e+02,5.375676988487740893e+00
2.480000000000000000e+02,5.384897242154851327e+00
2.490000000000000000e+02,5.394078626120204056e+00
2.500000000000000000e+02,5.403221843514712575e+00
2.510000000000000000e+02,5.412326908337140807e+00
2.520000000000000000e+02,5.421394112885031369e+00
2.530000000000000000e+02,5.430423864336598960e+00
2.540000000000000000e+02,5.439416128962107244e+00
2.550000000000000000e+02,5.448371819592169096e+00
2.560000000000000000e+02,5.457290696944496311e+00
2.570000000000000000e+02,5.466173033869252684e+00
2.580000000000000000e+02,5.475019411792289681e+00
2.590000000000000000e+02,5.483829898322130525e+00
2.600000000000000000e+02,5.492605064335251086e+00
2.610000000000000000e+02,5.501344931656727333e+00
2.620000000000000000e+02,5.510050022788036017e+00
2.630000000000000000e+02,5.518720353714911653e+00
2.640000000000000000e+02,5.527355939945718610e+00
2.650000000000000000e+02,5.535957636833765072e+00
2.660000000000000000e+02,5.544525413064840258e+00
2.670000000000000000e+02,5.553059275405888506e+00
2.680000000000000000e+02,5.561560025025156229e+00
2.690000000000000000e+02,5.570027434342859074e+00
2.700000000000000000e+02,5.578462256307134659e+00
2.710000000000000000e+02,5.586864221941769237e+00
2.720000000000000000e+02,5.595233850458549263e+00
2.730000000000000000e+02,5.603571132699896040e+00
2.740000000000000000e+02,5.611876579742600235e+00
2.750000000000000000e+02,5.620150436961382390e+00
2.760000000000000000e+02,5.628392687944281825e+00
2.770000000000000000e+02,5.636603537292939947e+00
2.780000000000000000e+02,5.644783848268872362e+00
2.790000000000000000e+02,5.652932935385370783e+00
2.800000000000000000e+02,5.661051654929899257e+00
2.810000000000000000e+02,5.669139906169593068e+00
2.820000000000000000e+02,5.677197952481509269e+00
2.830000000000000000e+02,5.685226307549832825e+00
2.840000000000000000e+02,5.693224865091705666e+00
2.850000000000000000e+02,5.701193555805184054e+00
2.860000000000000000e+02,5.709133496104250582e+00
2.870000000000000000e+02,5.717044321393902173e+00
2.880000000000000000e+02,5.724925920905397092e+00
2.890000000000000000e+02,5.732779110949588919e+00
2.900000000000000000e+02,5.740603526493123887e+00
2.910000000000000000e+02,5.748399621040088725e+00
2.920000000000000000e+02,5.756167878306969854e+00
2.930000000000000000e+02,5.763908001432048067e+00
2.940000000000000000e+02,5.771620399344300267e+00
2.950000000000000000e+02,5.779305581552308446e+00
2.960000000000000000e+02,5.786963143141139909e+00
2.970000000000000000e+02,5.794593589701617198e+00
2.980000000000000000e+02,5.802197386544720281e+00
2.990000000000000000e+02,5.809773884141471889e+00
3.000000000000000000e+02,5.817324065292860169e+00
3.010000000000000000e+02,5.824847591373981892e+00
3.020000000000000000e+02,5.832344918556816360e+00
3.030000000000000000e+02,5.839815914622764836e+00
3.040000000000000000e+02,5.847261338691801313e+00
3.050000000000000000e+02,5.854680575958015609e+00
3.060000000000000000e+02,5.862074516495547449e+00
3.070000000000000000e+02,5.869443123802742690e+00
3.080000000000000000e+02,5.876786327675249666e+00
3.090000000000000000e+02,5.884104734634691525e+00
3.100000000000000000e+02,5.891397798311142964e+00
3.110000000000000000e+02,5.898666188717791137e+00
3.120000000000000000e+02,5.905909763643376387e+00
3.130000000000000000e+02,5.913128984719619119e+00
3.140000000000000000e+02,5.920324008334020505e+00
3.150000000000000000e+02,5.927494722657850268e+00
3.160000000000000000e+02,5.934641282669111284e+00
3.170000000000000000e+02,5.941764339047634458e+00
3.180000000000000000e+02,5.948863279124418924e+00
3.190000000000000000e+02,5.955938782882087779e+00
3.200000000000000000e+02,5.962990996953063672e+00
3.210000000000000000e+02,5.970019803679329939e+00
3.220000000000000000e+02,5.977025577857994598e+00
3.230000000000000000e+02,5.984008494483065377e+00
3.240000000000000000e+02,5.990968433236091073e+00
3.250000000000000000e+02,5.997905535076001549e+00
3.260000000000000000e+02,6.004819939506895743e+00
3.270000000000000000e+02,6.011712043719945164e+00
3.280000000000000000e+02,6.018581724067240124e+00
3.290000000000000000e+02,6.025429115822142023e+00
3.300000000000000000e+02,6.032254578072686613e+00
3.310000000000000000e+02,6.039058017157890035e+00
3.320000000000000000e+02,6.045839820497778128e+00
3.330000000000000000e+02,6.052599605009241657e+00
3.340000000000000000e+02,6.059338011132987312e+00
3.350000000000000000e+02,6.066055164489558393e+00
3.360000000000000000e+02,6.072750935517843729e+00
3.370000000000000000e+02,6.079425417368179652e+00
3.380000000000000000e+02,6.086078797046869937e+00
3.390000000000000000e+02,6.092711385931526280e+00
3.400000000000000000e+02,6.099323083501839271e+00
3.410000000000000000e+02,6.105914260951362138e+00
3.420000000000000000e+02,6.112485035500435870e+00
3.430000000000000000e+02,6.119035023015996444e+00
3.440000000000000000e+02,6.125564809629805652e+00
3.450000000000000000e+02,6.132074322607204309e+00
3.460000000000000000e+02,6.138563645030415294e+00
3.470000000000000000e+02,6.145032859154001770e+00
3.480000000000000000e+02,6.151482355764912313e+00
3.490000000000000000e+02,6.157912028333229593e+00
3.500000000000000000e+02,6.164321678676586203e+00
3.510000000000000000e+02,6.170712186116707798e+00
3.520000000000000000e+02,6.177082919317398613e+00
3.530000000000000000e+02,6.183434476661927803e+00
3.540000000000000000e+02,6.189766718227395437e+00
3.550000000000000000e+02,6.196079749046719876e+00
3.560000000000000000e+02,6.202373673181274860e+00
3.570000000000000000e+02,6.208648593733200549e+00
3.580000000000000000e+02,6.214904825005335809e+00
3.590000000000000000e+02,6.221142285465353972e+00
3.600000000000000000e+02,6.227360803564631730e+00
3.610000000000000000e+02,6.233561173027537095e+00
3.620000000000000000e+02,6.239742798134216173e+00
3.630000000000000000e+02,6.245906047978728282e+00
3.640000000000000000e+02,6.252051198793918907e+00
3.650000000000000000e+02,6.258177926757198861e+00
3.660000000000000000e+02,6.264286745731244110e+00
3.670000000000000000e+02,6.270377540241635295e+00
3.680000000000000000e+02,6.276450403611989692e+00
3.690000000000000000e+02,6.282505457997888065e+00
3.700000000000000000e+02,6.288542972517116247e+00
3.710000000000000000e+02,6.294562593687957452e+00
3.720000000000000000e+02,6.300564648853787197e+00
3.730000000000000000e+02,6.306549462765231873e+00
3.740000000000000000e+02,6.312516652572344178e+00
3.750000000000000000e+02,6.318466776499187532e+00
3.760000000000000000e+02,6.324399451947967599e+00
3.770000000000000000e+02,6.330315233863461621e+00
3.780000000000000000e+02,6.336213769073188118e+00
3.790000000000000000e+02,6.342095521825731552e+00
3.800000000000000000e+02,6.347960226596017996e+00
3.810000000000000000e+02,6.353808344625128335e+00
3.820000000000000000e+02,6.359639523266396921e+00
3.830000000000000000e+02,6.365454307954238722e+00
3.840000000000000000e+02,6.371252317249237684e+00
3.850000000000000000e+02,6.377034093520356883e+00
3.860000000000000000e+02,6.382799284385221483e+00
3.870000000000000000e+02,6.388548142225274340e+00
3.880000000000000000e+02,6.394281003407322750e+00
3.890000000000000000e+02,6.399997487324013079e+00
3.900000000000000000e+02,6.405697929199146934e+00
3.910000000000000000e+02,6.411382263096249368e+00
3.920000000000000000e+02,6.417050594020833998e+00
3.930000000000000000e+02,6.422702969393521144e+00
3.940000000000000000e+02,6.428340031095181040e+00
3.950000000000000000e+02,6.433961002519847483e+00
3.960000000000000000e+02,6.439566241551679227e+00
3.970000000000000000e+02,6.445156103498862699e+00
3.980000000000000000e+02,6.450730378498245265e+00
