# Time [s], Convective Heat Transfer Coefficient [W/m2K]
1.000000000000000000e+00,0.000000000000000000e+00
2.000000000000000000e+00,0.000000000000000000e+00
3.000000000000000000e+00,0.000000000000000000e+00
4.000000000000000000e+00,0.000000000000000000e+00
5.000000000000000000e+00,2.762023300960968902e-02
6.000000000000000000e+00,5.110202618333640340e-02
7.000000000000000000e+00,8.502035959797628328e-02
8.000000000000000000e+00,1.309213698246396995e-01
9.000000000000000000e+00,1.894430624048601963e-01
1.000000000000000000e+01,2.611923235762032558e-01
1.100000000000000000e+01,3.456281398554710282e-01
1.200000000000000000e+01,4.419357157999632690e-01
1.300000000000000000e+01,5.488720461191631816e-01
1.400000000000000000e+01,6.650602568527809177e-01
1.500000000000000000e+01,7.972343252888864917e-01
1.600000000000000000e+01,9.313871720213510175e-01
1.700000000000000000e+01,1.069500387295381882e+00
1.800000000000000000e+01,1.211024628928888180e+00
1.900000000000000000e+01,1.355098830906614982e+00
2.000000000000000000e+01,1.500948665872446686e+00
2.100000000000000000e+01,1.647871982640725097e+00
2.200000000000000000e+01,1.795254491743790037e+00
2.300000000000000000e+01,1.942564978292709243e+00
2.400000000000000000e+01,2.089344460854586139e+00
2.500000000000000000e+01,2.235208395229335565e+00
2.600000000000000000e+01,2.379834692289875875e+00
2.700000000000000000e+01,2.522953592814637602e+00
2.800000000000000000e+01,2.664347494138030736e+00
2.900000000000000000e+01,2.803846323470962965e+00
3.000000000000000000e+01,2.941319160909661612e+00
3.100000000000000000e+01,3.076674806257601258e+00
3.200000000000000000e+01,3.209843535223248168e+00
3.300000000000000000e+01,3.340786173978075091e+00
3.400000000000000000e+01,3.469481712966471232e+00
3.500000000000000000e+01,3.595927246988979142e+00
3.600000000000000000e+01,3.720138324306524247e+00
3.700000000000000000e+01,3.842133901371330484e+00
3.800000000000000000e+01,3.961944521425198928e+00
3.900000000000000000e+01,4.079613358393705980e+00
4.000000000000000000e+01,4.195172197533313607e+00
4.100000000000000000e+01,4.308668515128015741e+00
4.200000000000000000e+01,4.420153750166964990e+00
4.300000000000000000e+01,4.529675139512962190e+00
4.400000000000000000e+01,4.637278827355396871e+00
4.500000000000000000e+01,4.743021905073144140e+00
4.600000000000000000e+01,4.846961459386008642e+00
4.700000000000000000e+01,4.949155164204309898e+00
4.800000000000000000e+01,5.049653468848249283e+00
4.900000000000000000e+01,5.148509020980470474e+00
5.000000000000000000e+01,5.245766321182480318e+00
5.100000000000000000e+01,5.341471703420616279e+00
5.200000000000000000e+01,5.435664812474819918e+00
5.300000000000000000e+01,5.528382375178808594e+00
5.400000000000000000e+01,5.619660674181861104e+00
5.500000000000000000e+01,5.709533267669018919e+00
5.600000000000000000e+01,5.798032064224119431e+00
5.700000000000000000e+01,5.885190249957351405e+00
5.800000000000000000e+01,5.971039998396063808e+00
5.900000000000000000e+01,6.055606263436601466e+00
6.000000000000000000e+01,6.138921030854397110e+00
6.100000000000000000e+01,6.221009139327463799e+00
6.200000000000000000e+01,6.301895354231849211e+00
6.300000000000000000e+01,6.381604756758518349e+00
6.400000000000000000e+01,6.460161147537164084e+00
6.500000000000000000e+01,6.537635228132996801e+00
6.600000000000000000e+01,6.613981223346661054e+00
6.700000000000000000e+01,6.689238434573498537e+00
6.800000000000000000e+01,6.763433350670641886e+00
6.900000000000000000e+01,6.836590748750806412e+00
7.000000000000000000e+01,6.908738007128749636e+00
7.100000000000000000e+01,6.979901446686368693e+00
7.200000000000000000e+01,7.050105703917528999e+00
7.300000000000000000e+01,7.119366712112251250e+00
7.400000000000000000e+01,7.187705873172753002e+00
7.500000000000000000e+01,7.255136851921273333e+00
7.600000000000000000e+01,7.321672810121664376e+00
7.700000000000000000e+01,7.387326645189465246e+00
7.800000000000000000e+01,7.452113102301544778e+00
7.900000000000000000e+01,7.516042177063888552e+00
8.000000000000000000e+01,7.579127442982124485e+00
8.100000000000000000e+01,7.641378928912424762e+00
8.200000000000000000e+01,7.702805953773141034e+00
8.300000000000000000e+01,7.763417362783827436e+00
8.400000000000000000e+01,7.823225758813591391e+00
8.500000000000000000e+01,7.882241557861722647e+00
8.600000000000000000e+01,7.940474997897924325e+00
8.700000000000000000e+01,7.997934862226618868e+00
8.800000000000000000e+01,8.054633265233407613e+00
8.900000000000000000e+01,8.110579720950507721e+00
9.000000000000000000e+01,8.165783596269895028e+00
9.100000000000000000e+01,8.220253422035600721e+00
9.200000000000000000e+01,8.273994890172302163e+00
9.300000000000000000e+01,8.327036858548449771e+00
9.400000000000000000e+01,8.379358378893414283e+00
9.500000000000000000e+01,8.430977222687161543e+00
9.600000000000000000e+01,8.481912387701166622e+00
9.700000000000000000e+01,8.532183709571453889e+00
9.800000000000000000e+01,8.581806892722502411e+00
9.900000000000000000e+01,8.630784008550154596e+00
1.000000000000000000e+02,8.679109074695398718e+00
1.010000000000000000e+02,8.726775404466351915e+00
1.020000000000000000e+02,8.773775327071502872e+00
1.030000000000000000e+02,8.820102482231254371e+00
1.040000000000000000e+02,8.865750397326296550e+00
1.050000000000000000e+02,8.910714837839877944e+00
1.060000000000000000e+02,8.954989595339151620e+00
1.070000000000000000e+02,8.998572064216523003e+00
1.080000000000000000e+02,9.041455467576632543e+00
1.090000000000000000e+02,9.083635282412249268e+00
1.100000000000000000e+02,9.125102936800844944e+00
1.110000000000000000e+02,9.165849739121899376e+00
1.120000000000000000e+02,9.205866037233557009e+00
1.130000000000000000e+02,9.245139735039689555e+00
1.140000000000000000e+02,9.283655423858760969e+00
1.150000000000000000e+02,9.321396514628650820e+00
1.160000000000000000e+02,9.358344855955980535e+00
1.170000000000000000e+02,9.394479172573756642e+00
1.180000000000000000e+02,9.429778308553695254e+00
1.190000000000000000e+02,9.464270453789591642e+00
1.200000000000000000e+02,9.497906008022429347e+00
1.210000000000000000e+02,9.530705913850962219e+00
1.220000000000000000e+02,9.562655146390957484e+00
1.230000000000000000e+02,9.593696779246906559e+00
1.240000000000000000e+02,9.623760563728145812e+00
1.250000000000000000e+02,9.652788851557094318e+00
1.260000000000000000e+02,9.680744458574521261e+00
1.270000000000000000e+02,9.707602024404431873e+00
1.280000000000000000e+02,9.733346748257149628e+00
1.290000000000000000e+02,9.757967420322671614e+00
1.300000000000000000e+02,9.781460943185061652e+00
1.310000000000000000e+02,9.803829677148398147e+00
1.320000000000000000e+02,9.825084216722547836e+00
1.330000000000000000e+02,9.845242494086777540e+00
1.340000000000000000e+02,9.864333621983583100e+00
1.350000000000000000e+02,9.882395083248715295e+00
1.360000000000000000e+02,9.899472878556178301e+00
1.370000000000000000e+02,9.915621574978294106e+00
1.380000000000000000e+02,9.930903543333943873e+00
1.390000000000000000e+02,9.945384912542964528e+00
1.400000000000000000e+02,9.959938814838942278e+00
1.410000000000000000e+02,9.973643442430843109e+00
1.420000000000000000e+02,9.986714414088819325e+00
1.430000000000000000e+02,9.999180646817736218e+00
1.440000000000000000e+02,1.001108095164266132e+01
1.450000000000000000e+02,1.002250823678335934e+01
1.460000000000000000e+02,1.003356837432066406e+01
1.470000000000000000e+02,1.004435356619346464e+01
1.480000000000000000e+02,1.005493676229479760e+01
1.490000000000000000e+02,1.006537941059477959e+01
1.500000000000000000e+02,1.007573517223164927e+01
1.510000000000000000e+02,1.008604874742197310e+01
1.520000000000000000e+02,1.009635872834912895e+01
1.530000000000000000e+02,1.010670121515175701e+01
1.540000000000000000e+02,1.011710812407113380e+01
1.550000000000000000e+02,1.012760996557153170e+01
1.560000000000000000e+02,1.013823038661536557e+01
1.570000000000000000e+02,1.014899691911460877e+01
1.580000000000000000e+02,1.015993140559223562e+01
1.590000000000000000e+02,1.017105537040814767e+01
1.600000000000000000e+02,1.018239114408100043e+01
1.610000000000000000e+02,1.019767337179056277e+01
1.620000000000000000e+02,1.021077744627460149e+01
1.630000000000000000e+02,1.022323042010447836e+01
1.640000000000000000e+02,1.023573212360953555e+01
1.650000000000000000e+02,1.024838537171368102e+01
1.660000000000000000e+02,1.026135732568580394e+01
1.670000000000000000e+02,1.027469643086098650e+01
1.680000000000000000e+02,1.028842257327270460e+01
1.690000000000000000e+02,1.030256195258589180e+01
1.700000000000000000e+02,1.031713103015214017e+01
1.710000000000000000e+02,1.033215112173465400e+01
1.720000000000000000e+02,1.034766088213917534e+01
1.730000000000000000e+02,1.036368201232095032e+01
1.740000000000000000e+02,1.038025588403988309e+01
1.750000000000000000e+02,1.039742933162557748e+01
1.760000000000000000e+02,1.041524781909560993e+01
1.770000000000000000e+02,1.043375508177664202e+01
1.780000000000000000e+02,1.045301859330770888e+01
1.790000000000000000e+02,1.047308945268661518e+01
1.800000000000000000e+02,1.049402269219975459e+01
1.810000000000000000e+02,1.051589902002791099e+01
1.820000000000000000e+02,1.053879559979504066e+01
1.830000000000000000e+02,1.056279289349055794e+01
1.840000000000000000e+02,1.058800177351001714e+01
1.850000000000000000e+02,1.062578639241725575e+01
1.860000000000000000e+02,1.065591684137323902e+01
1.870000000000000000e+02,1.068521136054001808e+01
1.880000000000000000e+02,1.071619434484816757e+01
1.890000000000000000e+02,1.074919729173614336e+01
1.900000000000000000e+02,1.078415991842556743e+01
1.910000000000000000e+02,1.082125202653213059e+01
1.920000000000000000e+02,1.086054545833720297e+01
1.930000000000000000e+02,1.090213544889402897e+01
1.940000000000000000e+02,1.094617411024865028e+01
1.950000000000000000e+02,1.099271157781922348e+01
1.960000000000000000e+02,1.104197375608911358e+01
1.970000000000000000e+02,1.109414273537074536e+01
1.980000000000000000e+02,1.114948325884553171e+01
1.990000000000000000e+02,1.120831022956753920e+01
2.000000000000000000e+02,1.127070500649945473e+01
2.010000000000000000e+02,1.133627062116879891e+01
2.020000000000000000e+02,1.140383334434324247e+01
2.030000000000000000e+02,1.147140898709645640e+01
2.040000000000000000e+02,1.153686043053722088e+01
2.050000000000000000e+02,1.159874993782269037e+01
2.060000000000000000e+02,1.165672071624964623e+01
2.070000000000000000e+02,1.171106983439421434e+01
2.080000000000000000e+02,1.176229763006531748e+01
2.090000000000000000e+02,1.181083543450951723e+01
2.100000000000000000e+02,1.185714205522765496e+01
2.110000000000000000e+02,1.190151820902901392e+01
2.120000000000000000e+02,1.194417950650094618e+01
2.130000000000000000e+02,1.198530317605545825e+01
2.140000000000000000e+02,1.202504350715541293e+01
2.150000000000000000e+02,1.206351750072560414e+01
2.160000000000000000e+02,1.210082308974741316e+01
2.170000000000000000e+02,1.213704840689124609e+01
2.180000000000000000e+02,1.217226558209257092e+01
2.190000000000000000e+02,1.220654702951056692e+01
2.200000000000000000e+02,1.223994357873944949e+01
2.210000000000000000e+02,1.227251428140656841e+01
2.220000000000000000e+02,1.230430135991669971e+01
2.230000000000000000e+02,1.233534754224594643e+01
2.240000000000000000e+02,1.236568836003425531e+01
2.250000000000000000e+02,1.239536104699919505e+01
2.260000000000000000e+02,1.242439527962140744e+01
2.270000000000000000e+02,1.245282130762682549e+01
2.280000000000000000e+02,1.248066132295458885e+01
2.290000000000000000e+02,1.250794245363686841e+01
2.300000000000000000e+02,1.253468363660783780e+01
2.310000000000000000e+02,1.256090493373065264e+01
2.320000000000000000e+02,1.258662715212107130e+01
2.330000000000000000e+02,1.261186242214830777e+01
2.340000000000000000e+02,1.263663285392103397e+01
2.350000000000000000e+02,1.266094961358192350e+01
2.360000000000000000e+02,1.268482652853321468e+01
2.370000000000000000e+02,1.270827895724591272e+01
2.380000000000000000e+02,1.273131546373419809e+01
2.390000000000000000e+02,1.275394607827157323e+01
2.400000000000000000e+02,1.277618765470569961e+01
2.410000000000000000e+02,1.279804846445592936e+01
2.420000000000000000e+02,1.281953354848875470e+01
2.430000000000000000e+02,1.284065868945357458e+01
2.440000000000000000e+02,1.286142603814762708e+01
2.450000000000000000e+02,1.288184839192387443e+01
2.460000000000000000e+02,1.290193454311958554e+01
2.470000000000000000e+02,1.292168787360360760e+01
2.480000000000000000e+02,1.294111783303242547e+01
2.490000000000000000e+02,1.296023093003132587e+01
2.500000000000000000e+02,1.297903126505747196e+01
2.510000000000000000e+02,1.299752860512185570e+01
2.520000000000000000e+02,1.301572842490634585e+01
2.530000000000000000e+02,1.303363603513522762e+01
2.540000000000000000e+02,1.305126016037790393e+01
2.550000000000000000e+02,1.306859994138478953e+01
2.560000000000000000e+02,1.308566693916372436e+01
2.570000000000000000e+02,1.310246308721191610e+01
2.580000000000000000e+02,1.311899421596779725e+01
2.590000000000000000e+02,1.313526559502822089e+01
2.600000000000000000e+02,1.315128268641265663e+01
2.610000000000000000e+02,1.316704952348444024e+01
2.620000000000000000e+02,1.318256940311615466e+01
2.630000000000000000e+02,1.319784771806174462e+01
2.640000000000000000e+02,1.321288858146573730e+01
2.650000000000000000e+02,1.322769604707116287e+01
2.660000000000000000e+02,1.324227317651127223e+01
2.670000000000000000e+02,1.325662724684803884e+01
2.680000000000000000e+02,1.327075880567026367e+01
2.690000000000000000e+02,1.328467248907559295e+01
2.700000000000000000e+02,1.329837327282491266e+01
2.710000000000000000e+02,1.331186277088641745e+01
2.720000000000000000e+02,1.332514639044683413e+01
2.730000000000000000e+02,1.333822691269603844e+01
2.740000000000000000e+02,1.335110740912930893e+01
2.750000000000000000e+02,1.336379110839502893e+01
2.760000000000000000e+02,1.337628303120120243e+01
2.770000000000000000e+02,1.338858507685300481e+01
2.780000000000000000e+02,1.340070100685673715e+01
2.790000000000000000e+02,1.341263148346360623e+01
2.800000000000000000e+02,1.342438260695499608e+01
2.810000000000000000e+02,1.343595562352318851e+01
2.820000000000000000e+02,1.344735311763209040e+01
2.830000000000000000e+02,1.345857861335165495e+01
2.840000000000000000e+02,1.346963501872932589e+01
2.850000000000000000e+02,1.348052624195830340e+01
2.860000000000000000e+02,1.349125229620177890e+01
2.870000000000000000e+02,1.350181633015840887e+01
2.880000000000000000e+02,1.351222184696734274e+01
2.890000000000000000e+02,1.352247142183934869e+01
2.900000000000000000e+02,1.353256817990633287e+01
2.910000000000000000e+02,1.354251394169090084e+01
2.920000000000000000e+02,1.355231089028722913e+01
2.930000000000000000e+02,1.356196086903285725e+01
2.940000000000000000e+02,1.357146633764301669e+01
2.950000000000000000e+02,1.358083151073566341e+01
2.960000000000000000e+02,1.359005537434775235e+01
2.970000000000000000e+02,1.359914191255013094e+01
2.980000000000000000e+02,1.360809362651177779e+01
2.990000000000000000e+02,1.361691141856614173e+01
3.000000000000000000e+02,1.362559933173798221e+01
3.010000000000000000e+02,1.363415697344663435e+01
3.020000000000000000e+02,1.364258872628373709e+01
3.030000000000000000e+02,1.365089504993239977e+01
3.040000000000000000e+02,1.365907834052762304e+01
3.050000000000000000e+02,1.366714009918465322e+01
3.060000000000000000e+02,1.367508350403943673e+01
3.070000000000000000e+02,1.368290896163159154e+01
3.080000000000000000e+02,1.369061793273519712e+01
3.090000000000000000e+02,1.369821317610745659e+01
3.100000000000000000e+02,1.370569612430646877e+01
3.110000000000000000e+02,1.371306875874326359e+01
3.120000000000000000e+02,1.372033211456481183e+01
3.130000000000000000e+02,1.372748846005503154e+01
3.140000000000000000e+02,1.373453961494838182e+01
3.150000000000000000e+02,1.374148627109927112e+01
3.160000000000000000e+02,1.374833146649754845e+01
3.170000000000000000e+02,1.375507580983100375e+01
3.180000000000000000e+02,1.376172107765464148e+01
3.190000000000000000e+02,1.376826798584294664e+01
3.200000000000000000e+02,1.377471909441596409e+01
3.210000000000000000e+02,1.378107534743890383e+01
3.220000000000000000e+02,1.378733780496836481e+01
3.230000000000000000e+02,1.379350899622597559e+01
3.240000000000000000e+02,1.379958940935409650e+01
3.250000000000000000e+02,1.380558057151686668e+01
3.260000000000000000e+02,1.381148338762924510e+01
3.270000000000000000e+02,1.381730028916538444e+01
3.280000000000000000e+02,1.382303228727983146e+01
3.290000000000000000e+02,1.382867959102750355e+01
3.300000000000000000e+02,1.383424430193571730e+01
3.310000000000000000e+02,1.383972802300681693e+01
3.320000000000000000e+02,1.384513137235280311e+01
3.330000000000000000e+02,1.385045563473078722e+01
3.340000000000000000e+02,1.385570251518327467e+01
3.350000000000000000e+02,1.386087212693013448e+01
3.360000000000000000e+02,1.386596658960071871e+01
3.370000000000000000e+02,1.387098673658064030e+01
3.380000000000000000e+02,1.387593345735676920e+01
3.390000000000000000e+02,1.388080769740248854e+01
3.400000000000000000e+02,1.388561112591080438e+01
3.410000000000000000e+02,1.389034376723867936e+01
3.420000000000000000e+02,1.389500849325287035e+01
3.430000000000000000e+02,1.389960459132182535e+01
3.440000000000000000e+02,1.390413371026263256e+01
3.450000000000000000e+02,1.390859670606180742e+01
3.460000000000000000e+02,1.391299527732792285e+01
3.470000000000000000e+02,1.391732942442028786e+01
3.480000000000000000e+02,1.392159999157457761e+01
3.490000000000000000e+02,1.392580908688999664e+01
3.500000000000000000e+02,1.392995664001391809e+01
3.510000000000000000e+02,1.393404402619191629e+01
3.520000000000000000e+02,1.393807159156572517e+01
3.530000000000000000e+02,1.394204100488237685e+01
3.540000000000000000e+02,1.394595302683978133e+01
3.550000000000000000e+02,1.394980739241854195e+01
3.560000000000000000e+02,1.395360606034452644e+01
3.570000000000000000e+02,1.395734912097092639e+01
3.580000000000000000e+02,1.396103852498821141e+01
3.590000000000000000e+02,1.396467393671260204e+01
3.600000000000000000e+02,1.396825693984158967e+01
3.610000000000000000e+02,1.397178755454669563e+01
3.620000000000000000e+02,1.397526735816294163e+01
3.630000000000000000e+02,1.397869612658913674e+01
3.640000000000000000e+02,1.398207531166715079e+01
3.650000000000000000e+02,1.398540570305126884e+01
3.660000000000000000e+02,1.398868742986051750e+01
3.670000000000000000e+02,1.399192163647896336e+01
3.680000000000000000e+02,1.399510916539159311e+01
3.690000000000000000e+02,1.399825067741536344e+01
3.700000000000000000e+02,1.400134641330209107e+01
3.710000000000000000e+02,1.400439697062751954e+01
3.720000000000000000e+02,1.400740366100926515e+01
3.730000000000000000e+02,1.401036713699932434e+01
3.740000000000000000e+02,1.401328721470253313e+01
3.750000000000000000e+02,1.401616531859696302e+01
3.760000000000000000e+02,1.401900150012754587e+01
3.770000000000000000e+02,1.402179622669819459e+01
3.780000000000000000e+02,1.402455097601461098e+01
3.790000000000000000e+02,1.402726579495617720e+01
3.800000000000000000e+02,1.402994108648570659e+01
3.810000000000000000e+02,1.403257796566845172e+01
3.820000000000000000e+02,1.403517647560676629e+01
3.830000000000000000e+02,1.403773743097704774e+01
3.840000000000000000e+02,1.404026158528867718e+01
3.850000000000000000e+02,1.404274933422667715e+01
3.860000000000000000e+02,1.404520065697358611e+01
3.870000000000000000e+02,1.404761677791709573e+01
3.880000000000000000e+02,1.404999802972761458e+01
3.890000000000000000e+02,1.405234480339514036e+01
3.900000000000000000e+02,1.405465719258309854e+01
3.910000000000000000e+02,1.405693659365702075e+01
3.920000000000000000e+02,1.405918315702499655e+01
3.930000000000000000e+02,1.406139679563492528e+01
3.940000000000000000e+02,1.406357902011047933e+01
3.950000000000000000e+02,1.406572950457583282e+01
3.960000000000000000e+02,1.406784869208492417e+01
3.970000000000000000e+02,1.406993761606865334e+01
3.980000000000000000e+02,1.407199665807419819e+01
