# Time [s], Convective Heat Transfer Coefficient [W/m2K]
1.000000000000000000e+00,0.000000000000000000e+00
2.000000000000000000e+00,0.000000000000000000e+00
3.000000000000000000e+00,0.000000000000000000e+00
4.000000000000000000e+00,0.000000000000000000e+00
5.000000000000000000e+00,1.915079995362458862e-02
6.000000000000000000e+00,2.762023300960968902e-02
7.000000000000000000e+00,4.559999999962457279e-02
8.000000000000000000e+00,6.861823301886887938e-02
9.000000000000000000e+00,9.738577037326323627e-02
1.000000000000000000e+01,1.328726945106819823e-01
1.100000000000000000e+01,1.741896799710316301e-01
1.200000000000000000e+01,2.211056259142645530e-01
1.300000000000000000e+01,2.730672761691368411e-01
1.400000000000000000e+01,3.293409281614813056e-01
1.500000000000000000e+01,3.892342633188025647e-01
1.600000000000000000e+01,4.521278043064718144e-01
1.700000000000000000e+01,5.174128830328755813e-01
1.800000000000000000e+01,5.845956317428550042e-01
1.900000000000000000e+01,6.531941955470331740e-01
2.000000000000000000e+01,7.228212409615500933e-01
2.100000000000000000e+01,7.931411727310971882e-01
2.200000000000000000e+01,8.638600072680957531e-01
2.300000000000000000e+01,9.347392121222770633e-01
2.400000000000000000e+01,1.005575332480566741e+00
2.500000000000000000e+01,1.076202539946496950e+00
2.600000000000000000e+01,1.146480846870079118e+00
2.700000000000000000e+01,1.216288889695285702e+00
2.800000000000000000e+01,1.285533548734800968e+00
2.900000000000000000e+01,1.354140656378882701e+00
3.000000000000000000e+01,1.422052385042547940e+00
3.100000000000000000e+01,1.489210032584133980e+00
3.200000000000000000e+01,1.555578887995471060e+00
3.300000000000000000e+01,1.621132637484389516e+00
3.400000000000000000e+01,1.685843110004126011e+00
3.500000000000000000e+01,1.749697838692020557e+00
3.600000000000000000e+01,1.812687971915061702e+00
3.700000000000000000e+01,1.874802878180026999e+00
3.800000000000000000e+01,1.936044487559998695e+00
3.900000000000000000e+01,1.996410972702084008e+00
4.000000000000000000e+01,2.055909102533612920e+00
4.100000000000000000e+01,2.114541648290796161e+00
4.200000000000000000e+01,2.172319261153920156e+00
4.300000000000000000e+01,2.229249252108918000e+00
4.400000000000000000e+01,2.285343048353106532e+00
4.500000000000000000e+01,2.340612409771671842e+00
4.600000000000000000e+01,2.395068080725201387e+00
4.700000000000000000e+01,2.448724269326997938e+00
4.800000000000000000e+01,2.501593414101047408e+00
4.900000000000000000e+01,2.553688677948443342e+00
5.000000000000000000e+01,2.605027082589878251e+00
5.100000000000000000e+01,2.655620487531919149e+00
5.200000000000000000e+01,2.705481499670475465e+00
5.300000000000000000e+01,2.754623675398974125e+00
5.400000000000000000e+01,2.803064219912832389e+00
5.500000000000000000e+01,2.850815927570682806e+00
5.600000000000000000e+01,2.897891416497695882e+00
5.700000000000000000e+01,2.944304284081366685e+00
5.800000000000000000e+01,2.990069533765029153e+00
5.900000000000000000e+01,3.035198212734294021e+00
6.000000000000000000e+01,3.079705566151332619e+00
6.100000000000000000e+01,3.123604754088860957e+00
6.200000000000000000e+01,3.166907431493056979e+00
6.300000000000000000e+01,3.209625490159310424e+00
6.400000000000000000e+01,3.251770984957262023e+00
6.500000000000000000e+01,3.293355858360073274e+00
6.600000000000000000e+01,3.334392234697133084e+00
6.700000000000000000e+01,3.374890516578231914e+00
6.800000000000000000e+01,3.414863069951930452e+00
6.900000000000000000e+01,3.454319658213436117e+00
7.000000000000000000e+01,3.493271544727418743e+00
7.100000000000000000e+01,3.531728399337474844e+00
7.200000000000000000e+01,3.569700193362602469e+00
7.300000000000000000e+01,3.607196610926324709e+00
7.400000000000000000e+01,3.644227943605379050e+00
7.500000000000000000e+01,3.680803115164534844e+00
7.600000000000000000e+01,3.716931495867239033e+00
7.700000000000000000e+01,3.752622100176993936e+00
7.800000000000000000e+01,3.787883201329349525e+00
7.900000000000000000e+01,3.822724151390835878e+00
8.000000000000000000e+01,3.857152916066013404e+00
8.100000000000000000e+01,3.891177734247593722e+00
8.200000000000000000e+01,3.924807315459922563e+00
8.300000000000000000e+01,3.958046460326631877e+00
8.400000000000000000e+01,3.990902696439091013e+00
8.500000000000000000e+01,4.023384823006134425e+00
8.600000000000000000e+01,4.055499531847571504e+00
8.700000000000000000e+01,4.087254650186314286e+00
8.800000000000000000e+01,4.118656221024919795e+00
8.900000000000000000e+01,4.149711964132691833e+00
9.000000000000000000e+01,4.180426996820557406e+00
9.100000000000000000e+01,4.210808772278438639e+00
9.200000000000000000e+01,4.240861118580617983e+00
9.300000000000000000e+01,4.270591227935796930e+00
9.400000000000000000e+01,4.300005245681432164e+00
9.500000000000000000e+01,4.329109525986554630e+00
9.600000000000000000e+01,4.357908952379125012e+00
9.700000000000000000e+01,4.386409282956678091e+00
9.800000000000000000e+01,4.414614390117637122e+00
9.900000000000000000e+01,4.442529877156133900e+00
1.000000000000000000e+02,4.470161446754974399e+00
1.010000000000000000e+02,4.497514315556667697e+00
1.020000000000000000e+02,4.524593242689670447e+00
1.030000000000000000e+02,4.551403347212894523e+00
1.040000000000000000e+02,4.577947517315335446e+00
1.050000000000000000e+02,4.604230954568387268e+00
1.060000000000000000e+02,4.630258149175974225e+00
1.070000000000000000e+02,4.656033891157515647e+00
1.080000000000000000e+02,4.681563360594793721e+00
1.090000000000000000e+02,4.706848302336182677e+00
1.100000000000000000e+02,4.731893324381363009e+00
1.110000000000000000e+02,4.756702902232710528e+00
1.120000000000000000e+02,4.781280924970180202e+00
1.130000000000000000e+02,4.805631434677604119e+00
1.140000000000000000e+02,4.829758317688821911e+00
1.150000000000000000e+02,4.853663225352288002e+00
1.160000000000000000e+02,4.877350750898409082e+00
1.170000000000000000e+02,4.900824876421496334e+00
1.180000000000000000e+02,4.924088760774088414e+00
1.190000000000000000e+02,4.947146213029955497e+00
1.200000000000000000e+02,4.969999008758835046e+00
1.210000000000000000e+02,4.992650222762341272e+00
1.220000000000000000e+02,5.015104263682915509e+00
1.230000000000000000e+02,5.037363816709307329e+00
1.240000000000000000e+02,5.059432342930818116e+00
1.250000000000000000e+02,5.081311235096647394e+00
1.260000000000000000e+02,5.103003501922967367e+00
1.270000000000000000e+02,5.124512897657088395e+00
1.280000000000000000e+02,5.145842034752391214e+00
1.290000000000000000e+02,5.166994009494654705e+00
1.300000000000000000e+02,5.187969860051939719e+00
1.310000000000000000e+02,5.208772488812671853e+00
1.320000000000000000e+02,5.229405390063923242e+00
1.330000000000000000e+02,5.249870928345869991e+00
1.340000000000000000e+02,5.270171393906175616e+00
1.350000000000000000e+02,5.290308336462347327e+00
1.360000000000000000e+02,5.310284295150308864e+00
1.370000000000000000e+02,5.330101649233927930e+00
1.380000000000000000e+02,5.349763319556878116e+00
1.390000000000000000e+02,5.369271652791041127e+00
1.400000000000000000e+02,5.388627555519162726e+00
1.410000000000000000e+02,5.407833187366561489e+00
1.420000000000000000e+02,5.426891201444895785e+00
1.430000000000000000e+02,5.445803661711961396e+00
1.440000000000000000e+02,5.464572808344922095e+00
1.450000000000000000e+02,5.483199650293606453e+00
1.460000000000000000e+02,5.501686327267616861e+00
1.470000000000000000e+02,5.520035226951555352e+00
1.480000000000000000e+02,5.538247793989246937e+00
1.490000000000000000e+02,5.556326608447071713e+00
1.500000000000000000e+02,5.574272184831198018e+00
1.510000000000000000e+02,5.592086631783891981e+00
1.520000000000000000e+02,5.609771853441026579e+00
1.530000000000000000e+02,5.627329925723876691e+00
1.540000000000000000e+02,5.644762540179524279e+00
1.550000000000000000e+02,5.662070066607367558e+00
1.560000000000000000e+02,5.679254678092528152e+00
1.570000000000000000e+02,5.696318024115282874e+00
1.580000000000000000e+02,5.713261963600319682e+00
1.590000000000000000e+02,5.730088059813610357e+00
1.600000000000000000e+02,5.746798049956269416e+00
1.610000000000000000e+02,5.763391831559626866e+00
1.620000000000000000e+02,5.779871334502676206e+00
1.630000000000000000e+02,5.796238791018454073e+00
1.640000000000000000e+02,5.812495272261943846e+00
1.650000000000000000e+02,5.828642409128642399e+00
1.660000000000000000e+02,5.844681520279464415e+00
1.670000000000000000e+02,5.860612768757060387e+00
1.680000000000000000e+02,5.876437701679571468e+00
1.690000000000000000e+02,5.892158336576156508e+00
1.700000000000000000e+02,5.907776042327382626e+00
1.710000000000000000e+02,5.923291523042006013e+00
1.720000000000000000e+02,5.938706395426588180e+00
1.730000000000000000e+02,5.954020985971285818e+00
1.740000000000000000e+02,5.969236368007977411e+00
1.750000000000000000e+02,5.984354408180017515e+00
1.760000000000000000e+02,5.999376348182499541e+00
1.770000000000000000e+02,6.014303208843831960e+00
1.780000000000000000e+02,6.029135924489400722e+00
1.790000000000000000e+02,6.043875697641690081e+00
1.800000000000000000e+02,6.058522780732915614e+00
1.810000000000000000e+02,6.073078815908035111e+00
1.820000000000000000e+02,6.087544653988731902e+00
1.830000000000000000e+02,6.101921473681227504e+00
1.840000000000000000e+02,6.116210523642285679e+00
1.850000000000000000e+02,6.130412466871321797e+00
1.860000000000000000e+02,6.144528572472297334e+00
1.870000000000000000e+02,6.158558695736022770e+00
1.880000000000000000e+02,6.172504536268933251e+00
1.890000000000000000e+02,6.186366660248902249e+00
1.900000000000000000e+02,6.200146231067840574e+00
1.910000000000000000e+02,6.213844268589089559e+00
1.920000000000000000e+02,6.227461652401578007e+00
1.930000000000000000e+02,6.240999816195429872e+00
1.940000000000000000e+02,6.254458042700208331e+00
1.950000000000000000e+02,6.267837651511390717e+00
1.960000000000000000e+02,6.281139819509779620e+00
1.970000000000000000e+02,6.294365111257918421e+00
1.980000000000000000e+02,6.307514433422692690e+00
1.990000000000000000e+02,6.320588793320290222e+00
2.000000000000000000e+02,6.333588596573770602e+00
2.010000000000000000e+02,6.346515083533395440e+00
2.020000000000000000e+02,6.359369009880882828e+00
2.030000000000000000e+02,6.372150079880666063e+00
2.040000000000000000e+02,6.384859494256219570e+00
2.050000000000000000e+02,6.397497975661977421e+00
2.060000000000000000e+02,6.410066091555926882e+00
2.070000000000000000e+02,6.422565051876793163e+00
2.080000000000000000e+02,6.434995254953014943e+00
2.090000000000000000e+02,6.447357345125217520e+00
2.100000000000000000e+02,6.459652292242383353e+00
2.110000000000000000e+02,6.471880770711122999e+00
2.120000000000000000e+02,6.484043443553293429e+00
2.130000000000000000e+02,6.496140130483544439e+00
2.140000000000000000e+02,6.508171481757155874e+00
2.150000000000000000e+02,6.520138412166969211e+00
2.160000000000000000e+02,6.532041547567766671e+00
2.170000000000000000e+02,6.543881503544347389e+00
2.180000000000000000e+02,6.555659158022749899e+00
2.190000000000000000e+02,6.567374560999081012e+00
2.200000000000000000e+02,6.579028842415174161e+00
2.210000000000000000e+02,6.590622576161866419e+00
2.220000000000000000e+02,6.602156058449450526e+00
2.230000000000000000e+02,6.613629847914698878e+00
2.240000000000000000e+02,6.625044761110443048e+00
2.250000000000000000e+02,6.636401070754125442e+00
2.260000000000000000e+02,6.647699044812982905e+00
2.270000000000000000e+02,6.658938682592430602e+00
2.280000000000000000e+02,6.670121297918861991e+00
2.290000000000000000e+02,6.681247137108020873e+00
2.300000000000000000e+02,6.692316964955441705e+00
2.310000000000000000e+02,6.703331014179590319e+00
2.320000000000000000e+02,6.714289773148939489e+00
2.330000000000000000e+02,6.725193981743677440e+00
2.340000000000000000e+02,6.736043853375146995e+00
2.350000000000000000e+02,6.746840369277957272e+00
2.360000000000000000e+02,6.757583215546673294e+00
2.370000000000000000e+02,6.768273359029336689e+00
2.380000000000000000e+02,6.778910734572295205e+00
2.390000000000000000e+02,6.789496546656804910e+00
2.400000000000000000e+02,6.800030971319143802e+00
2.410000000000000000e+02,6.810513929205105121e+00
2.420000000000000000e+02,6.820946347501001483e+00
2.430000000000000000e+02,6.831328388733290957e+00
2.440000000000000000e+02,6.841660712805197164e+00
2.450000000000000000e+02,6.851943472200749952e+00
2.460000000000000000e+02,6.862177313959834102e+00
2.470000000000000000e+02,6.872362876643617113e+00
2.480000000000000000e+02,6.882500049130889863e+00
2.490000000000000000e+02,6.892588967239115405e+00
2.500000000000000000e+02,6.902630255795283887e+00
2.510000000000000000e+02,6.912624531617635348e+00
2.520000000000000000e+02,6.922572159402945680e+00
2.530000000000000000e+02,6.932473498943745760e+00
2.540000000000000000e+02,6.942328662334065648e+00
2.550000000000000000e+02,6.952138001880316054e+00
2.560000000000000000e+02,6.961902106732153150e+00
2.570000000000000000e+02,6.971621317907596982e+00
2.580000000000000000e+02,6.981295491589395219e+00
2.590000000000000000e+02,6.990925921970173817e+00
2.600000000000000000e+02,7.000511977460451618e+00
2.610000000000000000e+02,7.010054461979134288e+00
2.620000000000000000e+02,7.019553457350169445e+00
2.630000000000000000e+02,7.029009517721981126e+00
2.640000000000000000e+02,7.038422954359163874e+00
2.650000000000000000e+02,7.047794074575802981e+00
2.660000000000000000e+02,7.057123181803696355e+00
2.670000000000000000e+02,7.066410575659073601e+00
2.680000000000000000e+02,7.075656785824829598e+00
2.690000000000000000e+02,7.084861869449132321e+00
2.700000000000000000e+02,7.094026115102595398e+00
2.710000000000000000e+02,7.103149343771763213e+00
2.720000000000000000e+02,7.112232766187203126e+00
2.730000000000000000e+02,7.121275964362308031e+00
2.740000000000000000e+02,7.130279905461677004e+00
2.750000000000000000e+02,7.139244398003757652e+00
2.760000000000000000e+02,7.148169710066752280e+00
2.770000000000000000e+02,7.157055877977207103e+00
2.780000000000000000e+02,7.165904304935257763e+00
2.790000000000000000e+02,7.174714105753677629e+00
2.800000000000000000e+02,7.183486218185769268e+00
2.810000000000000000e+02,7.192220665133289614e+00
2.820000000000000000e+02,7.200917243011302205e+00
2.830000000000000000e+02,7.209576875728584966e+00
2.840000000000000000e+02,7.218199579144162215e+00
2.850000000000000000e+02,7.226785368469738735e+00
2.860000000000000000e+02,7.235334705492874718e+00
2.870000000000000000e+02,7.243848047155909242e+00
2.880000000000000000e+02,7.252325177947315460e+00
2.890000000000000000e+02,7.260766550022418109e+00
2.900000000000000000e+02,7.269172389331384210e+00
2.910000000000000000e+02,7.277543140293945889e+00
2.920000000000000000e+02,7.285878801754861911e+00
2.930000000000000000e+02,7.294179812145546116e+00
2.940000000000000000e+02,7.302445946908327379e+00
2.950000000000000000e+02,7.310677640133650179e+00
2.960000000000000000e+02,7.318875540096352772e+00
2.970000000000000000e+02,7.327039416653716941e+00
2.980000000000000000e+02,7.335169693970203575e+00
2.990000000000000000e+02,7.343266574944207647e+00
3.000000000000000000e+02,7.351330476876020370e+00
3.010000000000000000e+02,7.359361380726660684e+00
3.020000000000000000e+02,7.367359482878805821e+00
3.030000000000000000e+02,7.375324977603000320e+00
3.040000000000000000e+02,7.383258057088379012e+00
3.050000000000000000e+02,7.391158911472811788e+00
3.060000000000000000e+02,7.399027728872483500e+00
3.070000000000000000e+02,7.406864695410952493e+00
3.080000000000000000e+02,7.414669782323036529e+00
3.090000000000000000e+02,7.422443810605876990e+00
3.100000000000000000e+02,7.430186533836523388e+00
3.110000000000000000e+02,7.437898130457454293e+00
3.120000000000000000e+02,7.445579410537153109e+00
3.130000000000000000e+02,7.453230334206930152e+00
3.140000000000000000e+02,7.460850651273318590e+00
3.150000000000000000e+02,7.468440323087535582e+00
3.160000000000000000e+02,7.476000148724890160e+00
3.170000000000000000e+02,7.483529875336556003e+00
3.180000000000000000e+02,7.491030503384107142e+00
3.190000000000000000e+02,7.498500943095036675e+00
3.200000000000000000e+02,7.505941983007401674e+00
3.210000000000000000e+02,7.513354197702093451e+00
3.220000000000000000e+02,7.520737122100204175e+00
3.230000000000000000e+02,7.528091946884122976e+00
3.240000000000000000e+02,7.535417379269186533e+00
3.250000000000000000e+02,7.542714605245523174e+00
3.260000000000000000e+02,7.549983569154599117e+00
3.270000000000000000e+02,7.557224625383090810e+00
3.280000000000000000e+02,7.564437102411595504e+00
3.290000000000000000e+02,7.571621762825810897e+00
3.300000000000000000e+02,7.578779159314200875e+00
3.310000000000000000e+02,7.585908822997584622e+00
3.320000000000000000e+02,7.593011506446620373e+00
3.330000000000000000e+02,7.600086943005378792e+00
3.340000000000000000e+02,7.607135069988329334e+00
3.350000000000000000e+02,7.614156228697019024e+00
3.360000000000000000e+02,7.621150959164842753e+00
3.370000000000000000e+02,7.628118791306420121e+00
3.380000000000000000e+02,7.635060463029017974e+00
3.390000000000000000e+02,7.641975704369067479e+00
3.400000000000000000e+02,7.648865047370874137e+00
3.410000000000000000e+02,7.655728221068627271e+00
3.420000000000000000e+02,7.662565354897129311e+00
3.430000000000000000e+02,7.669377174137570030e+00
3.440000000000000000e+02,7.676162809342891080e+00
3.450000000000000000e+02,7.682923578391828379e+00
3.460000000000000000e+02,7.689659007929400936e+00
3.470000000000000000e+02,7.696369220518441523e+00
3.480000000000000000e+02,7.703054534883819748e+00
3.490000000000000000e+02,7.709714676464447081e+00
3.500000000000000000e+02,7.716350158733326303e+00
3.510000000000000000e+02,7.722961098852162642e+00
3.520000000000000000e+02,7.729547417000195431e+00
3.530000000000000000e+02,7.736109620439853174e+00
3.540000000000000000e+02,7.742647431681421111e+00
3.550000000000000000e+02,7.749161354616154185e+00
3.560000000000000000e+02,7.755651305670791196e+00
3.570000000000000000e+02,7.762117201589559201e+00
3.580000000000000000e+02,7.768559347360325162e+00
3.590000000000000000e+02,7.774978045710734698e+00
3.600000000000000000e+02,7.781373597139289444e+00
3.610000000000000000e+02,7.787745334882123949e+00
3.620000000000000000e+02,7.794094137880665407e+00
3.630000000000000000e+02,7.800419724815106370e+00
3.640000000000000000e+02,7.806722200110661980e+00
3.650000000000000000e+02,7.813002050823910416e+00
3.660000000000000000e+02,7.819258994824660469e+00
3.670000000000000000e+02,7.825493707338336158e+00
3.680000000000000000e+02,7.831705332264678354e+00
3.690000000000000000e+02,7.837894543106057377e+00
3.700000000000000000e+02,7.844062008896825589e+00
3.710000000000000000e+02,7.850207064592031436e+00
3.720000000000000000e+02,7.856329997379043917e+00
3.730000000000000000e+02,7.862430903080962707e+00
3.740000000000000000e+02,7.868509876716428764e+00
3.750000000000000000e+02,7.874567578848760796e+00
3.760000000000000000e+02,7.880603346348926230e+00
3.770000000000000000e+02,7.886617649160002408e+00
3.780000000000000000e+02,7.892610202488211435e+00
3.790000000000000000e+02,7.898581661230368312e+00
3.800000000000000000e+02,7.904532114077525762e+00
3.810000000000000000e+02,7.910461461925095250e+00
3.820000000000000000e+02,7.916369979651197930e+00
3.830000000000000000e+02,7.922256821220384104e+00
3.840000000000000000e+02,7.928123566510211440e+00
3.850000000000000000e+02,7.933969554311775418e+00
3.860000000000000000e+02,7.939794869886565465e+00
3.870000000000000000e+02,7.945599412387599259e+00
3.880000000000000000e+02,7.951383636815729794e+00
3.890000000000000000e+02,7.957147810461418835e+00
3.900000000000000000e+02,7.962891829660063259e+00
3.910000000000000000e+02,7.968615591165733925e+00
3.920000000000000000e+02,7.974319360316199479e+00
3.930000000000000000e+02,7.980003400754408283e+00
3.940000000000000000e+02,7.985667240194701755e+00
3.950000000000000000e+02,7.991311691978858711e+00
3.960000000000000000e+02,7.996936466408324229e+00
3.970000000000000000e+02,8.002541275241206620e+00
3.980000000000000000e+02,8.008127109419087120e+00
