# Time [s], Mass [Kg]
1.000000000000000000e+00,9.821874549759997131e-02
2.000000000000000000e+00,9.821874549759994355e-02
3.000000000000000000e+00,9.821874549759984641e-02
4.000000000000000000e+00,9.821874549759937456e-02
5.000000000000000000e+00,9.821874549759751494e-02
6.000000000000000000e+00,9.821874549759132544e-02
7.000000000000000000e+00,9.821874549757357575e-02
8.000000000000000000e+00,9.821874549752832029e-02
9.000000000000000000e+00,9.821874549742345972e-02
1.000000000000000000e+01,9.821874549719891712e-02
1.100000000000000000e+01,9.821874549674872168e-02
1.200000000000000000e+01,9.821874549589548753e-02
1.300000000000000000e+01,9.821874549435448409e-02
1.400000000000000000e+01,9.821874549168572999e-02
1.500000000000000000e+01,9.821874548723086296e-02
1.600000000000000000e+01,9.821874548003181604e-02
1.700000000000000000e+01,9.821874546872891298e-02
1.800000000000000000e+01,9.821874545143657875e-02
1.900000000000000000e+01,9.821874542559283494e-02
2.000000000000000000e+01,9.821874538777844443e-02
2.100000000000000000e+01,9.821874533349821135e-02
2.200000000000000000e+01,9.821874525692267377e-02
2.300000000000000000e+01,9.821874515062214983e-02
2.400000000000000000e+01,9.821874500522166651e-02
2.500000000000000000e+01,9.821874480901532367e-02
2.600000000000000000e+01,9.821874454755261108e-02
2.700000000000000000e+01,9.821874420316369092e-02
2.800000000000000000e+01,9.821874375447488259e-02
2.900000000000000000e+01,9.821874317579844249e-02
3.000000000000000000e+01,9.821874243649059144e-02
3.100000000000000000e+01,9.821874150024631489e-02
3.200000000000000000e+01,9.821874032430771839e-02
3.300000000000000000e+01,9.821873885882421995e-02
3.400000000000000000e+01,9.821873704600077304e-02
3.500000000000000000e+01,9.821873481888006296e-02
3.600000000000000000e+01,9.821873210057291415e-02
3.700000000000000000e+01,9.821872880303036957e-02
3.800000000000000000e+01,9.821872482612746535e-02
3.900000000000000000e+01,9.821872005644986803e-02
4.000000000000000000e+01,9.821871436626632146e-02
4.100000000000000000e+01,9.821870761182656395e-02
4.200000000000000000e+01,9.821869963147866756e-02
4.300000000000000000e+01,9.821869024600811404e-02
4.400000000000000000e+01,9.821867925629261531e-02
4.500000000000000000e+01,9.821866644091811760e-02
4.600000000000000000e+01,9.821865155493511579e-02
4.700000000000000000e+01,9.821863432885762080e-02
4.800000000000000000e+01,9.821861446689711395e-02
4.900000000000000000e+01,9.821859164528011499e-02
5.000000000000000000e+01,9.821856550892461846e-02
5.100000000000000000e+01,9.821853567220162340e-02
5.200000000000000000e+01,9.821850171588611400e-02
5.300000000000000000e+01,9.821846318271411358e-02
5.400000000000000000e+01,9.821841958007861140e-02
5.500000000000000000e+01,9.821837037498812317e-02
5.600000000000000000e+01,9.821831499074361316e-02
5.700000000000000000e+01,9.821825280902411748e-02
5.800000000000000000e+01,9.821818316729911957e-02
5.900000000000000000e+01,9.821810535398212139e-02
6.000000000000000000e+01,9.821801860722811917e-02
6.100000000000000000e+01,9.821792211089061531e-02
6.200000000000000000e+01,9.821781499077561484e-02
6.300000000000000000e+01,9.821769632050061927e-02
6.400000000000000000e+01,9.821756511700562020e-02
6.500000000000000000e+01,9.821742033288562157e-02
6.600000000000000000e+01,9.821726085418061580e-02
6.700000000000000000e+01,9.821708550548562122e-02
6.800000000000000000e+01,9.821689304452561886e-02
6.900000000000000000e+01,9.821668214968061472e-02
7.000000000000000000e+01,9.821645143669562039e-02
7.100000000000000000e+01,9.821619944509062117e-02
7.200000000000000000e+01,9.821592462692561865e-02
7.300000000000000000e+01,9.821562536056062387e-02
7.400000000000000000e+01,9.821529993872561703e-02
7.500000000000000000e+01,9.821494657585061461e-02
7.600000000000000000e+01,9.821456340263562401e-02
7.700000000000000000e+01,9.821414844968562319e-02
7.800000000000000000e+01,9.821369966394061235e-02
7.900000000000000000e+01,9.821321491064562148e-02
8.000000000000000000e+01,9.821269195326061408e-02
8.100000000000000000e+01,9.821212845116561452e-02
8.200000000000000000e+01,9.821152196632061682e-02
8.300000000000000000e+01,9.821086993532561482e-02
8.400000000000000000e+01,9.821016970515561439e-02
8.500000000000000000e+01,9.820941853508562136e-02
8.600000000000000000e+01,9.820861355251062075e-02
8.700000000000000000e+01,9.820775178758561763e-02
8.800000000000000000e+01,9.820683018450061808e-02
8.900000000000000000e+01,9.820584556252562325e-02
9.000000000000000000e+01,9.820479459507561182e-02
9.100000000000000000e+01,9.820367384942561839e-02
9.200000000000000000e+01,9.820247982887561622e-02
9.300000000000000000e+01,9.820120888152561456e-02
9.400000000000000000e+01,9.819985723457562432e-02
9.500000000000000000e+01,9.819842100512561622e-02
9.600000000000000000e+01,9.819689616042562297e-02
9.700000000000000000e+01,9.819527858777561680e-02
9.800000000000000000e+01,9.819356401262561984e-02
9.900000000000000000e+01,9.819174805597562228e-02
1.000000000000000000e+02,9.818982625372561779e-02
1.010000000000000000e+02,9.818779400302561633e-02
1.020000000000000000e+02,9.818564653337562287e-02
1.030000000000000000e+02,9.818337893012561712e-02
1.040000000000000000e+02,9.818098622652561558e-02
1.050000000000000000e+02,9.817846334412562437e-02
1.060000000000000000e+02,9.817580501947562044e-02
1.070000000000000000e+02,9.817300586917561411e-02
1.080000000000000000e+02,9.817006042157562506e-02
1.090000000000000000e+02,9.816696305997561767e-02
1.100000000000000000e+02,9.816370801887561170e-02
1.110000000000000000e+02,9.816028953817561298e-02
1.120000000000000000e+02,9.815670175267561526e-02
1.130000000000000000e+02,9.815293853847562033e-02
1.140000000000000000e+02,9.814899372942562095e-02
1.150000000000000000e+02,9.814486107562561679e-02
1.160000000000000000e+02,9.814053415212561915e-02
1.170000000000000000e+02,9.813600646547561424e-02
1.180000000000000000e+02,9.813127144707561866e-02
1.190000000000000000e+02,9.812632236242561923e-02
1.200000000000000000e+02,9.812115237157562064e-02
1.210000000000000000e+02,9.811575468302562164e-02
1.220000000000000000e+02,9.811012243292561996e-02
1.230000000000000000e+02,9.810424862012562253e-02
1.240000000000000000e+02,9.809812610342562300e-02
1.250000000000000000e+02,9.809174769497561175e-02
1.260000000000000000e+02,9.808510616097561308e-02
1.270000000000000000e+02,9.807819421057561993e-02
1.280000000000000000e+02,9.807100451247562078e-02
1.290000000000000000e+02,9.806352972777561405e-02
1.300000000000000000e+02,9.805576241067562315e-02
1.310000000000000000e+02,9.804769492872561498e-02
1.320000000000000000e+02,9.803931982972562131e-02
1.330000000000000000e+02,9.803062952007561559e-02
1.340000000000000000e+02,9.802161639612562427e-02
1.350000000000000000e+02,9.801227289252562036e-02
1.360000000000000000e+02,9.800259139732561686e-02
1.370000000000000000e+02,9.799256437437561806e-02
1.380000000000000000e+02,9.798218415037561468e-02
1.390000000000000000e+02,9.797144300437561626e-02
1.400000000000000000e+02,9.796033344837562495e-02
1.410000000000000000e+02,9.794884791237562505e-02
1.420000000000000000e+02,9.793697891537561651e-02
1.430000000000000000e+02,9.792471901787562494e-02
1.440000000000000000e+02,9.791206052037561280e-02
1.450000000000000000e+02,9.789899617237561580e-02
1.460000000000000000e+02,9.788551851237561885e-02
1.470000000000000000e+02,9.787162007637562056e-02
1.480000000000000000e+02,9.785729388987561561e-02
1.490000000000000000e+02,9.784253268037561291e-02
1.500000000000000000e+02,9.782732923037561201e-02
1.510000000000000000e+02,9.781167688087562262e-02
1.520000000000000000e+02,9.779556882537561446e-02
1.530000000000000000e+02,9.777899809187562408e-02
1.540000000000000000e+02,9.776195785187562215e-02
1.550000000000000000e+02,9.774444138787562186e-02
1.560000000000000000e+02,9.772644246237562060e-02
1.570000000000000000e+02,9.770795478937562006e-02
1.580000000000000000e+02,9.768897187387562409e-02
1.590000000000000000e+02,9.766948755037561936e-02
1.600000000000000000e+02,9.764949591837561449e-02
1.610000000000000000e+02,9.762899107037562030e-02
1.620000000000000000e+02,9.760796729137562189e-02
1.630000000000000000e+02,9.758641891837561977e-02
1.640000000000000000e+02,9.756434035787561743e-02
1.650000000000000000e+02,9.754172657287561721e-02
1.660000000000000000e+02,9.751857254737561487e-02
1.670000000000000000e+02,9.749487312737561973e-02
1.680000000000000000e+02,9.747062340637561995e-02
1.690000000000000000e+02,9.744581868737561825e-02
1.700000000000000000e+02,9.742045434037562013e-02
1.710000000000000000e+02,9.739452591037561779e-02
1.720000000000000000e+02,9.736802939437562421e-02
1.730000000000000000e+02,9.734096072137561617e-02
1.740000000000000000e+02,9.731331569987561325e-02
1.750000000000000000e+02,9.728509052687561720e-02
1.760000000000000000e+02,9.725628170687561358e-02
1.770000000000000000e+02,9.722688576537562299e-02
1.780000000000000000e+02,9.719689954487562011e-02
1.790000000000000000e+02,9.716632000887562293e-02
1.800000000000000000e+02,9.713514367487562085e-02
1.810000000000000000e+02,9.710336779587562528e-02
1.820000000000000000e+02,9.707099012937561722e-02
1.830000000000000000e+02,9.703800800637561730e-02
1.840000000000000000e+02,9.700441899187561834e-02
1.850000000000000000e+02,9.697022065737562202e-02
1.860000000000000000e+02,9.693541079287561202e-02
1.870000000000000000e+02,9.690014310587562185e-02
1.880000000000000000e+02,9.686443790387562480e-02
1.890000000000000000e+02,9.682815075137561622e-02
1.900000000000000000e+02,9.679126557287562327e-02
1.910000000000000000e+02,9.675377280887562104e-02
1.920000000000000000e+02,9.671566584537562294e-02
1.930000000000000000e+02,9.667693996687562463e-02
1.940000000000000000e+02,9.663759182887561583e-02
1.950000000000000000e+02,9.659761809837562330e-02
1.960000000000000000e+02,9.655701627237561757e-02
1.970000000000000000e+02,9.651578490537561505e-02
1.980000000000000000e+02,9.647392236487561945e-02
1.990000000000000000e+02,9.643142727637561695e-02
2.000000000000000000e+02,9.638829854887562276e-02
2.010000000000000000e+02,9.634453526237561627e-02
2.020000000000000000e+02,9.630013676437561287e-02
2.030000000000000000e+02,9.625510225987561619e-02
2.040000000000000000e+02,9.620943175187561536e-02
2.050000000000000000e+02,9.616312525287562529e-02
2.060000000000000000e+02,9.611618262687561531e-02
2.070000000000000000e+02,9.606860394387561897e-02
2.080000000000000000e+02,9.602038878937561861e-02
2.090000000000000000e+02,9.597153750737562328e-02
2.100000000000000000e+02,9.592205056387562156e-02
2.110000000000000000e+02,9.587192814137561470e-02
2.120000000000000000e+02,9.582117052637562082e-02
2.130000000000000000e+02,9.576977823487561881e-02
2.140000000000000000e+02,9.571775192237562402e-02
2.150000000000000000e+02,9.566509207787561586e-02
2.160000000000000000e+02,9.561179905437561244e-02
2.170000000000000000e+02,9.555787368187561304e-02
2.180000000000000000e+02,9.550331676837561790e-02
2.190000000000000000e+02,9.544812899487561952e-02
2.200000000000000000e+02,9.539231118937561982e-02
2.210000000000000000e+02,9.533586411337562072e-02
2.220000000000000000e+02,9.527878843737562498e-02
2.230000000000000000e+02,9.522108481737562302e-02
2.240000000000000000e+02,9.516275488737561961e-02
2.250000000000000000e+02,9.510379963887562182e-02
2.260000000000000000e+02,9.504422000387562075e-02
2.270000000000000000e+02,9.498401693887562058e-02
2.280000000000000000e+02,9.492319122387561647e-02
2.290000000000000000e+02,9.486174384587561792e-02
2.300000000000000000e+02,9.479967556037562082e-02
2.310000000000000000e+02,9.473698748537562331e-02
2.320000000000000000e+02,9.467368055237561364e-02
2.330000000000000000e+02,9.460975552337562433e-02
2.340000000000000000e+02,9.454521377287561368e-02
2.350000000000000000e+02,9.448005627237561488e-02
2.360000000000000000e+02,9.441428400387562314e-02
2.370000000000000000e+02,9.434789834437562472e-02
2.380000000000000000e+02,9.428089963337561719e-02
2.390000000000000000e+02,9.421328898637562621e-02
2.400000000000000000e+02,9.414506771787561901e-02
2.410000000000000000e+02,9.407623650087562628e-02
2.420000000000000000e+02,9.400679678287561514e-02
2.430000000000000000e+02,9.393674964537561400e-02
2.440000000000000000e+02,9.386609534237562447e-02
2.450000000000000000e+02,9.379483498637561367e-02
2.460000000000000000e+02,9.372296975837561550e-02
2.470000000000000000e+02,9.365050022787561879e-02
2.480000000000000000e+02,9.357742754287562414e-02
2.490000000000000000e+02,9.350375282037562408e-02
2.500000000000000000e+02,9.342947663237562150e-02
2.510000000000000000e+02,9.335459983087561475e-02
2.520000000000000000e+02,9.327912374937562257e-02
2.530000000000000000e+02,9.320304894087562408e-02
2.540000000000000000e+02,9.312637570587561919e-02
2.550000000000000000e+02,9.304910538337561599e-02
2.560000000000000000e+02,9.297123867387561968e-02
2.570000000000000000e+02,9.289277607737561615e-02
2.580000000000000000e+02,9.281371832887562456e-02
2.590000000000000000e+02,9.273406630987561516e-02
2.600000000000000000e+02,9.265382050987562568e-02
2.610000000000000000e+02,9.257298119037561668e-02
2.620000000000000000e+02,9.249154976737561373e-02
2.630000000000000000e+02,9.240942817287561839e-02
2.640000000000000000e+02,9.232670228237561949e-02
2.650000000000000000e+02,9.224353050037562007e-02
2.660000000000000000e+02,9.215987068537562221e-02
2.670000000000000000e+02,9.207569610637561519e-02
2.680000000000000000e+02,9.199098797437561814e-02
2.690000000000000000e+02,9.190573227487562613e-02
2.700000000000000000e+02,9.181991879287562663e-02
2.710000000000000000e+02,9.173353901287562007e-02
2.720000000000000000e+02,9.164658576187562078e-02
2.730000000000000000e+02,9.155905403537561993e-02
2.740000000000000000e+02,9.147093973287562241e-02
2.750000000000000000e+02,9.138223969987561979e-02
2.760000000000000000e+02,9.129295077737561992e-02
2.770000000000000000e+02,9.120307047437561931e-02
2.780000000000000000e+02,9.111259748937561298e-02
2.790000000000000000e+02,9.102153040337561396e-02
2.800000000000000000e+02,9.092986824287561942e-02
2.810000000000000000e+02,9.083761011987562251e-02
2.820000000000000000e+02,9.074475489387562321e-02
2.830000000000000000e+02,9.065130200487561685e-02
2.840000000000000000e+02,9.055725175337561716e-02
2.850000000000000000e+02,9.046260363637562141e-02
2.860000000000000000e+02,9.036735673837562044e-02
2.870000000000000000e+02,9.027151112187561943e-02
2.880000000000000000e+02,9.017506680437561983e-02
2.890000000000000000e+02,9.007802427937562639e-02
2.900000000000000000e+02,8.998038346687561861e-02
2.910000000000000000e+02,8.988214380387561653e-02
2.920000000000000000e+02,8.978330517587562731e-02
2.930000000000000000e+02,8.968386780787562795e-02
2.940000000000000000e+02,8.958383213137562084e-02
2.950000000000000000e+02,8.948319826137561550e-02
2.960000000000000000e+02,8.938196644137562374e-02
2.970000000000000000e+02,8.928013665137561616e-02
2.980000000000000000e+02,8.917770898137561408e-02
2.990000000000000000e+02,8.907468410137561743e-02
3.000000000000000000e+02,8.897106214137562308e-02
3.010000000000000000e+02,8.886684261137561824e-02
3.020000000000000000e+02,8.876202543137562406e-02
3.030000000000000000e+02,8.865661085637562000e-02
3.040000000000000000e+02,8.855059926137562321e-02
3.050000000000000000e+02,8.844399101637562266e-02
3.060000000000000000e+02,8.833678623637561400e-02
3.070000000000000000e+02,8.822898477637561299e-02
3.080000000000000000e+02,8.812058617637562319e-02
3.090000000000000000e+02,8.801154766637561688e-02
3.100000000000000000e+02,8.790194616137561590e-02
3.110000000000000000e+02,8.779187491137561972e-02
3.120000000000000000e+02,8.768129282637562860e-02
3.130000000000000000e+02,8.757017405137562660e-02
3.140000000000000000e+02,8.745850035137561762e-02
3.150000000000000000e+02,8.734625885137561885e-02
3.160000000000000000e+02,8.723343953637562043e-02
3.170000000000000000e+02,8.712003464637561867e-02
3.180000000000000000e+02,8.700603801637561696e-02
3.190000000000000000e+02,8.689144494137561459e-02
3.200000000000000000e+02,8.677625195137561587e-02
3.210000000000000000e+02,8.666045614137561637e-02
3.220000000000000000e+02,8.654405548637561507e-02
3.230000000000000000e+02,8.642704884137561439e-02
3.240000000000000000e+02,8.630943482637562503e-02
3.250000000000000000e+02,8.619121220637561420e-02
3.260000000000000000e+02,8.607238041137561801e-02
3.270000000000000000e+02,8.595293892137562120e-02
3.280000000000000000e+02,8.583288755637562273e-02
3.290000000000000000e+02,8.571222681637562235e-02
3.300000000000000000e+02,8.559095699637561672e-02
3.310000000000000000e+02,8.546907789137561662e-02
3.320000000000000000e+02,8.534658996637561890e-02
3.330000000000000000e+02,8.522349381137561686e-02
3.340000000000000000e+02,8.509979018137561746e-02
3.350000000000000000e+02,8.497547952137561589e-02
3.360000000000000000e+02,8.485056276137561970e-02
3.370000000000000000e+02,8.472504072637561390e-02
3.380000000000000000e+02,8.459891372137562371e-02
3.390000000000000000e+02,8.447218273637562003e-02
3.400000000000000000e+02,8.434484861137561684e-02
3.410000000000000000e+02,8.421691207137561863e-02
3.420000000000000000e+02,8.408837413637561264e-02
3.430000000000000000e+02,8.395923676637562227e-02
3.440000000000000000e+02,8.382950086637561138e-02
3.450000000000000000e+02,8.369916711637562234e-02
3.460000000000000000e+02,8.356821498637562184e-02
3.470000000000000000e+02,8.343671401137561783e-02
3.480000000000000000e+02,8.330473172637561929e-02
3.490000000000000000e+02,8.317223073637561304e-02
3.500000000000000000e+02,8.303918784137562237e-02
3.510000000000000000e+02,8.290558709637561863e-02
3.520000000000000000e+02,8.277141724137561385e-02
3.530000000000000000e+02,8.263667031137561514e-02
3.540000000000000000e+02,8.250134084637561482e-02
3.550000000000000000e+02,8.236542503637561685e-02
3.560000000000000000e+02,8.222892064637561671e-02
3.570000000000000000e+02,8.209182631637561289e-02
3.580000000000000000e+02,8.195414170137561849e-02
3.590000000000000000e+02,8.181586703637561131e-02
3.600000000000000000e+02,8.167700230637561787e-02
3.610000000000000000e+02,8.153754832137560804e-02
3.620000000000000000e+02,8.139750632137561503e-02
3.630000000000000000e+02,8.125687785137561403e-02
3.640000000000000000e+02,8.111566466137561104e-02
3.650000000000000000e+02,8.097386886637561454e-02
3.660000000000000000e+02,8.083149270137561515e-02
3.670000000000000000e+02,8.068853905137561566e-02
3.680000000000000000e+02,8.054501026637561623e-02
3.690000000000000000e+02,8.040090823137562015e-02
3.700000000000000000e+02,8.025623580137561386e-02
3.710000000000000000e+02,8.011099572637561672e-02
3.720000000000000000e+02,7.996519089137561764e-02
3.730000000000000000e+02,7.981882439137560903e-02
3.740000000000000000e+02,7.967189896137560901e-02
3.750000000000000000e+02,7.952441765137562013e-02
3.760000000000000000e+02,7.937638430137561318e-02
3.770000000000000000e+02,7.922780532137561893e-02
3.780000000000000000e+02,7.907874356637561997e-02
3.790000000000000000e+02,7.892923612137561773e-02
3.800000000000000000e+02,7.877924928137561289e-02
3.810000000000000000e+02,7.862876393637562022e-02
3.820000000000000000e+02,7.847776922137561506e-02
3.830000000000000000e+02,7.832625767137561812e-02
3.840000000000000000e+02,7.817422417637562293e-02
3.850000000000000000e+02,7.802166619137561321e-02
3.860000000000000000e+02,7.786858338137561675e-02
3.870000000000000000e+02,7.771497639137561753e-02
3.880000000000000000e+02,7.756084648637562307e-02
3.890000000000000000e+02,7.740619587637562193e-02
3.900000000000000000e+02,7.725102718137560887e-02
3.910000000000000000e+02,7.709534338137560838e-02
3.920000000000000000e+02,7.693914810637561552e-02
3.930000000000000000e+02,7.678244526637562073e-02
3.940000000000000000e+02,7.662523916637561938e-02
3.950000000000000000e+02,7.646753362137560794e-02
3.960000000000000000e+02,7.630933244137561022e-02
3.970000000000000000e+02,7.615064011137560873e-02
3.980000000000000000e+02,7.599146115637561705e-02
3.990000000000000000e+02,7.583180036137561475e-02
