# Time [s], Mass [Kg]
1.000000000000000000e+00,9.821874549759998518e-02
2.000000000000000000e+00,9.821874549759997131e-02
3.000000000000000000e+00,9.821874549759994355e-02
4.000000000000000000e+00,9.821874549759966599e-02
5.000000000000000000e+00,9.821874549759812556e-02
6.000000000000000000e+00,9.821874549759108952e-02
7.000000000000000000e+00,9.821874549756434702e-02
8.000000000000000000e+00,9.821874549747645899e-02
9.000000000000000000e+00,9.821874549721983094e-02
1.000000000000000000e+01,9.821874549654073527e-02
1.100000000000000000e+01,9.821874549488705808e-02
1.200000000000000000e+01,9.821874549113696062e-02
1.300000000000000000e+01,9.821874548314091236e-02
1.400000000000000000e+01,9.821874546698501629e-02
1.500000000000000000e+01,9.821874543585393247e-02
1.600000000000000000e+01,9.821874537833852337e-02
1.700000000000000000e+01,9.821874527599547267e-02
1.800000000000000000e+01,9.821874509992889468e-02
1.900000000000000000e+01,9.821874480612151348e-02
2.000000000000000000e+01,9.821874432919641684e-02
2.100000000000000000e+01,9.821874357426695068e-02
2.200000000000000000e+01,9.821874240647848753e-02
2.300000000000000000e+01,9.821874063778733566e-02
2.400000000000000000e+01,9.821873801057567910e-02
2.500000000000000000e+01,9.821873417759588443e-02
2.600000000000000000e+01,9.821872867764233628e-02
2.700000000000000000e+01,9.821872090664134081e-02
2.800000000000000000e+01,9.821871008355029242e-02
2.900000000000000000e+01,9.821869521025278216e-02
3.000000000000000000e+01,9.821867502556579088e-02
3.100000000000000000e+01,9.821864795259328818e-02
3.200000000000000000e+01,9.821861203826429132e-02
3.300000000000000000e+01,9.821856488608977920e-02
3.400000000000000000e+01,9.821850358110978396e-02
3.500000000000000000e+01,9.821842460493478144e-02
3.600000000000000000e+01,9.821832374458579207e-02
3.700000000000000000e+01,9.821819599304078274e-02
3.800000000000000000e+01,9.821803543731078001e-02
3.900000000000000000e+01,9.821783514272078297e-02
4.000000000000000000e+01,9.821758702934578478e-02
4.100000000000000000e+01,9.821728173351078339e-02
4.200000000000000000e+01,9.821690847036577965e-02
4.300000000000000000e+01,9.821645489051578082e-02
4.400000000000000000e+01,9.821590691893578029e-02
4.500000000000000000e+01,9.821524860397078116e-02
4.600000000000000000e+01,9.821446196434079068e-02
4.700000000000000000e+01,9.821352681602578405e-02
4.800000000000000000e+01,9.821242062157578556e-02
4.900000000000000000e+01,9.821111834397579232e-02
5.000000000000000000e+01,9.820959227362578703e-02
5.100000000000000000e+01,9.820781190637578595e-02
5.200000000000000000e+01,9.820574383572579225e-02
5.300000000000000000e+01,9.820335160232578076e-02
5.400000000000000000e+01,9.820059563122578161e-02
5.500000000000000000e+01,9.819743319467579001e-02
5.600000000000000000e+01,9.819381831937579186e-02
5.700000000000000000e+01,9.818970182132578939e-02
5.800000000000000000e+01,9.818503137837578110e-02
5.900000000000000000e+01,9.817975152852578824e-02
6.000000000000000000e+01,9.817380384302579199e-02
6.100000000000000000e+01,9.816712714682578056e-02
6.200000000000000000e+01,9.815965763947578915e-02
6.300000000000000000e+01,9.815132922697578088e-02
6.400000000000000000e+01,9.814207390237578155e-02
6.500000000000000000e+01,9.813182196652578404e-02
6.600000000000000000e+01,9.812050255252578734e-02
6.700000000000000000e+01,9.810811336302578678e-02
6.800000000000000000e+01,9.809461697652578638e-02
6.900000000000000000e+01,9.807989387152578342e-02
7.000000000000000000e+01,9.806385547752578813e-02
7.100000000000000000e+01,9.804642497052579175e-02
7.200000000000000000e+01,9.802753046852578922e-02
7.300000000000000000e+01,9.800710409952578805e-02
7.400000000000000000e+01,9.798508153802579224e-02
7.500000000000000000e+01,9.796140234952578629e-02
7.600000000000000000e+01,9.793601041802578455e-02
7.700000000000000000e+01,9.790885390352578599e-02
7.800000000000000000e+01,9.787988569102579195e-02
7.900000000000000000e+01,9.784906377002577926e-02
8.000000000000000000e+01,9.781635098102578474e-02
8.100000000000000000e+01,9.778171539852578698e-02
8.200000000000000000e+01,9.774513060252577878e-02
8.300000000000000000e+01,9.770657511152579244e-02
8.400000000000000000e+01,9.766603260152578736e-02
8.500000000000000000e+01,9.762349200852578346e-02
8.600000000000000000e+01,9.757894676402578682e-02
8.700000000000000000e+01,9.753239487052578482e-02
8.800000000000000000e+01,9.748383887552578009e-02
8.900000000000000000e+01,9.743328498752579225e-02
9.000000000000000000e+01,9.738074308252578359e-02
9.100000000000000000e+01,9.732622662452578011e-02
9.200000000000000000e+01,9.726975176602578599e-02
9.300000000000000000e+01,9.721133730502579118e-02
9.400000000000000000e+01,9.715100457902578479e-02
9.500000000000000000e+01,9.708877653202578617e-02
9.600000000000000000e+01,9.702467781402578095e-02
9.700000000000000000e+01,9.695873479952578367e-02
9.800000000000000000e+01,9.689097460252578398e-02
9.900000000000000000e+01,9.682142523252579291e-02
1.000000000000000000e+02,9.675011566552578490e-02
1.010000000000000000e+02,9.667707496152579127e-02
1.020000000000000000e+02,9.660233245202579089e-02
1.030000000000000000e+02,9.652591784652578277e-02
1.040000000000000000e+02,9.644786046602578378e-02
1.050000000000000000e+02,9.636818946602578040e-02
1.060000000000000000e+02,9.628693397852577940e-02
1.070000000000000000e+02,9.620412247002578521e-02
1.080000000000000000e+02,9.611978295052578392e-02
1.090000000000000000e+02,9.603394311152578522e-02
1.100000000000000000e+02,9.594662972552578384e-02
1.110000000000000000e+02,9.585786896552578318e-02
1.120000000000000000e+02,9.576768662702578316e-02
1.130000000000000000e+02,9.567610749952579208e-02
1.140000000000000000e+02,9.558315568602578083e-02
1.150000000000000000e+02,9.548885482502578181e-02
1.160000000000000000e+02,9.539322754502578550e-02
1.170000000000000000e+02,9.529629575902578975e-02
1.180000000000000000e+02,9.519808087002579189e-02
1.190000000000000000e+02,9.509860330002578577e-02
1.200000000000000000e+02,9.499788277002578496e-02
1.210000000000000000e+02,9.489593849002578296e-02
1.220000000000000000e+02,9.479278876002578125e-02
1.230000000000000000e+02,9.468845120502578094e-02
1.240000000000000000e+02,9.458294293502578221e-02
1.250000000000000000e+02,9.447628016002578011e-02
1.260000000000000000e+02,9.436847848002578865e-02
1.270000000000000000e+02,9.425955308502578789e-02
1.280000000000000000e+02,9.414951832502578555e-02
1.290000000000000000e+02,9.403838798002578381e-02
1.300000000000000000e+02,9.392530857502578989e-02
1.310000000000000000e+02,9.381102041502578648e-02
1.320000000000000000e+02,9.369674419002578525e-02
1.330000000000000000e+02,9.358195233502578092e-02
1.340000000000000000e+02,9.346641919002578180e-02
1.350000000000000000e+02,9.335002187502577931e-02
1.360000000000000000e+02,9.323268933502579237e-02
1.370000000000000000e+02,9.311437990502578754e-02
1.380000000000000000e+02,9.299506962502578078e-02
1.390000000000000000e+02,9.287474578502578904e-02
1.400000000000000000e+02,9.275340268502578478e-02
1.410000000000000000e+02,9.263103932002578200e-02
1.420000000000000000e+02,9.250765788002578149e-02
1.430000000000000000e+02,9.238326244502578777e-02
1.440000000000000000e+02,9.225785839502578800e-02
1.450000000000000000e+02,9.213145201002578832e-02
1.460000000000000000e+02,9.200404993502578344e-02
1.470000000000000000e+02,9.187565904502578706e-02
1.480000000000000000e+02,9.174628635002578247e-02
1.490000000000000000e+02,9.161593870502578174e-02
1.500000000000000000e+02,9.148462284002578659e-02
1.510000000000000000e+02,9.135234537002578925e-02
1.520000000000000000e+02,9.121911259002578320e-02
1.530000000000000000e+02,9.108493055002578331e-02
1.540000000000000000e+02,9.094980509502578747e-02
1.550000000000000000e+02,9.081374168002578906e-02
1.560000000000000000e+02,9.067674549502578729e-02
1.570000000000000000e+02,9.053882155002579424e-02
1.580000000000000000e+02,9.039997445002578846e-02
1.590000000000000000e+02,9.026020854002578253e-02
1.600000000000000000e+02,9.011952800502578964e-02
1.610000000000000000e+02,8.997793664002579073e-02
1.620000000000000000e+02,8.983467817002578626e-02
1.630000000000000000e+02,8.969048291002579276e-02
1.640000000000000000e+02,8.954643746502578827e-02
1.650000000000000000e+02,8.940198375002578191e-02
1.660000000000000000e+02,8.925688388502578396e-02
1.670000000000000000e+02,8.911100925502578318e-02
1.680000000000000000e+02,8.896428516502578876e-02
1.690000000000000000e+02,8.881666732502578598e-02
1.700000000000000000e+02,8.866812909002579068e-02
1.710000000000000000e+02,8.851865479002578307e-02
1.720000000000000000e+02,8.836823572502577884e-02
1.730000000000000000e+02,8.821686746502578613e-02
1.740000000000000000e+02,8.806454839502578236e-02
1.750000000000000000e+02,8.791127876502578820e-02
1.760000000000000000e+02,8.775705984502578383e-02
1.770000000000000000e+02,8.760189358002579141e-02
1.780000000000000000e+02,8.744578234002578498e-02
1.790000000000000000e+02,8.728872858002578727e-02
1.800000000000000000e+02,8.713073478502578184e-02
1.810000000000000000e+02,8.697180342502579264e-02
1.820000000000000000e+02,8.681193677502578587e-02
1.830000000000000000e+02,8.665113694502578345e-02
1.840000000000000000e+02,8.648940589502579490e-02
1.850000000000000000e+02,8.632674528502579103e-02
1.860000000000000000e+02,8.616315657002579509e-02
1.870000000000000000e+02,8.599864105502579015e-02
1.880000000000000000e+02,8.583319972502578832e-02
1.890000000000000000e+02,8.566607327502578917e-02
1.900000000000000000e+02,8.549800598502578508e-02
1.910000000000000000e+02,8.533008248502578497e-02
1.920000000000000000e+02,8.516171889502578696e-02
1.930000000000000000e+02,8.499266536502578240e-02
1.940000000000000000e+02,8.482278759002578883e-02
1.950000000000000000e+02,8.465200803502578863e-02
1.960000000000000000e+02,8.448028099502578880e-02
1.970000000000000000e+02,8.430757904502578226e-02
1.980000000000000000e+02,8.413388593002578408e-02
1.990000000000000000e+02,8.395919229502578351e-02
2.000000000000000000e+02,8.378349295002579522e-02
2.010000000000000000e+02,8.360678535502578945e-02
2.020000000000000000e+02,8.342906865002579220e-02
2.030000000000000000e+02,8.325034282502578875e-02
2.040000000000000000e+02,8.307060838502577926e-02
2.050000000000000000e+02,8.288986612002578747e-02
2.060000000000000000e+02,8.270811677502579173e-02
2.070000000000000000e+02,8.252536100502579075e-02
2.080000000000000000e+02,8.234159935002578756e-02
2.090000000000000000e+02,8.215683207002578980e-02
2.100000000000000000e+02,8.197105918002578484e-02
2.110000000000000000e+02,8.178428048002578388e-02
2.120000000000000000e+02,8.159583579502578676e-02
2.130000000000000000e+02,8.140642581002578704e-02
2.140000000000000000e+02,8.121700081002578009e-02
2.150000000000000000e+02,8.102699196002578763e-02
2.160000000000000000e+02,8.083616081002578668e-02
2.170000000000000000e+02,8.064438242502577903e-02
2.180000000000000000e+02,8.045158617002579060e-02
2.190000000000000000e+02,8.025773122502578849e-02
2.200000000000000000e+02,8.006279363502578905e-02
2.210000000000000000e+02,7.986675928002578972e-02
2.220000000000000000e+02,7.966961993002578957e-02
2.230000000000000000e+02,7.947137095002579366e-02
2.240000000000000000e+02,7.927200967002578924e-02
2.250000000000000000e+02,7.907153457502578975e-02
2.260000000000000000e+02,7.886994481502579424e-02
2.270000000000000000e+02,7.866723969502578684e-02
2.280000000000000000e+02,7.846341852502577985e-02
2.290000000000000000e+02,7.825848053002579241e-02
2.300000000000000000e+02,7.805242463502579109e-02
2.310000000000000000e+02,7.784524951502577728e-02
2.320000000000000000e+02,7.763695360502578802e-02
2.330000000000000000e+02,7.742687011002578890e-02
2.340000000000000000e+02,7.721569194002578240e-02
2.350000000000000000e+02,7.700436484002579074e-02
2.360000000000000000e+02,7.679231634502578507e-02
2.370000000000000000e+02,7.657930728502579387e-02
2.380000000000000000e+02,7.636521336502578861e-02
2.390000000000000000e+02,7.614996484502578600e-02
2.400000000000000000e+02,7.593352172502579323e-02
2.410000000000000000e+02,7.571586061002578971e-02
2.420000000000000000e+02,7.549696771002578632e-02
2.430000000000000000e+02,7.527683490502579122e-02
2.440000000000000000e+02,7.505545747502578857e-02
2.450000000000000000e+02,7.483283253502578947e-02
2.460000000000000000e+02,7.460895828002579722e-02
2.470000000000000000e+02,7.438383353502579787e-02
2.480000000000000000e+02,7.415745727002578946e-02
2.490000000000000000e+02,7.392982849502580112e-02
2.500000000000000000e+02,7.370094622502579296e-02
2.510000000000000000e+02,7.347029109002578551e-02
2.520000000000000000e+02,7.323848074002578534e-02
2.530000000000000000e+02,7.300626861502579334e-02
2.540000000000000000e+02,7.277312812002578735e-02
2.550000000000000000e+02,7.253884658002579533e-02
2.560000000000000000e+02,7.230331800002579024e-02
2.570000000000000000e+02,7.206648599502579744e-02
2.580000000000000000e+02,7.182832068002578674e-02
2.590000000000000000e+02,7.158880663002578637e-02
2.600000000000000000e+02,7.134793661002579446e-02
2.610000000000000000e+02,7.110570812002579844e-02
2.620000000000000000e+02,7.086212150502579910e-02
2.630000000000000000e+02,7.061717862502579768e-02
2.640000000000000000e+02,7.037088227502578952e-02
2.650000000000000000e+02,7.012323586002579268e-02
2.660000000000000000e+02,6.987424303002578996e-02
2.670000000000000000e+02,6.962390765502579626e-02
2.680000000000000000e+02,6.937170109002580021e-02
2.690000000000000000e+02,6.911823498002579724e-02
2.700000000000000000e+02,6.886427453002579024e-02
2.710000000000000000e+02,6.860930400502579518e-02
2.720000000000000000e+02,6.835312052002578964e-02
2.730000000000000000e+02,6.809562780002580140e-02
2.740000000000000000e+02,6.783677912002579469e-02
2.750000000000000000e+02,6.757655409502580368e-02
2.760000000000000000e+02,6.731494672002580337e-02
2.770000000000000000e+02,6.705195935002579433e-02
2.780000000000000000e+02,6.678759909502579584e-02
2.790000000000000000e+02,6.652187598502579124e-02
2.800000000000000000e+02,6.625480189002580511e-02
2.810000000000000000e+02,6.598638975002579787e-02
2.820000000000000000e+02,6.571665328002579409e-02
2.830000000000000000e+02,6.544560680502579941e-02
2.840000000000000000e+02,6.517273747502580483e-02
2.850000000000000000e+02,6.489864542502579714e-02
2.860000000000000000e+02,6.462408822502579975e-02
2.870000000000000000e+02,6.434857454002579358e-02
2.880000000000000000e+02,6.407192027502579823e-02
2.890000000000000000e+02,6.379404583002579177e-02
2.900000000000000000e+02,6.351491962502579802e-02
2.910000000000000000e+02,6.323453554002579635e-02
2.920000000000000000e+02,6.295290117002580454e-02
2.930000000000000000e+02,6.267003179002579583e-02
2.940000000000000000e+02,6.238594707002579481e-02
2.950000000000000000e+02,6.210066928502579187e-02
2.960000000000000000e+02,6.181422209502579479e-02
2.970000000000000000e+02,6.152662998502579639e-02
2.980000000000000000e+02,6.123791794002579614e-02
2.990000000000000000e+02,6.094760170002579830e-02
3.000000000000000000e+02,6.065626218502579575e-02
3.010000000000000000e+02,6.036463251502579425e-02
3.020000000000000000e+02,6.007225031002579735e-02
3.030000000000000000e+02,5.977895064502579403e-02
3.040000000000000000e+02,5.948466889002579361e-02
3.050000000000000000e+02,5.918938580002579275e-02
3.060000000000000000e+02,5.889310571502578973e-02
3.070000000000000000e+02,5.859584523502579106e-02
3.080000000000000000e+02,5.829762751002579013e-02
3.090000000000000000e+02,5.799847912502578695e-02
3.100000000000000000e+02,5.769842839002578549e-02
3.110000000000000000e+02,5.739750423502578552e-02
3.120000000000000000e+02,5.709573570502578244e-02
3.130000000000000000e+02,5.679266581502578209e-02
3.140000000000000000e+02,5.648884702502578181e-02
3.150000000000000000e+02,5.618497515502578199e-02
3.160000000000000000e+02,5.588061212002578410e-02
3.170000000000000000e+02,5.557560532502578421e-02
3.180000000000000000e+02,5.526989739002578089e-02
3.190000000000000000e+02,5.496347336502577924e-02
3.200000000000000000e+02,5.465633978502577872e-02
3.210000000000000000e+02,5.434851395002578134e-02
3.220000000000000000e+02,5.404001869502578215e-02
3.230000000000000000e+02,5.373087935502578183e-02
3.240000000000000000e+02,5.342112224502577889e-02
3.250000000000000000e+02,5.311077378002578009e-02
3.260000000000000000e+02,5.279939752002577730e-02
3.270000000000000000e+02,5.248751262502577425e-02
3.280000000000000000e+02,5.217577323502577136e-02
3.290000000000000000e+02,5.186375948002577146e-02
3.300000000000000000e+02,5.155132501002577389e-02
3.310000000000000000e+02,5.123841389502577226e-02
3.320000000000000000e+02,5.092500992002577109e-02
3.330000000000000000e+02,5.061111679502577204e-02
3.340000000000000000e+02,5.029674800002577328e-02
3.350000000000000000e+02,4.998192179502577298e-02
3.360000000000000000e+02,4.966665854002576957e-02
3.370000000000000000e+02,4.935097930002577127e-02
3.380000000000000000e+02,4.903490494502577013e-02
3.390000000000000000e+02,4.871795691502577019e-02
3.400000000000000000e+02,4.840065292002577318e-02
3.410000000000000000e+02,4.808367897002577274e-02
3.420000000000000000e+02,4.776660484002577534e-02
3.430000000000000000e+02,4.744927607002577541e-02
3.440000000000000000e+02,4.713162962502577547e-02
3.450000000000000000e+02,4.681364282002577204e-02
3.460000000000000000e+02,4.649531331002577234e-02
3.470000000000000000e+02,4.617664875502577176e-02
3.480000000000000000e+02,4.585766187502577501e-02
3.490000000000000000e+02,4.553836768502577542e-02
3.500000000000000000e+02,4.521878199002577620e-02
3.510000000000000000e+02,4.489892058502577277e-02
3.520000000000000000e+02,4.457825950002577281e-02
3.530000000000000000e+02,4.425731553002577173e-02
3.540000000000000000e+02,4.393681102502577235e-02
3.550000000000000000e+02,4.361630603502577447e-02
3.560000000000000000e+02,4.329563894002577684e-02
3.570000000000000000e+02,4.297474103502577775e-02
3.580000000000000000e+02,4.265358489502577705e-02
3.590000000000000000e+02,4.233216405002577370e-02
3.600000000000000000e+02,4.201048254002577587e-02
3.610000000000000000e+02,4.168854983002577563e-02
3.620000000000000000e+02,4.136637790002577891e-02
3.630000000000000000e+02,4.104397974502577845e-02
3.640000000000000000e+02,4.072082783002577838e-02
3.650000000000000000e+02,4.039741459502577819e-02
3.660000000000000000e+02,4.007445035002577677e-02
3.670000000000000000e+02,3.975150860002577696e-02
3.680000000000000000e+02,3.942843273002577531e-02
3.690000000000000000e+02,3.910515636002577511e-02
3.700000000000000000e+02,3.878165333002577680e-02
3.710000000000000000e+02,3.845791795002577451e-02
3.720000000000000000e+02,3.813395481002577331e-02
3.730000000000000000e+02,3.780977377002577022e-02
3.740000000000000000e+02,3.748538703502576896e-02
3.750000000000000000e+02,3.716080765502576683e-02
3.760000000000000000e+02,3.683604864002576473e-02
3.770000000000000000e+02,3.651047722002576795e-02
3.780000000000000000e+02,3.618461563002577097e-02
3.790000000000000000e+02,3.585928723502577325e-02
3.800000000000000000e+02,3.553403430502577454e-02
3.810000000000000000e+02,3.520868647502577164e-02
3.820000000000000000e+02,3.488317125002576846e-02
3.830000000000000000e+02,3.455746020502577232e-02
3.840000000000000000e+02,3.423154756002577681e-02
3.850000000000000000e+02,3.390543884002578112e-02
3.860000000000000000e+02,3.357914510002578401e-02
3.870000000000000000e+02,3.325267974002578397e-02
3.880000000000000000e+02,3.292605680502577736e-02
3.890000000000000000e+02,3.259928988002577799e-02
3.900000000000000000e+02,3.227166739002577944e-02
3.910000000000000000e+02,3.194371521002578596e-02
3.920000000000000000e+02,3.161633271002578516e-02
3.930000000000000000e+02,3.128905403502578453e-02
3.940000000000000000e+02,3.096170846002578581e-02
3.950000000000000000e+02,3.063422682502578431e-02
3.960000000000000000e+02,3.030658554502578539e-02
3.970000000000000000e+02,2.997878386502578207e-02
3.980000000000000000e+02,2.965083154002577659e-02
3.990000000000000000e+02,2.932274296002577996e-02
