# Time [s], Mass [Kg]
1.000000000000000000e+00,1.000000000000000000e+00
2.000000000000000000e+00,1.000000000000000000e+00
3.000000000000000000e+00,1.000000000000000000e+00
4.000000000000000000e+00,1.000000000000000000e+00
5.000000000000000000e+00,1.000000000000000000e+00
6.000000000000000000e+00,1.000000000000000000e+00
7.000000000000000000e+00,9.999999400000000316e-01
8.000000000000000000e+00,9.999997000000000469e-01
9.000000000000000000e+00,9.999985700000000310e-01
1.000000000000000000e+01,9.999947000000000141e-01
1.100000000000000000e+01,9.999829500000000371e-01
1.200000000000000000e+01,9.999530899999999889e-01
1.300000000000000000e+01,9.998862099999999975e-01
1.400000000000000000e+01,9.997516300000000022e-01
1.500000000000000000e+01,9.995045099999999572e-01
1.600000000000000000e+01,9.990866800000000048e-01
1.700000000000000000e+01,9.984355000000000313e-01
1.800000000000000000e+01,9.975105499999999958e-01
1.900000000000000000e+01,9.962868700000000466e-01
2.000000000000000000e+01,9.947865000000000180e-01
2.100000000000000000e+01,9.931338400000000455e-01
2.200000000000000000e+01,9.913502299999999989e-01
2.300000000000000000e+01,9.895473700000000372e-01
2.400000000000000000e+01,9.879289900000000069e-01
2.500000000000000000e+01,9.864499599999999591e-01
2.600000000000000000e+01,9.852055299999999960e-01
2.700000000000000000e+01,9.842055400000000454e-01
2.800000000000000000e+01,9.832733900000000249e-01
2.900000000000000000e+01,9.822302499999999714e-01
3.000000000000000000e+01,9.810037600000000024e-01
3.100000000000000000e+01,9.796386400000000050e-01
3.200000000000000000e+01,9.781832099999999697e-01
3.300000000000000000e+01,9.766910699999999945e-01
3.400000000000000000e+01,9.752151399999999803e-01
3.500000000000000000e+01,9.738042399999999876e-01
3.600000000000000000e+01,9.724963899999999883e-01
3.700000000000000000e+01,9.713129400000000135e-01
3.800000000000000000e+01,9.702457199999999782e-01
3.900000000000000000e+01,9.692503799999999670e-01
4.000000000000000000e+01,9.682536699999999552e-01
4.100000000000000000e+01,9.671857999999999844e-01
4.200000000000000000e+01,9.660179599999999533e-01
4.300000000000000000e+01,9.647672800000000048e-01
4.400000000000000000e+01,9.634667000000000092e-01
4.500000000000000000e+01,9.621511699999999445e-01
4.600000000000000000e+01,9.608528600000000308e-01
4.700000000000000000e+01,9.595993800000000018e-01
4.800000000000000000e+01,9.584110399999999919e-01
4.900000000000000000e+01,9.572975599999999918e-01
5.000000000000000000e+01,9.562544200000000494e-01
5.100000000000000000e+01,9.552620600000000239e-01
5.200000000000000000e+01,9.542877100000000112e-01
5.300000000000000000e+01,9.532955300000000021e-01
5.400000000000000000e+01,9.522589399999999982e-01
5.500000000000000000e+01,9.511692499999999661e-01
5.600000000000000000e+01,9.500352100000000188e-01
5.700000000000000000e+01,9.488744700000000254e-01
5.800000000000000000e+01,9.477062800000000120e-01
5.900000000000000000e+01,9.465494800000000541e-01
6.000000000000000000e+01,9.454193699999999811e-01
6.100000000000000000e+01,9.443274699999999466e-01
6.200000000000000000e+01,9.432788500000000020e-01
6.300000000000000000e+01,9.422723699999999702e-01
6.400000000000000000e+01,9.412996200000000036e-01
6.500000000000000000e+01,9.403454100000000482e-01
6.600000000000000000e+01,9.393917299999999804e-01
6.700000000000000000e+01,9.384217299999999540e-01
6.800000000000000000e+01,9.374242999999999881e-01
6.900000000000000000e+01,9.363963600000000387e-01
7.000000000000000000e+01,9.353422500000000417e-01
7.100000000000000000e+01,9.342715700000000512e-01
7.200000000000000000e+01,9.331955899999999637e-01
7.300000000000000000e+01,9.321249700000000527e-01
7.400000000000000000e+01,9.310689599999999455e-01
7.500000000000000000e+01,9.300342200000000226e-01
7.600000000000000000e+01,9.290239799999999715e-01
7.700000000000000000e+01,9.280380000000000296e-01
7.800000000000000000e+01,9.270718700000000201e-01
7.900000000000000000e+01,9.261179000000000494e-01
8.000000000000000000e+01,9.251665500000000320e-01
8.100000000000000000e+01,9.242076299999999467e-01
8.200000000000000000e+01,9.232331499999999469e-01
8.300000000000000000e+01,9.222387100000000171e-01
8.400000000000000000e+01,9.212239399999999634e-01
8.500000000000000000e+01,9.201923600000000425e-01
8.600000000000000000e+01,9.191500500000000518e-01
8.700000000000000000e+01,9.181037499999999962e-01
8.800000000000000000e+01,9.170602599999999605e-01
8.900000000000000000e+01,9.160247999999999724e-01
9.000000000000000000e+01,9.150007999999999475e-01
9.100000000000000000e+01,9.139895399999999892e-01
9.200000000000000000e+01,9.129900300000000080e-01
9.300000000000000000e+01,9.119987499999999692e-01
9.400000000000000000e+01,9.110103200000000401e-01
9.500000000000000000e+01,9.100185600000000319e-01
9.600000000000000000e+01,9.090173200000000175e-01
9.700000000000000000e+01,9.080020199999999653e-01
9.800000000000000000e+01,9.069701399999999802e-01
9.900000000000000000e+01,9.059219400000000366e-01
1.000000000000000000e+02,9.048595400000000177e-01
1.010000000000000000e+02,9.037870199999999965e-01
1.020000000000000000e+02,9.027088899999999860e-01
1.030000000000000000e+02,9.016295699999999913e-01
1.040000000000000000e+02,9.005520900000000273e-01
1.050000000000000000e+02,8.994785499999999878e-01
1.060000000000000000e+02,8.984088900000000155e-01
1.070000000000000000e+02,8.973418499999999964e-01
1.080000000000000000e+02,8.962741499999999917e-01
1.090000000000000000e+02,8.952020400000000322e-01
1.100000000000000000e+02,8.941210499999999728e-01
1.110000000000000000e+02,8.930274200000000162e-01
1.120000000000000000e+02,8.919186599999999743e-01
1.130000000000000000e+02,8.907937999999999690e-01
1.140000000000000000e+02,8.896534400000000176e-01
1.150000000000000000e+02,8.884997999999999507e-01
1.160000000000000000e+02,8.873356599999999705e-01
1.170000000000000000e+02,8.861640699999999704e-01
1.180000000000000000e+02,8.849874699999999983e-01
1.190000000000000000e+02,8.838072399999999940e-01
1.200000000000000000e+02,8.826234899999999550e-01
1.210000000000000000e+02,8.814349799999999791e-01
1.220000000000000000e+02,8.802394900000000133e-01
1.230000000000000000e+02,8.790340399999999610e-01
1.240000000000000000e+02,8.778152500000000469e-01
1.250000000000000000e+02,8.765805399999999636e-01
1.260000000000000000e+02,8.753281200000000428e-01
1.270000000000000000e+02,8.740572899999999867e-01
1.280000000000000000e+02,8.727686399999999844e-01
1.290000000000000000e+02,8.714636000000000049e-01
1.300000000000000000e+02,8.701440099999999678e-01
1.310000000000000000e+02,8.688113100000000033e-01
1.320000000000000000e+02,8.674665700000000479e-01
1.330000000000000000e+02,8.661099700000000068e-01
1.340000000000000000e+02,8.647405500000000522e-01
1.350000000000000000e+02,8.633563499999999946e-01
1.360000000000000000e+02,8.619551699999999927e-01
1.370000000000000000e+02,8.605344299999999613e-01
1.380000000000000000e+02,8.590918800000000299e-01
1.390000000000000000e+02,8.576260799999999573e-01
1.400000000000000000e+02,8.561364999999999670e-01
1.410000000000000000e+02,8.546233199999999641e-01
1.420000000000000000e+02,8.530873100000000431e-01
1.430000000000000000e+02,8.515293600000000129e-01
1.440000000000000000e+02,8.499502500000000182e-01
1.450000000000000000e+02,8.483500499999999667e-01
1.460000000000000000e+02,8.467282699999999496e-01
1.470000000000000000e+02,8.450837100000000435e-01
1.480000000000000000e+02,8.434148999999999674e-01
1.490000000000000000e+02,8.417202200000000190e-01
1.500000000000000000e+02,8.399984200000000234e-01
1.510000000000000000e+02,8.382489699999999822e-01
1.520000000000000000e+02,8.364718599999999560e-01
1.530000000000000000e+02,8.346677999999999598e-01
1.540000000000000000e+02,8.328379999999999672e-01
1.550000000000000000e+02,8.309836999999999918e-01
1.560000000000000000e+02,8.291062099999999546e-01
1.570000000000000000e+02,8.272062500000000318e-01
1.580000000000000000e+02,8.252844200000000185e-01
1.590000000000000000e+02,8.233410700000000082e-01
1.600000000000000000e+02,8.213764999999999539e-01
1.610000000000000000e+02,8.193914900000000001e-01
1.620000000000000000e+02,8.173870399999999536e-01
1.630000000000000000e+02,8.153648399999999796e-01
1.640000000000000000e+02,8.133268999999999638e-01
1.650000000000000000e+02,8.112755999999999856e-01
1.660000000000000000e+02,8.092133999999999716e-01
1.670000000000000000e+02,8.071424999999999850e-01
1.680000000000000000e+02,8.050649199999999617e-01
1.690000000000000000e+02,8.029825699999999511e-01
1.700000000000000000e+02,8.008971200000000179e-01
1.710000000000000000e+02,7.988102999999999732e-01
1.720000000000000000e+02,7.967237799999999925e-01
1.730000000000000000e+02,7.946398300000000470e-01
1.740000000000000000e+02,7.925603399999999743e-01
1.750000000000000000e+02,7.904877700000000340e-01
1.760000000000000000e+02,7.884243100000000171e-01
1.770000000000000000e+02,7.863718899999999623e-01
1.780000000000000000e+02,7.843324499999999588e-01
1.790000000000000000e+02,7.823074500000000153e-01
1.800000000000000000e+02,7.802984099999999978e-01
1.810000000000000000e+02,7.783068400000000553e-01
1.820000000000000000e+02,7.763341099999999662e-01
1.830000000000000000e+02,7.743818199999999985e-01
1.840000000000000000e+02,7.724514599999999787e-01
1.850000000000000000e+02,7.705447100000000216e-01
1.860000000000000000e+02,7.686630500000000144e-01
1.870000000000000000e+02,7.668079700000000054e-01
1.880000000000000000e+02,7.649809100000000139e-01
1.890000000000000000e+02,7.631831199999999926e-01
1.900000000000000000e+02,7.614161400000000191e-01
1.910000000000000000e+02,7.596813399999999827e-01
1.920000000000000000e+02,7.579804100000000489e-01
1.930000000000000000e+02,7.563149900000000203e-01
1.940000000000000000e+02,7.546870700000000154e-01
1.950000000000000000e+02,7.530985500000000332e-01
1.960000000000000000e+02,7.515514500000000098e-01
1.970000000000000000e+02,7.500479799999999475e-01
1.980000000000000000e+02,7.485905299999999762e-01
1.990000000000000000e+02,7.471816500000000305e-01
2.000000000000000000e+02,7.458240999999999898e-01
2.010000000000000000e+02,7.445209600000000094e-01
2.020000000000000000e+02,7.432756400000000152e-01
2.030000000000000000e+02,7.420916600000000418e-01
2.040000000000000000e+02,7.409728799999999449e-01
2.050000000000000000e+02,7.399234799999999668e-01
2.060000000000000000e+02,7.389476299999999664e-01
2.070000000000000000e+02,7.380498599999999465e-01
2.080000000000000000e+02,7.372345300000000545e-01
2.090000000000000000e+02,7.365059299999999753e-01
2.100000000000000000e+02,7.358676199999999445e-01
2.110000000000000000e+02,7.353224200000000321e-01
2.120000000000000000e+02,7.348712699999999653e-01
2.130000000000000000e+02,7.345129799999999820e-01
2.140000000000000000e+02,7.342429799999999895e-01
2.150000000000000000e+02,7.340530800000000244e-01
2.160000000000000000e+02,7.339309499999999709e-01
2.170000000000000000e+02,7.338611499999999621e-01
2.180000000000000000e+02,7.338270500000000363e-01
2.190000000000000000e+02,7.338135199999999969e-01
2.200000000000000000e+02,7.338095300000000432e-01
2.210000000000000000e+02,7.338087599999999489e-01
2.220000000000000000e+02,7.338086999999999804e-01
2.230000000000000000e+02,7.338086999999999804e-01
2.240000000000000000e+02,7.338086999999999804e-01
2.250000000000000000e+02,7.338086999999999804e-01
2.260000000000000000e+02,7.338086999999999804e-01
2.270000000000000000e+02,7.338086999999999804e-01
2.280000000000000000e+02,7.338086999999999804e-01
2.290000000000000000e+02,7.338086999999999804e-01
2.300000000000000000e+02,7.338086999999999804e-01
2.310000000000000000e+02,7.338086999999999804e-01
2.320000000000000000e+02,7.338086999999999804e-01
2.330000000000000000e+02,7.338086999999999804e-01
2.340000000000000000e+02,7.338086999999999804e-01
2.350000000000000000e+02,7.338086999999999804e-01
2.360000000000000000e+02,7.338086999999999804e-01
2.370000000000000000e+02,7.338086999999999804e-01
2.380000000000000000e+02,7.338086999999999804e-01
2.390000000000000000e+02,7.338086999999999804e-01
2.400000000000000000e+02,7.338086999999999804e-01
2.410000000000000000e+02,7.338086999999999804e-01
2.420000000000000000e+02,7.338086999999999804e-01
2.430000000000000000e+02,7.338086999999999804e-01
2.440000000000000000e+02,7.338086999999999804e-01
2.450000000000000000e+02,7.338086999999999804e-01
2.460000000000000000e+02,7.338086999999999804e-01
2.470000000000000000e+02,7.338086999999999804e-01
2.480000000000000000e+02,7.338086999999999804e-01
2.490000000000000000e+02,7.338086999999999804e-01
2.500000000000000000e+02,7.338086999999999804e-01
2.510000000000000000e+02,7.338086999999999804e-01
2.520000000000000000e+02,7.338086999999999804e-01
2.530000000000000000e+02,7.338086999999999804e-01
2.540000000000000000e+02,7.338086999999999804e-01
2.550000000000000000e+02,7.338086999999999804e-01
2.560000000000000000e+02,7.338086999999999804e-01
2.570000000000000000e+02,7.338086999999999804e-01
2.580000000000000000e+02,7.338086999999999804e-01
2.590000000000000000e+02,7.338086999999999804e-01
2.600000000000000000e+02,7.338086999999999804e-01
2.610000000000000000e+02,7.338086999999999804e-01
2.620000000000000000e+02,7.338086999999999804e-01
2.630000000000000000e+02,7.338086999999999804e-01
2.640000000000000000e+02,7.338086999999999804e-01
2.650000000000000000e+02,7.338086999999999804e-01
2.660000000000000000e+02,7.338086999999999804e-01
2.670000000000000000e+02,7.338086999999999804e-01
2.680000000000000000e+02,7.338086999999999804e-01
2.690000000000000000e+02,7.338086999999999804e-01
2.700000000000000000e+02,7.338086999999999804e-01
2.710000000000000000e+02,7.338086999999999804e-01
2.720000000000000000e+02,7.338086999999999804e-01
2.730000000000000000e+02,7.338086999999999804e-01
2.740000000000000000e+02,7.338086999999999804e-01
2.750000000000000000e+02,7.338086999999999804e-01
2.760000000000000000e+02,7.338086999999999804e-01
2.770000000000000000e+02,7.338086999999999804e-01
2.780000000000000000e+02,7.338086999999999804e-01
2.790000000000000000e+02,7.338086999999999804e-01
2.800000000000000000e+02,7.338086999999999804e-01
2.810000000000000000e+02,7.338086999999999804e-01
2.820000000000000000e+02,7.338086999999999804e-01
2.830000000000000000e+02,7.338086999999999804e-01
2.840000000000000000e+02,7.338086999999999804e-01
2.850000000000000000e+02,7.338086999999999804e-01
2.860000000000000000e+02,7.338086999999999804e-01
2.870000000000000000e+02,7.338086999999999804e-01
2.880000000000000000e+02,7.338086999999999804e-01
2.890000000000000000e+02,7.338086999999999804e-01
2.900000000000000000e+02,7.338086999999999804e-01
2.910000000000000000e+02,7.338086999999999804e-01
2.920000000000000000e+02,7.338086999999999804e-01
2.930000000000000000e+02,7.338086999999999804e-01
2.940000000000000000e+02,7.338086999999999804e-01
2.950000000000000000e+02,7.338086999999999804e-01
2.960000000000000000e+02,7.338086999999999804e-01
2.970000000000000000e+02,7.338086999999999804e-01
2.980000000000000000e+02,7.338086999999999804e-01
2.990000000000000000e+02,7.338086999999999804e-01
3.000000000000000000e+02,7.338086999999999804e-01
3.010000000000000000e+02,7.338086999999999804e-01
3.020000000000000000e+02,7.338086999999999804e-01
3.030000000000000000e+02,7.338086999999999804e-01
3.040000000000000000e+02,7.338086999999999804e-01
3.050000000000000000e+02,7.338086999999999804e-01
3.060000000000000000e+02,7.338086999999999804e-01
3.070000000000000000e+02,7.338086999999999804e-01
3.080000000000000000e+02,7.338086999999999804e-01
3.090000000000000000e+02,7.338086999999999804e-01
3.100000000000000000e+02,7.338086999999999804e-01
3.110000000000000000e+02,7.338086999999999804e-01
3.120000000000000000e+02,7.338086999999999804e-01
3.130000000000000000e+02,7.338086999999999804e-01
3.140000000000000000e+02,7.338086999999999804e-01
3.150000000000000000e+02,7.338086999999999804e-01
3.160000000000000000e+02,7.338086999999999804e-01
3.170000000000000000e+02,7.338086999999999804e-01
3.180000000000000000e+02,7.338086999999999804e-01
3.190000000000000000e+02,7.338086999999999804e-01
3.200000000000000000e+02,7.338086999999999804e-01
3.210000000000000000e+02,7.338086999999999804e-01
3.220000000000000000e+02,7.338086999999999804e-01
3.230000000000000000e+02,7.338086999999999804e-01
3.240000000000000000e+02,7.338086999999999804e-01
3.250000000000000000e+02,7.338086999999999804e-01
3.260000000000000000e+02,7.338086999999999804e-01
3.270000000000000000e+02,7.338086999999999804e-01
3.280000000000000000e+02,7.338086999999999804e-01
3.290000000000000000e+02,7.338086999999999804e-01
3.300000000000000000e+02,7.338086999999999804e-01
3.310000000000000000e+02,7.338086999999999804e-01
3.320000000000000000e+02,7.338086999999999804e-01
3.330000000000000000e+02,7.338086999999999804e-01
3.340000000000000000e+02,7.338086999999999804e-01
3.350000000000000000e+02,7.338086999999999804e-01
3.360000000000000000e+02,7.338086999999999804e-01
3.370000000000000000e+02,7.338086999999999804e-01
3.380000000000000000e+02,7.338086999999999804e-01
3.390000000000000000e+02,7.338086999999999804e-01
3.400000000000000000e+02,7.338086999999999804e-01
3.410000000000000000e+02,7.338086999999999804e-01
3.420000000000000000e+02,7.338086999999999804e-01
3.430000000000000000e+02,7.338086999999999804e-01
3.440000000000000000e+02,7.338086999999999804e-01
3.450000000000000000e+02,7.338086999999999804e-01
3.460000000000000000e+02,7.338086999999999804e-01
3.470000000000000000e+02,7.338086999999999804e-01
3.480000000000000000e+02,7.338086999999999804e-01
3.490000000000000000e+02,7.338086999999999804e-01
3.500000000000000000e+02,7.338086999999999804e-01
3.510000000000000000e+02,7.338086999999999804e-01
3.520000000000000000e+02,7.338086999999999804e-01
3.530000000000000000e+02,7.338086999999999804e-01
3.540000000000000000e+02,7.338086999999999804e-01
3.550000000000000000e+02,7.338086999999999804e-01
3.560000000000000000e+02,7.338086999999999804e-01
3.570000000000000000e+02,7.338086999999999804e-01
3.580000000000000000e+02,7.338086999999999804e-01
3.590000000000000000e+02,7.338086999999999804e-01
3.600000000000000000e+02,7.338086999999999804e-01
3.610000000000000000e+02,7.338086999999999804e-01
3.620000000000000000e+02,7.338086999999999804e-01
3.630000000000000000e+02,7.338086999999999804e-01
3.640000000000000000e+02,7.338086999999999804e-01
3.650000000000000000e+02,7.338086999999999804e-01
3.660000000000000000e+02,7.338086999999999804e-01
3.670000000000000000e+02,7.338086999999999804e-01
3.680000000000000000e+02,7.338086999999999804e-01
3.690000000000000000e+02,7.338086999999999804e-01
3.700000000000000000e+02,7.338086999999999804e-01
3.710000000000000000e+02,7.338086999999999804e-01
3.720000000000000000e+02,7.338086999999999804e-01
3.730000000000000000e+02,7.338086999999999804e-01
3.740000000000000000e+02,7.338086999999999804e-01
3.750000000000000000e+02,7.338086999999999804e-01
3.760000000000000000e+02,7.338086999999999804e-01
3.770000000000000000e+02,7.338086999999999804e-01
3.780000000000000000e+02,7.338086999999999804e-01
3.790000000000000000e+02,7.338086999999999804e-01
3.800000000000000000e+02,7.338086999999999804e-01
3.810000000000000000e+02,7.338086999999999804e-01
3.820000000000000000e+02,7.338086999999999804e-01
3.830000000000000000e+02,7.338086999999999804e-01
3.840000000000000000e+02,7.338086999999999804e-01
3.850000000000000000e+02,7.338086999999999804e-01
3.860000000000000000e+02,7.338086999999999804e-01
3.870000000000000000e+02,7.338086999999999804e-01
3.880000000000000000e+02,7.338086999999999804e-01
3.890000000000000000e+02,7.338086999999999804e-01
3.900000000000000000e+02,7.338086999999999804e-01
3.910000000000000000e+02,7.338086999999999804e-01
3.920000000000000000e+02,7.338086999999999804e-01
3.930000000000000000e+02,7.338086999999999804e-01
3.940000000000000000e+02,7.338086999999999804e-01
3.950000000000000000e+02,7.338086999999999804e-01
3.960000000000000000e+02,7.338086999999999804e-01
3.970000000000000000e+02,7.338086999999999804e-01
3.980000000000000000e+02,7.338086999999999804e-01
3.990000000000000000e+02,7.338086999999999804e-01
