# Time [s], Temperature [C]
1.000000000000000000e+00,2.499997099999999861e+01
2.000000000000000000e+00,1.048001900000000006e+02
3.000000000000000000e+00,1.545492900000000134e+02
4.000000000000000000e+00,1.923821000000000083e+02
5.000000000000000000e+00,2.237807599999999866e+02
6.000000000000000000e+00,2.512055499999999881e+02
7.000000000000000000e+00,2.772526599999999917e+02
8.000000000000000000e+00,3.021123000000000047e+02
9.000000000000000000e+00,3.227772800000000188e+02
1.000000000000000000e+01,3.398632799999999747e+02
1.100000000000000000e+01,3.535204200000000014e+02
1.200000000000000000e+01,3.634207799999999793e+02
1.300000000000000000e+01,3.704939299999999776e+02
1.400000000000000000e+01,3.717463999999999942e+02
1.500000000000000000e+01,3.794511699999999905e+02
1.600000000000000000e+01,3.821991300000000251e+02
1.700000000000000000e+01,3.897478899999999840e+02
1.800000000000000000e+01,3.926829799999999864e+02
1.900000000000000000e+01,4.008530000000000086e+02
2.000000000000000000e+01,4.056767899999999827e+02
2.100000000000000000e+01,4.143326999999999884e+02
2.200000000000000000e+01,4.196014700000000062e+02
2.300000000000000000e+01,4.303037400000000048e+02
2.400000000000000000e+01,4.347712999999999965e+02
2.500000000000000000e+01,4.431620500000000220e+02
2.600000000000000000e+01,4.480704299999999876e+02
2.700000000000000000e+01,4.530103799999999978e+02
2.800000000000000000e+01,4.569701800000000276e+02
2.900000000000000000e+01,4.615870400000000018e+02
3.000000000000000000e+01,4.659149199999999951e+02
3.100000000000000000e+01,4.707846099999999865e+02
3.200000000000000000e+01,4.758656300000000101e+02
3.300000000000000000e+01,4.811335100000000011e+02
3.400000000000000000e+01,4.858841199999999958e+02
3.500000000000000000e+01,4.907140499999999861e+02
3.600000000000000000e+01,4.945271000000000186e+02
3.700000000000000000e+01,4.989042699999999968e+02
3.800000000000000000e+01,4.829570299999999747e+02
3.900000000000000000e+01,4.883235199999999736e+02
4.000000000000000000e+01,4.921480399999999804e+02
4.100000000000000000e+01,4.970506899999999746e+02
4.200000000000000000e+01,5.013382300000000100e+02
4.300000000000000000e+01,5.060555400000000077e+02
4.400000000000000000e+01,5.100347300000000246e+02
4.500000000000000000e+01,5.139909099999999853e+02
4.600000000000000000e+01,5.173631599999999935e+02
4.700000000000000000e+01,5.206456299999999828e+02
4.800000000000000000e+01,5.236876200000000381e+02
4.900000000000000000e+01,5.267618400000000065e+02
5.000000000000000000e+01,5.298399699999999939e+02
5.100000000000000000e+01,5.329884600000000319e+02
5.200000000000000000e+01,5.361563700000000381e+02
5.300000000000000000e+01,5.393127399999999625e+02
5.400000000000000000e+01,5.423739000000000487e+02
5.500000000000000000e+01,5.453128100000000131e+02
5.600000000000000000e+01,5.480924700000000485e+02
5.700000000000000000e+01,5.507421900000000505e+02
5.800000000000000000e+01,5.532828399999999647e+02
5.900000000000000000e+01,5.557639199999999846e+02
6.000000000000000000e+01,5.561447799999999688e+02
6.100000000000000000e+01,5.580715300000000525e+02
6.200000000000000000e+01,5.592195400000000518e+02
6.300000000000000000e+01,5.616533200000000079e+02
6.400000000000000000e+01,5.641250599999999622e+02
6.500000000000000000e+01,5.666671099999999797e+02
6.600000000000000000e+01,5.691464200000000346e+02
6.700000000000000000e+01,5.715040900000000192e+02
6.800000000000000000e+01,5.737912599999999657e+02
6.900000000000000000e+01,5.759912699999999859e+02
7.000000000000000000e+01,5.781377599999999575e+02
7.100000000000000000e+01,5.802636700000000474e+02
7.200000000000000000e+01,5.823571799999999712e+02
7.300000000000000000e+01,5.844459799999999632e+02
7.400000000000000000e+01,5.865123300000000199e+02
7.500000000000000000e+01,5.885499899999999798e+02
7.600000000000000000e+01,5.905404099999999517e+02
7.700000000000000000e+01,5.924894399999999450e+02
7.800000000000000000e+01,5.943805499999999711e+02
7.900000000000000000e+01,5.962131299999999783e+02
8.000000000000000000e+01,5.980042700000000195e+02
8.100000000000000000e+01,5.997630599999999959e+02
8.200000000000000000e+01,6.014841300000000501e+02
8.300000000000000000e+01,6.031987900000000309e+02
8.400000000000000000e+01,6.048947100000000319e+02
8.500000000000000000e+01,6.065723900000000413e+02
8.600000000000000000e+01,6.077802100000000110e+02
8.700000000000000000e+01,6.088983799999999746e+02
8.800000000000000000e+01,6.101981200000000172e+02
8.900000000000000000e+01,6.113573599999999715e+02
9.000000000000000000e+01,6.127456700000000183e+02
9.100000000000000000e+01,6.141589999999999918e+02
9.200000000000000000e+01,6.156167000000000371e+02
9.300000000000000000e+01,6.170942400000000134e+02
9.400000000000000000e+01,6.185823400000000447e+02
9.500000000000000000e+01,6.200788000000000011e+02
9.600000000000000000e+01,6.215658600000000433e+02
9.700000000000000000e+01,6.230478500000000395e+02
9.800000000000000000e+01,6.245281400000000076e+02
9.900000000000000000e+01,6.259783300000000281e+02
1.000000000000000000e+02,6.274146700000000010e+02
1.010000000000000000e+02,6.288272699999999986e+02
1.020000000000000000e+02,6.302144799999999805e+02
1.030000000000000000e+02,6.315834999999999582e+02
1.040000000000000000e+02,6.329253499999999804e+02
1.050000000000000000e+02,6.342567699999999604e+02
1.060000000000000000e+02,6.355657300000000305e+02
1.070000000000000000e+02,6.368682300000000396e+02
1.080000000000000000e+02,6.381530199999999695e+02
1.090000000000000000e+02,6.394263300000000072e+02
1.100000000000000000e+02,6.406858499999999594e+02
1.110000000000000000e+02,6.419335300000000188e+02
1.120000000000000000e+02,6.431227999999999838e+02
1.130000000000000000e+02,6.441655299999999897e+02
1.140000000000000000e+02,6.451492899999999509e+02
1.150000000000000000e+02,6.461297600000000330e+02
1.160000000000000000e+02,6.471065700000000334e+02
1.170000000000000000e+02,6.481295199999999568e+02
1.180000000000000000e+02,6.491876800000000003e+02
1.190000000000000000e+02,6.502666600000000017e+02
1.200000000000000000e+02,6.513618800000000419e+02
1.210000000000000000e+02,6.524657600000000457e+02
1.220000000000000000e+02,6.535796500000000151e+02
1.230000000000000000e+02,6.546820099999999911e+02
1.240000000000000000e+02,6.557863200000000461e+02
1.250000000000000000e+02,6.568801899999999705e+02
1.260000000000000000e+02,6.579712500000000546e+02
1.270000000000000000e+02,6.590448599999999715e+02
1.280000000000000000e+02,6.601178599999999506e+02
1.290000000000000000e+02,6.611774900000000343e+02
1.300000000000000000e+02,6.622280899999999519e+02
1.310000000000000000e+02,6.632694099999999935e+02
1.320000000000000000e+02,6.643031600000000481e+02
1.330000000000000000e+02,6.653017599999999447e+02
1.340000000000000000e+02,6.662274800000000141e+02
1.350000000000000000e+02,6.671359300000000303e+02
1.360000000000000000e+02,6.680098900000000413e+02
1.370000000000000000e+02,6.688757900000000518e+02
1.380000000000000000e+02,6.697360800000000154e+02
1.390000000000000000e+02,6.706105300000000398e+02
1.400000000000000000e+02,6.714932900000000018e+02
1.410000000000000000e+02,6.723881800000000339e+02
1.420000000000000000e+02,6.732835099999999784e+02
1.430000000000000000e+02,6.741815199999999777e+02
1.440000000000000000e+02,6.750820300000000316e+02
1.450000000000000000e+02,6.759770499999999629e+02
1.460000000000000000e+02,6.768747600000000375e+02
1.470000000000000000e+02,6.777596399999999903e+02
1.480000000000000000e+02,6.786431300000000419e+02
1.490000000000000000e+02,6.795210600000000341e+02
1.500000000000000000e+02,6.803934299999999666e+02
1.510000000000000000e+02,6.812525600000000168e+02
1.520000000000000000e+02,6.821084600000000364e+02
1.530000000000000000e+02,6.829415299999999434e+02
1.540000000000000000e+02,6.837424899999999752e+02
1.550000000000000000e+02,6.845255100000000539e+02
1.560000000000000000e+02,6.852892500000000382e+02
1.570000000000000000e+02,6.860454099999999471e+02
1.580000000000000000e+02,6.867969399999999496e+02
1.590000000000000000e+02,6.875514500000000453e+02
1.600000000000000000e+02,6.883076800000000048e+02
1.610000000000000000e+02,6.890654299999999921e+02
1.620000000000000000e+02,6.898217200000000275e+02
1.630000000000000000e+02,6.905800799999999526e+02
1.640000000000000000e+02,6.913362399999999752e+02
1.650000000000000000e+02,6.920936900000000378e+02
1.660000000000000000e+02,6.928474700000000439e+02
1.670000000000000000e+02,6.936041300000000547e+02
1.680000000000000000e+02,6.943560800000000199e+02
1.690000000000000000e+02,6.951037000000000035e+02
1.700000000000000000e+02,6.958541900000000169e+02
1.710000000000000000e+02,6.966028400000000147e+02
1.720000000000000000e+02,6.973440600000000131e+02
1.730000000000000000e+02,6.981046800000000303e+02
1.740000000000000000e+02,6.988529099999999517e+02
1.750000000000000000e+02,6.995848399999999856e+02
1.760000000000000000e+02,7.003107899999999972e+02
1.770000000000000000e+02,7.010273999999999432e+02
1.780000000000000000e+02,7.017432900000000018e+02
1.790000000000000000e+02,7.024527000000000498e+02
1.800000000000000000e+02,7.031696799999999712e+02
1.810000000000000000e+02,7.038923300000000154e+02
1.820000000000000000e+02,7.046251800000000003e+02
1.830000000000000000e+02,7.053642599999999447e+02
1.840000000000000000e+02,7.061146199999999453e+02
1.850000000000000000e+02,7.068810999999999467e+02
1.860000000000000000e+02,7.076575900000000274e+02
1.870000000000000000e+02,7.084541600000000017e+02
1.880000000000000000e+02,7.092681300000000419e+02
1.890000000000000000e+02,7.101052899999999681e+02
1.900000000000000000e+02,7.109639899999999670e+02
1.910000000000000000e+02,7.118526600000000144e+02
1.920000000000000000e+02,7.127700200000000450e+02
1.930000000000000000e+02,7.137307700000000068e+02
1.940000000000000000e+02,7.147273599999999760e+02
1.950000000000000000e+02,7.157717300000000478e+02
1.960000000000000000e+02,7.168690199999999777e+02
1.970000000000000000e+02,7.180194099999999935e+02
1.980000000000000000e+02,7.192307100000000446e+02
1.990000000000000000e+02,7.204982899999999972e+02
2.000000000000000000e+02,7.218277000000000498e+02
2.010000000000000000e+02,7.232096599999999853e+02
2.020000000000000000e+02,7.246446499999999560e+02
2.030000000000000000e+02,7.261254300000000512e+02
2.040000000000000000e+02,7.276461199999999963e+02
2.050000000000000000e+02,7.291945799999999736e+02
2.060000000000000000e+02,7.307734400000000505e+02
2.070000000000000000e+02,7.323675500000000511e+02
2.080000000000000000e+02,7.339753399999999601e+02
2.090000000000000000e+02,7.355919800000000350e+02
2.100000000000000000e+02,7.372095900000000483e+02
2.110000000000000000e+02,7.388248300000000199e+02
2.120000000000000000e+02,7.404362200000000485e+02
2.130000000000000000e+02,7.420360699999999952e+02
2.140000000000000000e+02,7.436242700000000241e+02
2.150000000000000000e+02,7.452025099999999611e+02
2.160000000000000000e+02,7.467623899999999821e+02
2.170000000000000000e+02,7.483048099999999749e+02
2.180000000000000000e+02,7.498314800000000560e+02
2.190000000000000000e+02,7.513368500000000267e+02
2.200000000000000000e+02,7.528210400000000391e+02
2.210000000000000000e+02,7.542873499999999467e+02
2.220000000000000000e+02,7.557315700000000334e+02
2.230000000000000000e+02,7.571507000000000289e+02
2.240000000000000000e+02,7.585550500000000511e+02
2.250000000000000000e+02,7.599304799999999886e+02
2.260000000000000000e+02,7.612866199999999708e+02
2.270000000000000000e+02,7.626212199999999939e+02
2.280000000000000000e+02,7.639345100000000457e+02
2.290000000000000000e+02,7.652221700000000055e+02
2.300000000000000000e+02,7.664962199999999939e+02
2.310000000000000000e+02,7.677419999999999618e+02
2.320000000000000000e+02,7.689676500000000487e+02
2.330000000000000000e+02,7.701755399999999554e+02
2.340000000000000000e+02,7.713593100000000504e+02
2.350000000000000000e+02,7.725235000000000127e+02
2.360000000000000000e+02,7.736702900000000227e+02
2.370000000000000000e+02,7.747939499999999953e+02
2.380000000000000000e+02,7.758969700000000103e+02
2.390000000000000000e+02,7.769854699999999639e+02
2.400000000000000000e+02,7.780508399999999938e+02
2.410000000000000000e+02,7.790967399999999543e+02
2.420000000000000000e+02,7.801280500000000302e+02
2.430000000000000000e+02,7.811375100000000202e+02
2.440000000000000000e+02,7.821291499999999814e+02
2.450000000000000000e+02,7.831086999999999989e+02
2.460000000000000000e+02,7.840647000000000162e+02
2.470000000000000000e+02,7.850072000000000116e+02
2.480000000000000000e+02,7.859331700000000183e+02
2.490000000000000000e+02,7.868400900000000320e+02
2.500000000000000000e+02,7.877332800000000361e+02
2.510000000000000000e+02,7.886108400000000529e+02
2.520000000000000000e+02,7.894695400000000518e+02
2.530000000000000000e+02,7.903151199999999790e+02
2.540000000000000000e+02,7.911473399999999856e+02
2.550000000000000000e+02,7.919615499999999884e+02
2.560000000000000000e+02,7.927619600000000446e+02
2.570000000000000000e+02,7.935493199999999661e+02
2.580000000000000000e+02,7.943210400000000391e+02
2.590000000000000000e+02,7.950782500000000255e+02
2.600000000000000000e+02,7.958255599999999959e+02
2.610000000000000000e+02,7.965565199999999777e+02
2.620000000000000000e+02,7.972741700000000264e+02
2.630000000000000000e+02,7.979824200000000474e+02
2.640000000000000000e+02,7.986736499999999523e+02
2.650000000000000000e+02,7.993543700000000172e+02
2.660000000000000000e+02,8.000242299999999886e+02
2.670000000000000000e+02,8.006798700000000508e+02
2.680000000000000000e+02,8.013226300000000037e+02
2.690000000000000000e+02,8.019581899999999450e+02
2.700000000000000000e+02,8.025773900000000367e+02
2.710000000000000000e+02,8.031887199999999893e+02
2.720000000000000000e+02,8.037889999999999873e+02
2.730000000000000000e+02,8.043758500000000140e+02
2.740000000000000000e+02,8.049537400000000389e+02
2.750000000000000000e+02,8.055217300000000478e+02
2.760000000000000000e+02,8.060791000000000395e+02
2.770000000000000000e+02,8.066254300000000512e+02
2.780000000000000000e+02,8.071638199999999870e+02
2.790000000000000000e+02,8.076911000000000058e+02
2.800000000000000000e+02,8.082085600000000341e+02
2.810000000000000000e+02,8.087178999999999860e+02
2.820000000000000000e+02,8.092172900000000482e+02
2.830000000000000000e+02,8.097068500000000313e+02
2.840000000000000000e+02,8.101888400000000274e+02
2.850000000000000000e+02,8.106620500000000220e+02
2.860000000000000000e+02,8.111251200000000381e+02
2.870000000000000000e+02,8.115818500000000313e+02
2.880000000000000000e+02,8.120280199999999695e+02
2.890000000000000000e+02,8.124669800000000350e+02
2.900000000000000000e+02,8.128997200000000021e+02
2.910000000000000000e+02,8.133220800000000281e+02
2.920000000000000000e+02,8.137387700000000450e+02
2.930000000000000000e+02,8.141477099999999609e+02
2.940000000000000000e+02,8.145479699999999639e+02
2.950000000000000000e+02,8.149411599999999680e+02
2.960000000000000000e+02,8.153286100000000260e+02
2.970000000000000000e+02,8.157075800000000072e+02
2.980000000000000000e+02,8.160798300000000154e+02
2.990000000000000000e+02,8.164459799999999632e+02
3.000000000000000000e+02,8.168047500000000127e+02
3.010000000000000000e+02,8.171557000000000244e+02
3.020000000000000000e+02,8.175028700000000299e+02
3.030000000000000000e+02,8.178418000000000347e+02
3.040000000000000000e+02,8.181751699999999801e+02
3.050000000000000000e+02,8.185034799999999677e+02
3.060000000000000000e+02,8.188247699999999440e+02
3.070000000000000000e+02,8.191401399999999740e+02
3.080000000000000000e+02,8.194500699999999824e+02
3.090000000000000000e+02,8.197540900000000192e+02
3.100000000000000000e+02,8.200522499999999582e+02
3.110000000000000000e+02,8.203464999999999918e+02
3.120000000000000000e+02,8.206339100000000144e+02
3.130000000000000000e+02,8.209153400000000147e+02
3.140000000000000000e+02,8.211938499999999976e+02
3.150000000000000000e+02,8.214660000000000082e+02
3.160000000000000000e+02,8.217322400000000471e+02
3.170000000000000000e+02,8.219956100000000561e+02
3.180000000000000000e+02,8.222527499999999918e+02
3.190000000000000000e+02,8.225045199999999568e+02
3.200000000000000000e+02,8.227539100000000190e+02
3.210000000000000000e+02,8.229974999999999454e+02
3.220000000000000000e+02,8.232357799999999770e+02
3.230000000000000000e+02,8.234718000000000302e+02
3.240000000000000000e+02,8.237020300000000361e+02
3.250000000000000000e+02,8.239278000000000475e+02
3.260000000000000000e+02,8.241509399999999914e+02
3.270000000000000000e+02,8.243677400000000262e+02
3.280000000000000000e+02,8.245824599999999691e+02
3.290000000000000000e+02,8.247919900000000553e+02
3.300000000000000000e+02,8.249988399999999729e+02
3.310000000000000000e+02,8.252001999999999953e+02
3.320000000000000000e+02,8.254002100000000155e+02
3.330000000000000000e+02,8.255938099999999622e+02
3.340000000000000000e+02,8.257862499999999955e+02
3.350000000000000000e+02,8.259736299999999574e+02
3.360000000000000000e+02,8.261590599999999540e+02
3.370000000000000000e+02,8.263388700000000426e+02
3.380000000000000000e+02,8.265183100000000422e+02
3.390000000000000000e+02,8.266915299999999434e+02
3.400000000000000000e+02,8.268637099999999691e+02
3.410000000000000000e+02,8.270314300000000003e+02
3.420000000000000000e+02,8.271972700000000032e+02
3.430000000000000000e+02,8.273581500000000233e+02
3.440000000000000000e+02,8.275186800000000176e+02
3.450000000000000000e+02,8.276735800000000154e+02
3.460000000000000000e+02,8.278268399999999474e+02
3.470000000000000000e+02,8.279777800000000525e+02
3.480000000000000000e+02,8.281246899999999869e+02
3.490000000000000000e+02,8.282692899999999554e+02
3.500000000000000000e+02,8.284125400000000354e+02
3.510000000000000000e+02,8.285513899999999694e+02
3.520000000000000000e+02,8.286893300000000409e+02
3.530000000000000000e+02,8.288233599999999797e+02
3.540000000000000000e+02,8.289553799999999910e+02
3.550000000000000000e+02,8.290852700000000368e+02
3.560000000000000000e+02,8.292124599999999646e+02
3.570000000000000000e+02,8.293370400000000018e+02
3.580000000000000000e+02,8.294600199999999859e+02
3.590000000000000000e+02,8.295801400000000285e+02
3.600000000000000000e+02,8.296978800000000547e+02
3.610000000000000000e+02,8.298134199999999510e+02
3.620000000000000000e+02,8.299282200000000103e+02
3.630000000000000000e+02,8.300389400000000251e+02
3.640000000000000000e+02,8.301485599999999749e+02
3.650000000000000000e+02,8.302570200000000114e+02
3.660000000000000000e+02,8.303619999999999663e+02
3.670000000000000000e+02,8.304654500000000326e+02
3.680000000000000000e+02,8.305672600000000330e+02
3.690000000000000000e+02,8.306677200000000312e+02
3.700000000000000000e+02,8.307650800000000118e+02
3.710000000000000000e+02,8.308615700000000288e+02
3.720000000000000000e+02,8.309555100000000039e+02
3.730000000000000000e+02,8.310489499999999907e+02
3.740000000000000000e+02,8.311395899999999983e+02
3.750000000000000000e+02,8.312288200000000415e+02
3.760000000000000000e+02,8.313159799999999677e+02
3.770000000000000000e+02,8.314030800000000454e+02
3.780000000000000000e+02,8.314867600000000039e+02
3.790000000000000000e+02,8.315695799999999736e+02
3.800000000000000000e+02,8.316507599999999911e+02
3.810000000000000000e+02,8.317305300000000443e+02
3.820000000000000000e+02,8.318094499999999698e+02
3.830000000000000000e+02,8.318861699999999928e+02
3.840000000000000000e+02,8.319615499999999884e+02
3.850000000000000000e+02,8.320352799999999434e+02
3.860000000000000000e+02,8.321081500000000233e+02
3.870000000000000000e+02,8.321801100000000133e+02
3.880000000000000000e+02,8.322496899999999869e+02
3.890000000000000000e+02,8.323186600000000226e+02
3.900000000000000000e+02,8.323857400000000553e+02
3.910000000000000000e+02,8.324519699999999602e+02
3.920000000000000000e+02,8.325177599999999529e+02
3.930000000000000000e+02,8.325810500000000047e+02
3.940000000000000000e+02,8.326436800000000176e+02
3.950000000000000000e+02,8.327050799999999526e+02
3.960000000000000000e+02,8.327652000000000498e+02
3.970000000000000000e+02,8.328240399999999681e+02
3.980000000000000000e+02,8.328823899999999867e+02
3.990000000000000000e+02,8.329401199999999790e+02
