# Time [s], Temperature [C]
1.000000000000000000e+00,2.499998300000000029e+01
2.000000000000000000e+00,2.939153500000000108e+01
3.000000000000000000e+00,3.189763100000000051e+01
4.000000000000000000e+00,3.394493099999999686e+01
5.000000000000000000e+00,3.566674799999999834e+01
6.000000000000000000e+00,3.718719099999999855e+01
7.000000000000000000e+00,3.855727799999999661e+01
8.000000000000000000e+00,3.981309499999999701e+01
9.000000000000000000e+00,4.097733699999999857e+01
1.000000000000000000e+01,4.206625700000000023e+01
1.100000000000000000e+01,4.309201800000000304e+01
1.200000000000000000e+01,4.406340800000000257e+01
1.300000000000000000e+01,4.498783900000000102e+01
1.400000000000000000e+01,4.587079200000000156e+01
1.500000000000000000e+01,4.671691500000000019e+01
1.600000000000000000e+01,4.753015500000000060e+01
1.700000000000000000e+01,4.831370900000000290e+01
1.800000000000000000e+01,4.907021699999999953e+01
1.900000000000000000e+01,4.980202500000000043e+01
2.000000000000000000e+01,5.051128800000000041e+01
2.100000000000000000e+01,5.119957399999999836e+01
2.200000000000000000e+01,5.186856099999999969e+01
2.300000000000000000e+01,5.251955399999999941e+01
2.400000000000000000e+01,5.315366699999999867e+01
2.500000000000000000e+01,5.377212500000000261e+01
2.600000000000000000e+01,5.437588099999999969e+01
2.700000000000000000e+01,5.496575899999999848e+01
2.800000000000000000e+01,5.554254199999999742e+01
2.900000000000000000e+01,5.610699499999999773e+01
3.000000000000000000e+01,5.665972099999999756e+01
3.100000000000000000e+01,5.720136999999999716e+01
3.200000000000000000e+01,5.773245599999999911e+01
3.300000000000000000e+01,5.825359300000000218e+01
3.400000000000000000e+01,5.876507900000000006e+01
3.500000000000000000e+01,5.926750599999999736e+01
3.600000000000000000e+01,5.976111199999999712e+01
3.700000000000000000e+01,6.024646400000000313e+01
3.800000000000000000e+01,6.072373600000000238e+01
3.900000000000000000e+01,6.119334800000000030e+01
4.000000000000000000e+01,6.165548700000000082e+01
4.100000000000000000e+01,6.211063800000000157e+01
4.200000000000000000e+01,6.255895600000000201e+01
4.300000000000000000e+01,6.300070199999999687e+01
4.400000000000000000e+01,6.343603099999999984e+01
4.500000000000000000e+01,6.386529500000000326e+01
4.600000000000000000e+01,6.428866600000000631e+01
4.700000000000000000e+01,6.470632200000000012e+01
4.800000000000000000e+01,6.511843899999999508e+01
4.900000000000000000e+01,6.552523800000000165e+01
5.000000000000000000e+01,6.592680400000000418e+01
5.100000000000000000e+01,6.632342500000000030e+01
5.200000000000000000e+01,6.671519499999999425e+01
5.300000000000000000e+01,6.710227999999999327e+01
5.400000000000000000e+01,6.748487099999999828e+01
5.500000000000000000e+01,6.786296099999999853e+01
5.600000000000000000e+01,6.823675500000000227e+01
5.700000000000000000e+01,6.860636900000000082e+01
5.800000000000000000e+01,6.897193900000000610e+01
5.900000000000000000e+01,6.933359500000000253e+01
6.000000000000000000e+01,6.969139099999999587e+01
6.100000000000000000e+01,7.004544799999999327e+01
6.200000000000000000e+01,7.039597299999999791e+01
6.300000000000000000e+01,7.074289699999999925e+01
6.400000000000000000e+01,7.108636500000000069e+01
6.500000000000000000e+01,7.142649099999999862e+01
6.600000000000000000e+01,7.176342800000000466e+01
6.700000000000000000e+01,7.209713000000000704e+01
6.800000000000000000e+01,7.242775699999999972e+01
6.900000000000000000e+01,7.275543999999999301e+01
7.000000000000000000e+01,7.308010099999999909e+01
7.100000000000000000e+01,7.340188600000000463e+01
7.200000000000000000e+01,7.372093999999999880e+01
7.300000000000000000e+01,7.403719300000000203e+01
7.400000000000000000e+01,7.435081499999999721e+01
7.500000000000000000e+01,7.466193400000000224e+01
7.600000000000000000e+01,7.497042799999999829e+01
7.700000000000000000e+01,7.527652700000000152e+01
7.800000000000000000e+01,7.558014699999999664e+01
7.900000000000000000e+01,7.588140900000000499e+01
8.000000000000000000e+01,7.618045800000000156e+01
8.100000000000000000e+01,7.647726400000000524e+01
8.200000000000000000e+01,7.677178200000000174e+01
8.300000000000000000e+01,7.706417799999999829e+01
8.400000000000000000e+01,7.735456800000000044e+01
8.500000000000000000e+01,7.764290599999999642e+01
8.600000000000000000e+01,7.792916099999999346e+01
8.700000000000000000e+01,7.821347799999999495e+01
8.800000000000000000e+01,7.849606300000000658e+01
8.900000000000000000e+01,7.877663400000000138e+01
9.000000000000000000e+01,7.905538199999999449e+01
9.100000000000000000e+01,7.933243600000000129e+01
9.200000000000000000e+01,7.960773500000000524e+01
9.300000000000000000e+01,7.988123299999999460e+01
9.400000000000000000e+01,8.015317500000000450e+01
9.500000000000000000e+01,8.042351499999999476e+01
9.600000000000000000e+01,8.069214599999999393e+01
9.700000000000000000e+01,8.095923600000000420e+01
9.800000000000000000e+01,8.122496800000000405e+01
9.900000000000000000e+01,8.148905200000000093e+01
1.000000000000000000e+02,8.175168600000000652e+01
1.010000000000000000e+02,8.201306200000000501e+01
1.020000000000000000e+02,8.227287300000000414e+01
1.030000000000000000e+02,8.253132600000000707e+01
1.040000000000000000e+02,8.278861200000000053e+01
1.050000000000000000e+02,8.304442600000000141e+01
1.060000000000000000e+02,8.329896499999999548e+01
1.070000000000000000e+02,8.355240600000000484e+01
1.080000000000000000e+02,8.380446600000000501e+01
1.090000000000000000e+02,8.405532100000000639e+01
1.100000000000000000e+02,8.430516799999999478e+01
1.110000000000000000e+02,8.455370299999999872e+01
1.120000000000000000e+02,8.480127699999999891e+01
1.130000000000000000e+02,8.504760699999999929e+01
1.140000000000000000e+02,8.529281600000000196e+01
1.150000000000000000e+02,8.553713999999999373e+01
1.160000000000000000e+02,8.578029600000000698e+01
1.170000000000000000e+02,8.602240000000000464e+01
1.180000000000000000e+02,8.626366400000000567e+01
1.190000000000000000e+02,8.650382999999999356e+01
1.200000000000000000e+02,8.674319500000000005e+01
1.210000000000000000e+02,8.698146800000000667e+01
1.220000000000000000e+02,8.721878800000000354e+01
1.230000000000000000e+02,8.745536800000000710e+01
1.240000000000000000e+02,8.769093300000000113e+01
1.250000000000000000e+02,8.792575800000000186e+01
1.260000000000000000e+02,8.815960699999999406e+01
1.270000000000000000e+02,8.839268500000000017e+01
1.280000000000000000e+02,8.862496199999999646e+01
1.290000000000000000e+02,8.885636900000000082e+01
1.300000000000000000e+02,8.908709699999999998e+01
1.310000000000000000e+02,8.931694000000000244e+01
1.320000000000000000e+02,8.954608199999999840e+01
1.330000000000000000e+02,8.977449000000000012e+01
1.340000000000000000e+02,9.000211299999999426e+01
1.350000000000000000e+02,9.022912599999999372e+01
1.360000000000000000e+02,9.045531499999999880e+01
1.370000000000000000e+02,9.068086999999999875e+01
1.380000000000000000e+02,9.090576199999999574e+01
1.390000000000000000e+02,9.112999000000000649e+01
1.400000000000000000e+02,9.135356899999999314e+01
1.410000000000000000e+02,9.157644700000000171e+01
1.420000000000000000e+02,9.179879800000000500e+01
1.430000000000000000e+02,9.202040900000000079e+01
1.440000000000000000e+02,9.224145500000000197e+01
1.450000000000000000e+02,9.246190599999999904e+01
1.460000000000000000e+02,9.268180099999999300e+01
1.470000000000000000e+02,9.290107700000000079e+01
1.480000000000000000e+02,9.311980400000000202e+01
1.490000000000000000e+02,9.333798199999999667e+01
1.500000000000000000e+02,9.355554200000000264e+01
1.510000000000000000e+02,9.377268999999999721e+01
1.520000000000000000e+02,9.398916599999999733e+01
1.530000000000000000e+02,9.420516999999999541e+01
1.540000000000000000e+02,9.442067000000000121e+01
1.550000000000000000e+02,9.463567399999999452e+01
1.560000000000000000e+02,9.485015099999999677e+01
1.570000000000000000e+02,9.506414800000000298e+01
1.580000000000000000e+02,9.527766400000000147e+01
1.590000000000000000e+02,9.549070700000000045e+01
1.600000000000000000e+02,9.570327000000000339e+01
1.610000000000000000e+02,9.591539000000000215e+01
1.620000000000000000e+02,9.612695300000000032e+01
1.630000000000000000e+02,9.633814999999999884e+01
1.640000000000000000e+02,9.654891999999999541e+01
1.650000000000000000e+02,9.675921599999999501e+01
1.660000000000000000e+02,9.696910900000000311e+01
1.670000000000000000e+02,9.717857399999999757e+01
1.680000000000000000e+02,9.738761900000000082e+01
1.690000000000000000e+02,9.759625200000000689e+01
1.700000000000000000e+02,9.780448900000000378e+01
1.710000000000000000e+02,9.801231400000000349e+01
1.720000000000000000e+02,9.821975700000000131e+01
1.730000000000000000e+02,9.842681100000000072e+01
1.740000000000000000e+02,9.863347600000000170e+01
1.750000000000000000e+02,9.883966800000000319e+01
1.760000000000000000e+02,9.904560899999999890e+01
1.770000000000000000e+02,9.925104500000000485e+01
1.780000000000000000e+02,9.945626099999999781e+01
1.790000000000000000e+02,9.966099499999999978e+01
1.800000000000000000e+02,9.986550900000000297e+01
1.810000000000000000e+02,1.000695300000000003e+02
1.820000000000000000e+02,1.002733499999999935e+02
1.830000000000000000e+02,1.004766800000000018e+02
1.840000000000000000e+02,1.006797499999999985e+02
1.850000000000000000e+02,1.008824800000000010e+02
1.860000000000000000e+02,1.010848799999999983e+02
1.870000000000000000e+02,1.012869299999999981e+02
1.880000000000000000e+02,1.014886699999999990e+02
1.890000000000000000e+02,1.016900899999999979e+02
1.900000000000000000e+02,1.018911800000000056e+02
1.910000000000000000e+02,1.020919499999999971e+02
1.920000000000000000e+02,1.022924100000000038e+02
1.930000000000000000e+02,1.024925700000000006e+02
1.940000000000000000e+02,1.026924300000000017e+02
1.950000000000000000e+02,1.028919900000000069e+02
1.960000000000000000e+02,1.030912399999999991e+02
1.970000000000000000e+02,1.032902100000000019e+02
1.980000000000000000e+02,1.034888799999999947e+02
1.990000000000000000e+02,1.036872599999999949e+02
2.000000000000000000e+02,1.038853600000000057e+02
2.010000000000000000e+02,1.040831699999999955e+02
2.020000000000000000e+02,1.042806900000000070e+02
2.030000000000000000e+02,1.044779599999999959e+02
2.040000000000000000e+02,1.046749300000000034e+02
2.050000000000000000e+02,1.048716100000000040e+02
2.060000000000000000e+02,1.050680399999999963e+02
2.070000000000000000e+02,1.052642000000000024e+02
2.080000000000000000e+02,1.054599900000000048e+02
2.090000000000000000e+02,1.056556800000000038e+02
2.100000000000000000e+02,1.058509700000000038e+02
2.110000000000000000e+02,1.060461300000000051e+02
2.120000000000000000e+02,1.062409099999999995e+02
2.130000000000000000e+02,1.064355500000000063e+02
2.140000000000000000e+02,1.066298100000000062e+02
2.150000000000000000e+02,1.068239599999999996e+02
2.160000000000000000e+02,1.070177800000000019e+02
2.170000000000000000e+02,1.072113599999999991e+02
2.180000000000000000e+02,1.074047900000000055e+02
2.190000000000000000e+02,1.075978199999999987e+02
2.200000000000000000e+02,1.077907399999999996e+02
2.210000000000000000e+02,1.079832799999999935e+02
2.220000000000000000e+02,1.081757199999999983e+02
2.230000000000000000e+02,1.083677699999999930e+02
2.240000000000000000e+02,1.085597400000000050e+02
2.250000000000000000e+02,1.087513299999999958e+02
2.260000000000000000e+02,1.089428099999999944e+02
2.270000000000000000e+02,1.091339300000000065e+02
2.280000000000000000e+02,1.093249600000000044e+02
2.290000000000000000e+02,1.095156199999999984e+02
2.300000000000000000e+02,1.097061800000000034e+02
2.310000000000000000e+02,1.098963899999999967e+02
2.320000000000000000e+02,1.100865000000000009e+02
2.330000000000000000e+02,1.102762599999999935e+02
2.340000000000000000e+02,1.104659300000000002e+02
2.350000000000000000e+02,1.106552400000000063e+02
2.360000000000000000e+02,1.108444599999999980e+02
2.370000000000000000e+02,1.110333300000000065e+02
2.380000000000000000e+02,1.112221100000000007e+02
2.390000000000000000e+02,1.114105500000000006e+02
2.400000000000000000e+02,1.115989000000000004e+02
2.410000000000000000e+02,1.117869599999999934e+02
2.420000000000000000e+02,1.119748199999999940e+02
2.430000000000000000e+02,1.121624500000000069e+02
2.440000000000000000e+02,1.123498500000000035e+02
2.450000000000000000e+02,1.125370699999999999e+02
2.460000000000000000e+02,1.127240599999999944e+02
2.470000000000000000e+02,1.129108499999999964e+02
2.480000000000000000e+02,1.130974300000000028e+02
2.490000000000000000e+02,1.132838100000000026e+02
2.500000000000000000e+02,1.134699600000000004e+02
2.510000000000000000e+02,1.136559299999999979e+02
2.520000000000000000e+02,1.138416799999999967e+02
2.530000000000000000e+02,1.140273099999999999e+02
2.540000000000000000e+02,1.142126099999999980e+02
2.550000000000000000e+02,1.143978199999999958e+02
2.560000000000000000e+02,1.145826899999999995e+02
2.570000000000000000e+02,1.147674999999999983e+02
2.580000000000000000e+02,1.149520299999999935e+02
2.590000000000000000e+02,1.151363499999999931e+02
2.600000000000000000e+02,1.153204999999999956e+02
2.610000000000000000e+02,1.155044299999999993e+02
2.620000000000000000e+02,1.156881599999999963e+02
2.630000000000000000e+02,1.158717000000000041e+02
2.640000000000000000e+02,1.160550300000000021e+02
2.650000000000000000e+02,1.162381500000000045e+02
2.660000000000000000e+02,1.164210999999999956e+02
2.670000000000000000e+02,1.166038599999999974e+02
2.680000000000000000e+02,1.167864100000000036e+02
2.690000000000000000e+02,1.169687700000000063e+02
2.700000000000000000e+02,1.171510099999999994e+02
2.710000000000000000e+02,1.173329599999999999e+02
2.720000000000000000e+02,1.175147400000000033e+02
2.730000000000000000e+02,1.176962999999999937e+02
2.740000000000000000e+02,1.178776699999999948e+02
2.750000000000000000e+02,1.180588599999999957e+02
2.760000000000000000e+02,1.182398400000000009e+02
2.770000000000000000e+02,1.184206199999999995e+02
2.780000000000000000e+02,1.186012300000000010e+02
2.790000000000000000e+02,1.187816200000000038e+02
2.800000000000000000e+02,1.189618200000000030e+02
2.810000000000000000e+02,1.191418500000000051e+02
2.820000000000000000e+02,1.193217199999999991e+02
2.830000000000000000e+02,1.195013600000000054e+02
2.840000000000000000e+02,1.196808400000000034e+02
2.850000000000000000e+02,1.198601000000000028e+02
2.860000000000000000e+02,1.200391599999999954e+02
2.870000000000000000e+02,1.202180299999999988e+02
2.880000000000000000e+02,1.203967099999999988e+02
2.890000000000000000e+02,1.205751700000000000e+02
2.900000000000000000e+02,1.207534600000000040e+02
2.910000000000000000e+02,1.209315500000000014e+02
2.920000000000000000e+02,1.211094400000000064e+02
2.930000000000000000e+02,1.212871999999999986e+02
2.940000000000000000e+02,1.214646500000000060e+02
2.950000000000000000e+02,1.216420099999999991e+02
2.960000000000000000e+02,1.218191699999999997e+02
2.970000000000000000e+02,1.219961100000000016e+02
2.980000000000000000e+02,1.221728399999999937e+02
2.990000000000000000e+02,1.223494299999999981e+02
3.000000000000000000e+02,1.225257799999999975e+02
3.010000000000000000e+02,1.227019399999999933e+02
3.020000000000000000e+02,1.228779899999999969e+02
3.030000000000000000e+02,1.230537099999999953e+02
3.040000000000000000e+02,1.232293499999999966e+02
3.050000000000000000e+02,1.234047900000000055e+02
3.060000000000000000e+02,1.235799899999999951e+02
3.070000000000000000e+02,1.237549999999999955e+02
3.080000000000000000e+02,1.239298399999999987e+02
3.090000000000000000e+02,1.241044499999999999e+02
3.100000000000000000e+02,1.242788999999999930e+02
3.110000000000000000e+02,1.244532099999999986e+02
3.120000000000000000e+02,1.246272000000000020e+02
3.130000000000000000e+02,1.248010900000000021e+02
3.140000000000000000e+02,1.249747799999999955e+02
3.150000000000000000e+02,1.251482500000000044e+02
3.160000000000000000e+02,1.253215000000000003e+02
3.170000000000000000e+02,1.254946000000000055e+02
3.180000000000000000e+02,1.256675199999999961e+02
3.190000000000000000e+02,1.258401199999999989e+02
3.200000000000000000e+02,1.260126900000000063e+02
3.210000000000000000e+02,1.261849200000000053e+02
3.220000000000000000e+02,1.263570699999999931e+02
3.230000000000000000e+02,1.265290099999999995e+02
3.240000000000000000e+02,1.267007100000000008e+02
3.250000000000000000e+02,1.268722099999999955e+02
3.260000000000000000e+02,1.270435300000000041e+02
3.270000000000000000e+02,1.272146900000000045e+02
3.280000000000000000e+02,1.273855400000000060e+02
3.290000000000000000e+02,1.275563400000000058e+02
3.300000000000000000e+02,1.277268100000000004e+02
3.310000000000000000e+02,1.278971800000000059e+02
3.320000000000000000e+02,1.280673400000000015e+02
3.330000000000000000e+02,1.282372699999999952e+02
3.340000000000000000e+02,1.284070299999999918e+02
3.350000000000000000e+02,1.285765199999999879e+02
3.360000000000000000e+02,1.287459100000000092e+02
3.370000000000000000e+02,1.289149500000000046e+02
3.380000000000000000e+02,1.290839699999999937e+02
3.390000000000000000e+02,1.292527300000000139e+02
3.400000000000000000e+02,1.294212599999999895e+02
3.410000000000000000e+02,1.295896899999999903e+02
3.420000000000000000e+02,1.297577499999999873e+02
3.430000000000000000e+02,1.299257200000000125e+02
3.440000000000000000e+02,1.300934100000000058e+02
3.450000000000000000e+02,1.302609899999999925e+02
3.460000000000000000e+02,1.304283599999999979e+02
3.470000000000000000e+02,1.305954600000000028e+02
3.480000000000000000e+02,1.307624700000000075e+02
3.490000000000000000e+02,1.309291200000000117e+02
3.500000000000000000e+02,1.310957300000000032e+02
3.510000000000000000e+02,1.312619899999999973e+02
3.520000000000000000e+02,1.314281499999999880e+02
3.530000000000000000e+02,1.315941500000000133e+02
3.540000000000000000e+02,1.317598000000000127e+02
3.550000000000000000e+02,1.319253500000000088e+02
3.560000000000000000e+02,1.320906400000000076e+02
3.570000000000000000e+02,1.322557999999999936e+02
3.580000000000000000e+02,1.324206700000000012e+02
3.590000000000000000e+02,1.325853899999999896e+02
3.600000000000000000e+02,1.327499500000000126e+02
3.610000000000000000e+02,1.329141400000000033e+02
3.620000000000000000e+02,1.330783399999999972e+02
3.630000000000000000e+02,1.332421400000000062e+02
3.640000000000000000e+02,1.334058400000000120e+02
3.650000000000000000e+02,1.335694000000000017e+02
3.660000000000000000e+02,1.337325899999999876e+02
3.670000000000000000e+02,1.338956799999999987e+02
3.680000000000000000e+02,1.340585000000000093e+02
3.690000000000000000e+02,1.342212100000000135e+02
3.700000000000000000e+02,1.343835899999999981e+02
3.710000000000000000e+02,1.345458700000000078e+02
3.720000000000000000e+02,1.347079500000000110e+02
3.730000000000000000e+02,1.348696700000000135e+02
3.740000000000000000e+02,1.350313700000000097e+02
3.750000000000000000e+02,1.351927499999999895e+02
3.760000000000000000e+02,1.353539100000000133e+02
3.770000000000000000e+02,1.355150099999999895e+02
3.780000000000000000e+02,1.356757000000000062e+02
3.790000000000000000e+02,1.358362999999999943e+02
3.800000000000000000e+02,1.359966400000000135e+02
3.810000000000000000e+02,1.361568100000000072e+02
3.820000000000000000e+02,1.363167699999999911e+02
3.830000000000000000e+02,1.364764999999999873e+02
3.840000000000000000e+02,1.366360799999999927e+02
3.850000000000000000e+02,1.367952699999999879e+02
3.860000000000000000e+02,1.369544699999999864e+02
3.870000000000000000e+02,1.371133299999999906e+02
3.880000000000000000e+02,1.372719600000000071e+02
3.890000000000000000e+02,1.374305600000000140e+02
3.900000000000000000e+02,1.375887299999999982e+02
3.910000000000000000e+02,1.377467699999999979e+02
3.920000000000000000e+02,1.379046299999999974e+02
3.930000000000000000e+02,1.380622099999999932e+02
3.940000000000000000e+02,1.382196399999999983e+02
3.950000000000000000e+02,1.383768300000000124e+02
3.960000000000000000e+02,1.385338399999999979e+02
3.970000000000000000e+02,1.386905399999999986e+02
3.980000000000000000e+02,1.388471399999999960e+02
3.990000000000000000e+02,1.390035100000000057e+02
