# Time [s], Mass [Kg]
1.000000000000000000e+00,1.000000000000000000e+00
2.000000000000000000e+00,1.000000000000000000e+00
3.000000000000000000e+00,1.000000000000000000e+00
4.000000000000000000e+00,1.000000000000000000e+00
5.000000000000000000e+00,1.000000000000000000e+00
6.000000000000000000e+00,1.000000000000000000e+00
7.000000000000000000e+00,9.999998199999999837e-01
8.000000000000000000e+00,9.999986899999999679e-01
9.000000000000000000e+00,9.999926099999999485e-01
1.000000000000000000e+01,9.999655499999999808e-01
1.100000000000000000e+01,9.998751299999999453e-01
1.200000000000000000e+01,9.996351599999999671e-01
1.300000000000000000e+01,9.991031299999999504e-01
1.400000000000000000e+01,9.981108899999999728e-01
1.500000000000000000e+01,9.965643899999999666e-01
1.600000000000000000e+01,9.942867199999999572e-01
1.700000000000000000e+01,9.920173899999999989e-01
1.800000000000000000e+01,9.893004300000000084e-01
1.900000000000000000e+01,9.865807300000000168e-01
2.000000000000000000e+01,9.837803800000000098e-01
2.100000000000000000e+01,9.811389999999999834e-01
2.200000000000000000e+01,9.786609400000000347e-01
2.300000000000000000e+01,9.764351799999999582e-01
2.400000000000000000e+01,9.743853199999999992e-01
2.500000000000000000e+01,9.723561400000000354e-01
2.600000000000000000e+01,9.701559499999999892e-01
2.700000000000000000e+01,9.677073400000000269e-01
2.800000000000000000e+01,9.650866399999999956e-01
2.900000000000000000e+01,9.624094399999999494e-01
3.000000000000000000e+01,9.597838499999999939e-01
3.100000000000000000e+01,9.572833200000000486e-01
3.200000000000000000e+01,9.549509299999999756e-01
3.300000000000000000e+01,9.527803099999999636e-01
3.400000000000000000e+01,9.507174499999999639e-01
3.500000000000000000e+01,9.486690800000000534e-01
3.600000000000000000e+01,9.465457200000000348e-01
3.700000000000000000e+01,9.443035699999999810e-01
3.800000000000000000e+01,9.419596799999999659e-01
3.900000000000000000e+01,9.395676299999999870e-01
4.000000000000000000e+01,9.371912500000000312e-01
4.100000000000000000e+01,9.348827600000000349e-01
4.200000000000000000e+01,9.326744099999999538e-01
4.300000000000000000e+01,9.305731099999999811e-01
4.400000000000000000e+01,9.285591800000000395e-01
4.500000000000000000e+01,9.265918699999999841e-01
4.600000000000000000e+01,9.246218800000000071e-01
4.700000000000000000e+01,9.226098099999999747e-01
4.800000000000000000e+01,9.205398000000000192e-01
4.900000000000000000e+01,9.184196599999999711e-01
5.000000000000000000e+01,9.162753200000000042e-01
5.100000000000000000e+01,9.141378999999999477e-01
5.200000000000000000e+01,9.120369000000000392e-01
5.300000000000000000e+01,9.099916799999999695e-01
5.400000000000000000e+01,9.080095299999999536e-01
5.500000000000000000e+01,9.060844799999999699e-01
5.600000000000000000e+01,9.041986499999999927e-01
5.700000000000000000e+01,9.023279499999999897e-01
5.800000000000000000e+01,9.004486800000000013e-01
5.900000000000000000e+01,8.985451500000000147e-01
6.000000000000000000e+01,8.966119900000000253e-01
6.100000000000000000e+01,8.946549299999999594e-01
6.200000000000000000e+01,8.926876799999999834e-01
6.300000000000000000e+01,8.903461700000000478e-01
6.400000000000000000e+01,8.882281199999999544e-01
6.500000000000000000e+01,8.861757500000000398e-01
6.600000000000000000e+01,8.842318099999999514e-01
6.700000000000000000e+01,8.823587299999999800e-01
6.800000000000000000e+01,8.805250500000000313e-01
6.900000000000000000e+01,8.787057999999999813e-01
7.000000000000000000e+01,8.768768900000000199e-01
7.100000000000000000e+01,8.750261700000000475e-01
7.200000000000000000e+01,8.731500500000000109e-01
7.300000000000000000e+01,8.712531900000000107e-01
7.400000000000000000e+01,8.693449500000000052e-01
7.500000000000000000e+01,8.674367099999999997e-01
7.600000000000000000e+01,8.655390699999999660e-01
7.700000000000000000e+01,8.636588499999999780e-01
7.800000000000000000e+01,8.617995999999999990e-01
7.900000000000000000e+01,8.599601399999999840e-01
8.000000000000000000e+01,8.581346899999999778e-01
8.100000000000000000e+01,8.563160300000000058e-01
8.200000000000000000e+01,8.544954099999999553e-01
8.300000000000000000e+01,8.526653100000000096e-01
8.400000000000000000e+01,8.508213199999999921e-01
8.500000000000000000e+01,8.489624300000000456e-01
8.600000000000000000e+01,8.470902399999999943e-01
8.700000000000000000e+01,8.452094799999999575e-01
8.800000000000000000e+01,8.433250199999999808e-01
8.900000000000000000e+01,8.414418099999999567e-01
9.000000000000000000e+01,8.395633700000000310e-01
9.100000000000000000e+01,8.376910699999999821e-01
9.200000000000000000e+01,8.358237099999999975e-01
9.300000000000000000e+01,8.339584500000000178e-01
9.400000000000000000e+01,8.320904999999999552e-01
9.500000000000000000e+01,8.302153300000000291e-01
9.600000000000000000e+01,8.283289700000000533e-01
9.700000000000000000e+01,8.264285900000000185e-01
9.800000000000000000e+01,8.245133799999999624e-01
9.900000000000000000e+01,8.225845099999999910e-01
1.000000000000000000e+02,8.206438400000000133e-01
1.010000000000000000e+02,8.186944099999999835e-01
1.020000000000000000e+02,8.167383700000000468e-01
1.030000000000000000e+02,8.147772599999999477e-01
1.040000000000000000e+02,8.128114899999999698e-01
1.050000000000000000e+02,8.108397699999999597e-01
1.060000000000000000e+02,8.088601199999999602e-01
1.070000000000000000e+02,8.068695099999999565e-01
1.080000000000000000e+02,8.048650000000000526e-01
1.090000000000000000e+02,8.028439899999999518e-01
1.100000000000000000e+02,8.008049699999999493e-01
1.110000000000000000e+02,7.987475400000000336e-01
1.120000000000000000e+02,7.966719899999999965e-01
1.130000000000000000e+02,7.945795100000000444e-01
1.140000000000000000e+02,7.924708700000000494e-01
1.150000000000000000e+02,7.903470400000000007e-01
1.160000000000000000e+02,7.879363299999999626e-01
1.170000000000000000e+02,7.856566900000000464e-01
1.180000000000000000e+02,7.834138299999999777e-01
1.190000000000000000e+02,7.811828299999999947e-01
1.200000000000000000e+02,7.789464600000000072e-01
1.210000000000000000e+02,7.766949499999999951e-01
1.220000000000000000e+02,7.744229400000000041e-01
1.230000000000000000e+02,7.721271499999999843e-01
1.240000000000000000e+02,7.698063299999999831e-01
1.250000000000000000e+02,7.674602900000000449e-01
1.260000000000000000e+02,7.650883200000000439e-01
1.270000000000000000e+02,7.626894100000000121e-01
1.280000000000000000e+02,7.602624300000000446e-01
1.290000000000000000e+02,7.578055299999999495e-01
1.300000000000000000e+02,7.553161999999999932e-01
1.310000000000000000e+02,7.527923600000000492e-01
1.320000000000000000e+02,7.502320399999999889e-01
1.330000000000000000e+02,7.476339899999999705e-01
1.340000000000000000e+02,7.449972000000000261e-01
1.350000000000000000e+02,7.423216700000000445e-01
1.360000000000000000e+02,7.396073300000000073e-01
1.370000000000000000e+02,7.368548499999999501e-01
1.380000000000000000e+02,7.340644600000000297e-01
1.390000000000000000e+02,7.312366399999999933e-01
1.400000000000000000e+02,7.283718000000000137e-01
1.410000000000000000e+02,7.254707200000000133e-01
1.420000000000000000e+02,7.225340000000000096e-01
1.430000000000000000e+02,7.195628899999999550e-01
1.440000000000000000e+02,7.165589300000000383e-01
1.450000000000000000e+02,7.135242200000000423e-01
1.460000000000000000e+02,7.104615600000000475e-01
1.470000000000000000e+02,7.073738000000000525e-01
1.480000000000000000e+02,7.042639899999999509e-01
1.490000000000000000e+02,7.011357499999999465e-01
1.500000000000000000e+02,6.979922699999999702e-01
1.510000000000000000e+02,6.948368499999999504e-01
1.520000000000000000e+02,6.916728599999999449e-01
1.530000000000000000e+02,6.885030899999999843e-01
1.540000000000000000e+02,6.853311100000000211e-01
1.550000000000000000e+02,6.819332799999999750e-01
1.560000000000000000e+02,6.786400700000000397e-01
1.570000000000000000e+02,6.754029400000000072e-01
1.580000000000000000e+02,6.722043800000000457e-01
1.590000000000000000e+02,6.690354299999999865e-01
1.600000000000000000e+02,6.658914700000000408e-01
1.610000000000000000e+02,6.627701499999999468e-01
1.620000000000000000e+02,6.596704700000000088e-01
1.630000000000000000e+02,6.565923700000000363e-01
1.640000000000000000e+02,6.535364999999999647e-01
1.650000000000000000e+02,6.505035799999999702e-01
1.660000000000000000e+02,6.474944900000000336e-01
1.670000000000000000e+02,6.445105100000000364e-01
1.680000000000000000e+02,6.415526299999999571e-01
1.690000000000000000e+02,6.386218099999999565e-01
1.700000000000000000e+02,6.357192999999999872e-01
1.710000000000000000e+02,6.328462999999999727e-01
1.720000000000000000e+02,6.300041100000000061e-01
1.730000000000000000e+02,6.271941699999999953e-01
1.740000000000000000e+02,6.244180200000000180e-01
1.750000000000000000e+02,6.216776400000000313e-01
1.760000000000000000e+02,6.189748000000000472e-01
1.770000000000000000e+02,6.163117299999999465e-01
1.780000000000000000e+02,6.136906100000000253e-01
1.790000000000000000e+02,6.111140299999999748e-01
1.800000000000000000e+02,6.085849399999999632e-01
1.810000000000000000e+02,6.061065799999999504e-01
1.820000000000000000e+02,6.036826400000000481e-01
1.830000000000000000e+02,6.013172300000000359e-01
1.840000000000000000e+02,5.990149399999999957e-01
1.850000000000000000e+02,5.967810199999999954e-01
1.860000000000000000e+02,5.946215400000000040e-01
1.870000000000000000e+02,5.925430699999999495e-01
1.880000000000000000e+02,5.905532799999999582e-01
1.890000000000000000e+02,5.886608399999999630e-01
1.900000000000000000e+02,5.868752000000000413e-01
1.910000000000000000e+02,5.852072200000000279e-01
1.920000000000000000e+02,5.836683499999999469e-01
1.930000000000000000e+02,5.822706800000000404e-01
1.940000000000000000e+02,5.809943699999999822e-01
1.950000000000000000e+02,5.799043799999999971e-01
1.960000000000000000e+02,5.790016100000000554e-01
1.970000000000000000e+02,5.782828899999999939e-01
1.980000000000000000e+02,5.777400099999999705e-01
1.990000000000000000e+02,5.773560399999999593e-01
2.000000000000000000e+02,5.771053999999999906e-01
2.010000000000000000e+02,5.769566900000000498e-01
2.020000000000000000e+02,5.768780700000000206e-01
2.030000000000000000e+02,5.768423700000000487e-01
2.040000000000000000e+02,5.768297900000000089e-01
2.050000000000000000e+02,5.768271699999999447e-01
2.060000000000000000e+02,5.768271099999999763e-01
2.070000000000000000e+02,5.768271099999999763e-01
2.080000000000000000e+02,5.768271099999999763e-01
2.090000000000000000e+02,5.768271099999999763e-01
2.100000000000000000e+02,5.768271099999999763e-01
2.110000000000000000e+02,5.768271099999999763e-01
2.120000000000000000e+02,5.768271099999999763e-01
2.130000000000000000e+02,5.768271099999999763e-01
2.140000000000000000e+02,5.768271099999999763e-01
2.150000000000000000e+02,5.768271099999999763e-01
2.160000000000000000e+02,5.768271099999999763e-01
2.170000000000000000e+02,5.768271099999999763e-01
2.180000000000000000e+02,5.768271099999999763e-01
2.190000000000000000e+02,5.768271099999999763e-01
2.200000000000000000e+02,5.768271099999999763e-01
2.210000000000000000e+02,5.768271099999999763e-01
2.220000000000000000e+02,5.768271099999999763e-01
2.230000000000000000e+02,5.768271099999999763e-01
2.240000000000000000e+02,5.768271099999999763e-01
2.250000000000000000e+02,5.768271099999999763e-01
2.260000000000000000e+02,5.768271099999999763e-01
2.270000000000000000e+02,5.768271099999999763e-01
2.280000000000000000e+02,5.768271099999999763e-01
2.290000000000000000e+02,5.768271099999999763e-01
2.300000000000000000e+02,5.768271099999999763e-01
2.310000000000000000e+02,5.768271099999999763e-01
2.320000000000000000e+02,5.768271099999999763e-01
2.330000000000000000e+02,5.768271099999999763e-01
2.340000000000000000e+02,5.768271099999999763e-01
2.350000000000000000e+02,5.768271099999999763e-01
2.360000000000000000e+02,5.768271099999999763e-01
2.370000000000000000e+02,5.768271099999999763e-01
2.380000000000000000e+02,5.768271099999999763e-01
2.390000000000000000e+02,5.768271099999999763e-01
2.400000000000000000e+02,5.768271099999999763e-01
2.410000000000000000e+02,5.768271099999999763e-01
2.420000000000000000e+02,5.768271099999999763e-01
2.430000000000000000e+02,5.768271099999999763e-01
2.440000000000000000e+02,5.768271099999999763e-01
2.450000000000000000e+02,5.768271099999999763e-01
2.460000000000000000e+02,5.768271099999999763e-01
2.470000000000000000e+02,5.768271099999999763e-01
2.480000000000000000e+02,5.768271099999999763e-01
2.490000000000000000e+02,5.768271099999999763e-01
2.500000000000000000e+02,5.768271099999999763e-01
2.510000000000000000e+02,5.768271099999999763e-01
2.520000000000000000e+02,5.768271099999999763e-01
2.530000000000000000e+02,5.768271099999999763e-01
2.540000000000000000e+02,5.768271099999999763e-01
2.550000000000000000e+02,5.768271099999999763e-01
2.560000000000000000e+02,5.768271099999999763e-01
2.570000000000000000e+02,5.768271099999999763e-01
2.580000000000000000e+02,5.768271099999999763e-01
2.590000000000000000e+02,5.768271099999999763e-01
2.600000000000000000e+02,5.768271099999999763e-01
2.610000000000000000e+02,5.768271099999999763e-01
2.620000000000000000e+02,5.768271099999999763e-01
2.630000000000000000e+02,5.768271099999999763e-01
2.640000000000000000e+02,5.768271099999999763e-01
2.650000000000000000e+02,5.768271099999999763e-01
2.660000000000000000e+02,5.768271099999999763e-01
2.670000000000000000e+02,5.768271099999999763e-01
2.680000000000000000e+02,5.768271099999999763e-01
2.690000000000000000e+02,5.768271099999999763e-01
2.700000000000000000e+02,5.768271099999999763e-01
2.710000000000000000e+02,5.768271099999999763e-01
2.720000000000000000e+02,5.768271099999999763e-01
2.730000000000000000e+02,5.768271099999999763e-01
2.740000000000000000e+02,5.768271099999999763e-01
2.750000000000000000e+02,5.768271099999999763e-01
2.760000000000000000e+02,5.768271099999999763e-01
2.770000000000000000e+02,5.768271099999999763e-01
2.780000000000000000e+02,5.768271099999999763e-01
2.790000000000000000e+02,5.768271099999999763e-01
2.800000000000000000e+02,5.768271099999999763e-01
2.810000000000000000e+02,5.768271099999999763e-01
2.820000000000000000e+02,5.768271099999999763e-01
2.830000000000000000e+02,5.768271099999999763e-01
2.840000000000000000e+02,5.768271099999999763e-01
2.850000000000000000e+02,5.768271099999999763e-01
2.860000000000000000e+02,5.768271099999999763e-01
2.870000000000000000e+02,5.768271099999999763e-01
2.880000000000000000e+02,5.768271099999999763e-01
2.890000000000000000e+02,5.768271099999999763e-01
2.900000000000000000e+02,5.768271099999999763e-01
2.910000000000000000e+02,5.768271099999999763e-01
2.920000000000000000e+02,5.768271099999999763e-01
2.930000000000000000e+02,5.768271099999999763e-01
2.940000000000000000e+02,5.768271099999999763e-01
2.950000000000000000e+02,5.768271099999999763e-01
2.960000000000000000e+02,5.768271099999999763e-01
2.970000000000000000e+02,5.768271099999999763e-01
2.980000000000000000e+02,5.768271099999999763e-01
2.990000000000000000e+02,5.768271099999999763e-01
3.000000000000000000e+02,5.768271099999999763e-01
3.010000000000000000e+02,5.768271099999999763e-01
3.020000000000000000e+02,5.768271099999999763e-01
3.030000000000000000e+02,5.768271099999999763e-01
3.040000000000000000e+02,5.768271099999999763e-01
3.050000000000000000e+02,5.768271099999999763e-01
3.060000000000000000e+02,5.768271099999999763e-01
3.070000000000000000e+02,5.768271099999999763e-01
3.080000000000000000e+02,5.768271099999999763e-01
3.090000000000000000e+02,5.768271099999999763e-01
3.100000000000000000e+02,5.768271099999999763e-01
3.110000000000000000e+02,5.768271099999999763e-01
3.120000000000000000e+02,5.768271099999999763e-01
3.130000000000000000e+02,5.768271099999999763e-01
3.140000000000000000e+02,5.768271099999999763e-01
3.150000000000000000e+02,5.768271099999999763e-01
3.160000000000000000e+02,5.768271099999999763e-01
3.170000000000000000e+02,5.768271099999999763e-01
3.180000000000000000e+02,5.768271099999999763e-01
3.190000000000000000e+02,5.768271099999999763e-01
3.200000000000000000e+02,5.768271099999999763e-01
3.210000000000000000e+02,5.768271099999999763e-01
3.220000000000000000e+02,5.768271099999999763e-01
3.230000000000000000e+02,5.768271099999999763e-01
3.240000000000000000e+02,5.768271099999999763e-01
3.250000000000000000e+02,5.768271099999999763e-01
3.260000000000000000e+02,5.768271099999999763e-01
3.270000000000000000e+02,5.768271099999999763e-01
3.280000000000000000e+02,5.768271099999999763e-01
3.290000000000000000e+02,5.768271099999999763e-01
3.300000000000000000e+02,5.768271099999999763e-01
3.310000000000000000e+02,5.768271099999999763e-01
3.320000000000000000e+02,5.768271099999999763e-01
3.330000000000000000e+02,5.768271099999999763e-01
3.340000000000000000e+02,5.768271099999999763e-01
3.350000000000000000e+02,5.768271099999999763e-01
3.360000000000000000e+02,5.768271099999999763e-01
3.370000000000000000e+02,5.768271099999999763e-01
3.380000000000000000e+02,5.768271099999999763e-01
3.390000000000000000e+02,5.768271099999999763e-01
3.400000000000000000e+02,5.768271099999999763e-01
3.410000000000000000e+02,5.768271099999999763e-01
3.420000000000000000e+02,5.768271099999999763e-01
3.430000000000000000e+02,5.768271099999999763e-01
3.440000000000000000e+02,5.768271099999999763e-01
3.450000000000000000e+02,5.768271099999999763e-01
3.460000000000000000e+02,5.768271099999999763e-01
3.470000000000000000e+02,5.768271099999999763e-01
3.480000000000000000e+02,5.768271099999999763e-01
3.490000000000000000e+02,5.768271099999999763e-01
3.500000000000000000e+02,5.768271099999999763e-01
3.510000000000000000e+02,5.768271099999999763e-01
3.520000000000000000e+02,5.768271099999999763e-01
3.530000000000000000e+02,5.768271099999999763e-01
3.540000000000000000e+02,5.768271099999999763e-01
3.550000000000000000e+02,5.768271099999999763e-01
3.560000000000000000e+02,5.768271099999999763e-01
3.570000000000000000e+02,5.768271099999999763e-01
3.580000000000000000e+02,5.768271099999999763e-01
3.590000000000000000e+02,5.768271099999999763e-01
3.600000000000000000e+02,5.768271099999999763e-01
3.610000000000000000e+02,5.768271099999999763e-01
3.620000000000000000e+02,5.768271099999999763e-01
3.630000000000000000e+02,5.768271099999999763e-01
3.640000000000000000e+02,5.768271099999999763e-01
3.650000000000000000e+02,5.768271099999999763e-01
3.660000000000000000e+02,5.768271099999999763e-01
3.670000000000000000e+02,5.768271099999999763e-01
3.680000000000000000e+02,5.768271099999999763e-01
3.690000000000000000e+02,5.768271099999999763e-01
3.700000000000000000e+02,5.768271099999999763e-01
3.710000000000000000e+02,5.768271099999999763e-01
3.720000000000000000e+02,5.768271099999999763e-01
3.730000000000000000e+02,5.768271099999999763e-01
3.740000000000000000e+02,5.768271099999999763e-01
3.750000000000000000e+02,5.768271099999999763e-01
3.760000000000000000e+02,5.768271099999999763e-01
3.770000000000000000e+02,5.768271099999999763e-01
3.780000000000000000e+02,5.768271099999999763e-01
3.790000000000000000e+02,5.768271099999999763e-01
3.800000000000000000e+02,5.768271099999999763e-01
3.810000000000000000e+02,5.768271099999999763e-01
3.820000000000000000e+02,5.768271099999999763e-01
3.830000000000000000e+02,5.768271099999999763e-01
3.840000000000000000e+02,5.768271099999999763e-01
3.850000000000000000e+02,5.768271099999999763e-01
3.860000000000000000e+02,5.768271099999999763e-01
3.870000000000000000e+02,5.768271099999999763e-01
3.880000000000000000e+02,5.768271099999999763e-01
3.890000000000000000e+02,5.768271099999999763e-01
3.900000000000000000e+02,5.768271099999999763e-01
3.910000000000000000e+02,5.768271099999999763e-01
3.920000000000000000e+02,5.768271099999999763e-01
3.930000000000000000e+02,5.768271099999999763e-01
3.940000000000000000e+02,5.768271099999999763e-01
3.950000000000000000e+02,5.768271099999999763e-01
3.960000000000000000e+02,5.768271099999999763e-01
3.970000000000000000e+02,5.768271099999999763e-01
3.980000000000000000e+02,5.768271099999999763e-01
3.990000000000000000e+02,5.768271099999999763e-01
