# Time [s], Mass [Kg]
1.000000000000000000e+00,9.821874549759174178e-02
2.000000000000000000e+00,9.821874549757439454e-02
3.000000000000000000e+00,9.821874549737456828e-02
4.000000000000000000e+00,9.821874549555421885e-02
5.000000000000000000e+00,9.821874548396057614e-02
6.000000000000000000e+00,9.821874542809294617e-02
7.000000000000000000e+00,9.821874521091597532e-02
8.000000000000000000e+00,9.821874449730425005e-02
9.000000000000000000e+00,9.821874244966494194e-02
1.000000000000000000e+01,9.821873718957184474e-02
1.100000000000000000e+01,9.821872486675914393e-02
1.200000000000000000e+01,9.821869815740665033e-02
1.300000000000000000e+01,9.821864398049465206e-02
1.400000000000000000e+01,9.821854019548514891e-02
1.500000000000000000e+01,9.821835101540514479e-02
1.600000000000000000e+01,9.821802093467514594e-02
1.700000000000000000e+01,9.821746691609514746e-02
1.800000000000000000e+01,9.821656858175015214e-02
1.900000000000000000e+01,9.821515644195014105e-02
2.000000000000000000e+01,9.821299835510013954e-02
2.100000000000000000e+01,9.820978426215014323e-02
2.200000000000000000e+01,9.820510982215015228e-02
2.300000000000000000e+01,9.819846108005014784e-02
2.400000000000000000e+01,9.818920159790014979e-02
2.500000000000000000e+01,9.817656181690014028e-02
2.600000000000000000e+01,9.815963872590015293e-02
2.700000000000000000e+01,9.813740482240014551e-02
2.800000000000000000e+01,9.810873221190014037e-02
2.900000000000000000e+01,9.807243122590014739e-02
3.000000000000000000e+01,9.802729712290014774e-02
3.100000000000000000e+01,9.797217634390015251e-02
3.200000000000000000e+01,9.790603952540014032e-02
3.300000000000000000e+01,9.782803851940014006e-02
3.400000000000000000e+01,9.773755063540014165e-02
3.500000000000000000e+01,9.763421087890014616e-02
3.600000000000000000e+01,9.751791509890014864e-02
3.700000000000000000e+01,9.738879246890014274e-02
3.800000000000000000e+01,9.724717911390014236e-02
3.900000000000000000e+01,9.709356713890014701e-02
4.000000000000000000e+01,9.692855480890014142e-02
4.100000000000000000e+01,9.675280810890014849e-02
4.200000000000000000e+01,9.656803272390014625e-02
4.300000000000000000e+01,9.637544989890015068e-02
4.400000000000000000e+01,9.617477327390014374e-02
4.500000000000000000e+01,9.596604027890014155e-02
4.600000000000000000e+01,9.574965841390015164e-02
4.700000000000000000e+01,9.552609558890014230e-02
4.800000000000000000e+01,9.529582162890014307e-02
4.900000000000000000e+01,9.505928893890014386e-02
5.000000000000000000e+01,9.481692584390014056e-02
5.100000000000000000e+01,9.456912067890015094e-02
5.200000000000000000e+01,9.431623079390014097e-02
5.300000000000000000e+01,9.405858260890014033e-02
5.400000000000000000e+01,9.379646813390014881e-02
5.500000000000000000e+01,9.353016294390015251e-02
5.600000000000000000e+01,9.325992165890015229e-02
5.700000000000000000e+01,9.298597337390014650e-02
5.800000000000000000e+01,9.270748734890014997e-02
5.900000000000000000e+01,9.242626385890014007e-02
6.000000000000000000e+01,9.214410659890014121e-02
6.100000000000000000e+01,9.185978957890014729e-02
6.200000000000000000e+01,9.157291879890014363e-02
6.300000000000000000e+01,9.128335869390014068e-02
6.400000000000000000e+01,9.099109643890014587e-02
6.500000000000000000e+01,9.069618649390014109e-02
6.600000000000000000e+01,9.039871045890014722e-02
6.700000000000000000e+01,9.009875955390014846e-02
6.800000000000000000e+01,8.979643627890014634e-02
6.900000000000000000e+01,8.949183738890013895e-02
7.000000000000000000e+01,8.918505249890014419e-02
7.100000000000000000e+01,8.887528572390014647e-02
7.200000000000000000e+01,8.856418781390014427e-02
7.300000000000000000e+01,8.825327019390014072e-02
7.400000000000000000e+01,8.794123199390013745e-02
7.500000000000000000e+01,8.762762140390015220e-02
7.600000000000000000e+01,8.731225378390014558e-02
7.700000000000000000e+01,8.699507114390014895e-02
7.800000000000000000e+01,8.667607466890014933e-02
7.900000000000000000e+01,8.635529671890014580e-02
8.000000000000000000e+01,8.603278498390014295e-02
8.100000000000000000e+01,8.570859214390014191e-02
8.200000000000000000e+01,8.538276937890014462e-02
8.300000000000000000e+01,8.505455022390014108e-02
8.400000000000000000e+01,8.472552067890014305e-02
8.500000000000000000e+01,8.439706481390014947e-02
8.600000000000000000e+01,8.406787007390015276e-02
8.700000000000000000e+01,8.373746987390014163e-02
8.800000000000000000e+01,8.340566299890014856e-02
8.900000000000000000e+01,8.307236941390014340e-02
9.000000000000000000e+01,8.273756988890014485e-02
9.100000000000000000e+01,8.240128456890014053e-02
9.200000000000000000e+01,8.206354453890014888e-02
9.300000000000000000e+01,8.172438129390013906e-02
9.400000000000000000e+01,8.138320886890014483e-02
9.500000000000000000e+01,8.104145994890014915e-02
9.600000000000000000e+01,8.070022955890014671e-02
9.700000000000000000e+01,8.035828216390014656e-02
9.800000000000000000e+01,8.001519163390014011e-02
9.900000000000000000e+01,7.967077668890014397e-02
1.000000000000000000e+02,7.932495957890015048e-02
1.010000000000000000e+02,7.897771546890014482e-02
1.020000000000000000e+02,7.862905654890015028e-02
1.030000000000000000e+02,7.827900053890014809e-02
1.040000000000000000e+02,7.792757314390014178e-02
1.050000000000000000e+02,7.757407728390014467e-02
1.060000000000000000e+02,7.721999871390014536e-02
1.070000000000000000e+02,7.686655990890015056e-02
1.080000000000000000e+02,7.651245258390015902e-02
1.090000000000000000e+02,7.615720378390014589e-02
1.100000000000000000e+02,7.580060248890015118e-02
1.110000000000000000e+02,7.544256035390015103e-02
1.120000000000000000e+02,7.508304477390015386e-02
1.130000000000000000e+02,7.472204754390014692e-02
1.140000000000000000e+02,7.435957772890014472e-02
1.150000000000000000e+02,7.399522144390015266e-02
1.160000000000000000e+02,7.363029445890015290e-02
1.170000000000000000e+02,7.326561611390014495e-02
1.180000000000000000e+02,7.289998357890015157e-02
1.190000000000000000e+02,7.253298127390014893e-02
1.200000000000000000e+02,7.216443115390014373e-02
1.210000000000000000e+02,7.179425875890015074e-02
1.220000000000000000e+02,7.142243398890014972e-02
1.230000000000000000e+02,7.104895377890015074e-02
1.240000000000000000e+02,7.067381986390014470e-02
1.250000000000000000e+02,7.029649081390015875e-02
1.260000000000000000e+02,6.991832051890015109e-02
1.270000000000000000e+02,6.954026131390014798e-02
1.280000000000000000e+02,6.916106665390014951e-02
1.290000000000000000e+02,6.878030271390014883e-02
1.300000000000000000e+02,6.839777634890015223e-02
1.310000000000000000e+02,6.801338559390016081e-02
1.320000000000000000e+02,6.762708753390014871e-02
1.330000000000000000e+02,6.723886944390015941e-02
1.340000000000000000e+02,6.684872022390014878e-02
1.350000000000000000e+02,6.645598698390015047e-02
1.360000000000000000e+02,6.606205714890014957e-02
1.370000000000000000e+02,6.566800083890014794e-02
1.380000000000000000e+02,6.527251753390014843e-02
1.390000000000000000e+02,6.487512412390014638e-02
1.400000000000000000e+02,6.447560126390014523e-02
1.410000000000000000e+02,6.407383448390015224e-02
1.420000000000000000e+02,6.366975887890015395e-02
1.430000000000000000e+02,6.326334216390014364e-02
1.440000000000000000e+02,6.285419078390014347e-02
1.450000000000000000e+02,6.244350676390014732e-02
1.460000000000000000e+02,6.203196651890014596e-02
1.470000000000000000e+02,6.161837378890014372e-02
1.480000000000000000e+02,6.120230141890014436e-02
1.490000000000000000e+02,6.078354441390014518e-02
1.500000000000000000e+02,6.036199809390014465e-02
1.510000000000000000e+02,5.993759387390014404e-02
1.520000000000000000e+02,5.951027859390014413e-02
1.530000000000000000e+02,5.907951625390014255e-02
1.540000000000000000e+02,5.864652681890013958e-02
1.550000000000000000e+02,5.821210878390013777e-02
1.560000000000000000e+02,5.777500701390013427e-02
1.570000000000000000e+02,5.733475705390013444e-02
1.580000000000000000e+02,5.689112857390013489e-02
1.590000000000000000e+02,5.644397854890013250e-02
1.600000000000000000e+02,5.599321277890013243e-02
1.610000000000000000e+02,5.553850858890013037e-02
1.620000000000000000e+02,5.508088753890012790e-02
1.630000000000000000e+02,5.462079082890012455e-02
1.640000000000000000e+02,5.415706046890012698e-02
1.650000000000000000e+02,5.368925959890012700e-02
1.660000000000000000e+02,5.321716893390012609e-02
1.670000000000000000e+02,5.274065805890012365e-02
1.680000000000000000e+02,5.225963060390012571e-02
1.690000000000000000e+02,5.177363808890012714e-02
1.700000000000000000e+02,5.128372023890012676e-02
1.710000000000000000e+02,5.079044237890012470e-02
1.720000000000000000e+02,5.029263297390012405e-02
1.730000000000000000e+02,4.978986626890012646e-02
1.740000000000000000e+02,4.928193603390012417e-02
1.750000000000000000e+02,4.876873902390012339e-02
1.760000000000000000e+02,4.825021911890012283e-02
1.770000000000000000e+02,4.772585679390012325e-02
1.780000000000000000e+02,4.719675408390012344e-02
1.790000000000000000e+02,4.666366037890012225e-02
1.800000000000000000e+02,4.612547763390012490e-02
1.810000000000000000e+02,4.558187190890012480e-02
1.820000000000000000e+02,4.503275120390012182e-02
1.830000000000000000e+02,4.447813324390012535e-02
1.840000000000000000e+02,4.391771247390012511e-02
1.850000000000000000e+02,4.335254398390012837e-02
1.860000000000000000e+02,4.278331379890012998e-02
1.870000000000000000e+02,4.220917996390013277e-02
1.880000000000000000e+02,4.163000764890013167e-02
1.890000000000000000e+02,4.104587498390013106e-02
1.900000000000000000e+02,4.045663262390013226e-02
1.910000000000000000e+02,3.986329211390013394e-02
1.920000000000000000e+02,3.926651965390013516e-02
1.930000000000000000e+02,3.866569218890013315e-02
1.940000000000000000e+02,3.806080083390013524e-02
1.950000000000000000e+02,3.745200820390013480e-02
1.960000000000000000e+02,3.683910628890013639e-02
1.970000000000000000e+02,3.622314549390013433e-02
1.980000000000000000e+02,3.560494368390013098e-02
1.990000000000000000e+02,3.498388299390013667e-02
2.000000000000000000e+02,3.435995742390013374e-02
2.010000000000000000e+02,3.373332094890013622e-02
2.020000000000000000e+02,3.310358803890013635e-02
2.030000000000000000e+02,3.247177360890013409e-02
2.040000000000000000e+02,3.183878805390012723e-02
2.050000000000000000e+02,3.120396500890013081e-02
2.060000000000000000e+02,3.056725411390012748e-02
2.070000000000000000e+02,2.992876185890012974e-02
2.080000000000000000e+02,2.928789201390012698e-02
2.090000000000000000e+02,2.864560094390013190e-02
2.100000000000000000e+02,2.800291556890013855e-02
2.110000000000000000e+02,2.735913162390013476e-02
2.120000000000000000e+02,2.671416731890013940e-02
2.130000000000000000e+02,2.606810050890014108e-02
2.140000000000000000e+02,2.542014635890013641e-02
2.150000000000000000e+02,2.477126779890014008e-02
2.160000000000000000e+02,2.412266453390013443e-02
2.170000000000000000e+02,2.347363024390013153e-02
2.180000000000000000e+02,2.282409631890013058e-02
2.190000000000000000e+02,2.217415707390013591e-02
2.200000000000000000e+02,2.152292692890013515e-02
2.210000000000000000e+02,2.087146242890013104e-02
2.220000000000000000e+02,2.022116733890012841e-02
2.230000000000000000e+02,1.957137094890012974e-02
2.240000000000000000e+02,1.892205895390013104e-02
2.250000000000000000e+02,1.827338128390013083e-02
2.260000000000000000e+02,1.762458622390013219e-02
2.270000000000000000e+02,1.697694700890013675e-02
2.280000000000000000e+02,1.633198795390013169e-02
2.290000000000000000e+02,1.568909711390013839e-02
2.300000000000000000e+02,1.504836489890014339e-02
2.310000000000000000e+02,1.440952048890013770e-02
2.320000000000000000e+02,1.377418341390013179e-02
2.330000000000000000e+02,1.314371668890013112e-02
2.340000000000000000e+02,1.251753445890013694e-02
2.350000000000000000e+02,1.189587986890013049e-02
2.360000000000000000e+02,1.127922858390012495e-02
2.370000000000000000e+02,1.066892717390012513e-02
2.380000000000000000e+02,1.006727382390013026e-02
2.390000000000000000e+02,9.474755903900136667e-03
2.400000000000000000e+02,8.890854983900131625e-03
2.410000000000000000e+02,8.316266558900137218e-03
2.420000000000000000e+02,7.752030553900141063e-03
2.430000000000000000e+02,7.199369103900135625e-03
2.440000000000000000e+02,6.663231913900141690e-03
2.450000000000000000e+02,6.146578878900146869e-03
2.460000000000000000e+02,5.647047963900142520e-03
2.470000000000000000e+02,5.164442673900149217e-03
2.480000000000000000e+02,4.700451173900152546e-03
2.490000000000000000e+02,4.256793693900154385e-03
2.500000000000000000e+02,3.835193918900151044e-03
2.510000000000000000e+02,3.443916993900147938e-03
2.520000000000000000e+02,3.086931573900150716e-03
2.530000000000000000e+02,2.756023233900145586e-03
2.540000000000000000e+02,2.448379478900142292e-03
2.550000000000000000e+02,2.165929148900139212e-03
2.560000000000000000e+02,1.908838513900140699e-03
2.570000000000000000e+02,1.677150513900146911e-03
2.580000000000000000e+02,1.470401813900151788e-03
2.590000000000000000e+02,1.287763453900150901e-03
2.600000000000000000e+02,1.127946883900152186e-03
2.610000000000000000e+02,9.893711339001576288e-04
2.620000000000000000e+02,8.702529539001552239e-04
2.630000000000000000e+02,7.685666489001541368e-04
2.640000000000000000e+02,6.822966794001600332e-04
2.650000000000000000e+02,6.094867854001539964e-04
2.660000000000000000e+02,5.482343684001522721e-04
2.670000000000000000e+02,4.968269789001472647e-04
2.680000000000000000e+02,4.537353689001433210e-04
2.690000000000000000e+02,4.176056489001434002e-04
2.700000000000000000e+02,3.872796434001429811e-04
2.710000000000000000e+02,3.617854444001450398e-04
2.720000000000000000e+02,3.402976004001495580e-04
2.730000000000000000e+02,3.221285374001431334e-04
2.740000000000000000e+02,3.067041824001415229e-04
2.750000000000000000e+02,2.935600949001415660e-04
2.760000000000000000e+02,2.823128434001481724e-04
2.770000000000000000e+02,2.726439063001490082e-04
2.780000000000000000e+02,2.642901254501506259e-04
2.790000000000000000e+02,2.570355620501452165e-04
2.800000000000000000e+02,2.507048419501389791e-04
2.810000000000000000e+02,2.451518160501431343e-04
2.820000000000000000e+02,2.402569924001424218e-04
2.830000000000000000e+02,2.359203627001482673e-04
2.840000000000000000e+02,2.320582353501493555e-04
2.850000000000000000e+02,2.286026166501559098e-04
2.860000000000000000e+02,2.254965919001594710e-04
2.870000000000000000e+02,2.226910504001533564e-04
2.880000000000000000e+02,2.201448289501500843e-04
2.890000000000000000e+02,2.178239793001468527e-04
2.900000000000000000e+02,2.156995432501529475e-04
2.910000000000000000e+02,2.137485726001475683e-04
2.920000000000000000e+02,2.119497405501519216e-04
2.930000000000000000e+02,2.102847752001452131e-04
2.940000000000000000e+02,2.087382899501472044e-04
2.950000000000000000e+02,2.072971681501417640e-04
2.960000000000000000e+02,2.059507111001473989e-04
2.970000000000000000e+02,2.046889038501420455e-04
2.980000000000000000e+02,2.035031368501361015e-04
2.990000000000000000e+02,2.023863949001392104e-04
3.000000000000000000e+02,2.013319929501378169e-04
3.010000000000000000e+02,2.003340771651318519e-04
3.020000000000000000e+02,1.993875841451303588e-04
3.030000000000000000e+02,1.984880255701260143e-04
3.040000000000000000e+02,1.976318586851266712e-04
3.050000000000000000e+02,1.968154409451305931e-04
3.060000000000000000e+02,1.960355363401361517e-04
3.070000000000000000e+02,1.952893001201383427e-04
3.080000000000000000e+02,1.945741992451371916e-04
3.090000000000000000e+02,1.938879674401317033e-04
3.100000000000000000e+02,1.932288672301385457e-04
3.110000000000000000e+02,1.925949665451398563e-04
3.120000000000000000e+02,1.919842246051461920e-04
3.130000000000000000e+02,1.913954430001474361e-04
3.140000000000000000e+02,1.908272146801531788e-04
3.150000000000000000e+02,1.902782260301549844e-04
3.160000000000000000e+02,1.897473087951601078e-04
3.170000000000000000e+02,1.892333840701615477e-04
3.180000000000000000e+02,1.887357107001608192e-04
3.190000000000000000e+02,1.882530906301554952e-04
3.200000000000000000e+02,1.877846978051572746e-04
3.210000000000000000e+02,1.873300132301525256e-04
3.220000000000000000e+02,1.868882790901499336e-04
3.230000000000000000e+02,1.864585871001467332e-04
3.240000000000000000e+02,1.860403589451498085e-04
3.250000000000000000e+02,1.856332714551545138e-04
3.260000000000000000e+02,1.852367635551549485e-04
3.270000000000000000e+02,1.848503043001548107e-04
3.280000000000000000e+02,1.844734103401551861e-04
3.290000000000000000e+02,1.841056377851618686e-04
3.300000000000000000e+02,1.837465763651624506e-04
3.310000000000000000e+02,1.833958456451678654e-04
3.320000000000000000e+02,1.830530901501675745e-04
3.330000000000000000e+02,1.827179769051667790e-04
3.340000000000000000e+02,1.823901939001643102e-04
3.350000000000000000e+02,1.820694471051653718e-04
3.360000000000000000e+02,1.817554593801645746e-04
3.370000000000000000e+02,1.814481205101581285e-04
3.380000000000000000e+02,1.811471392951513604e-04
3.390000000000000000e+02,1.808520890601572617e-04
3.400000000000000000e+02,1.805627657201630543e-04
3.410000000000000000e+02,1.802789851251679343e-04
3.420000000000000000e+02,1.800005659451653361e-04
3.430000000000000000e+02,1.797274667901666012e-04
3.440000000000000000e+02,1.794594758951634228e-04
3.450000000000000000e+02,1.791962531651619672e-04
3.460000000000000000e+02,1.789376539051562576e-04
3.470000000000000000e+02,1.786836754751608414e-04
3.480000000000000000e+02,1.784341505151609830e-04
3.490000000000000000e+02,1.781887863101655478e-04
3.500000000000000000e+02,1.779475905301641792e-04
3.510000000000000000e+02,1.777104253601613504e-04
3.520000000000000000e+02,1.774770300901618025e-04
3.530000000000000000e+02,1.772474278351615640e-04
3.540000000000000000e+02,1.770215002151603878e-04
3.550000000000000000e+02,1.767990093401589080e-04
3.560000000000000000e+02,1.765799878951646029e-04
3.570000000000000000e+02,1.763643320251695457e-04
3.580000000000000000e+02,1.761519311701681412e-04
3.590000000000000000e+02,1.759426864451629768e-04
3.600000000000000000e+02,1.757363971951614312e-04
3.610000000000000000e+02,1.755331129801585011e-04
3.620000000000000000e+02,1.753327526701625727e-04
3.630000000000000000e+02,1.751352264801608882e-04
3.640000000000000000e+02,1.749404540151572318e-04
3.650000000000000000e+02,1.747482581001547075e-04
3.660000000000000000e+02,1.745586952201505504e-04
3.670000000000000000e+02,1.743716987751553482e-04
3.680000000000000000e+02,1.741871933701594211e-04
3.690000000000000000e+02,1.740051115251550762e-04
3.700000000000000000e+02,1.738253884101537139e-04
3.710000000000000000e+02,1.736479654751571511e-04
3.720000000000000000e+02,1.734727848601569367e-04
3.730000000000000000e+02,1.732997938251601422e-04
3.740000000000000000e+02,1.731289394701629458e-04
3.750000000000000000e+02,1.729601731051688684e-04
3.760000000000000000e+02,1.727934457901730836e-04
3.770000000000000000e+02,1.726287123351710751e-04
3.780000000000000000e+02,1.724659269901757108e-04
3.790000000000000000e+02,1.723050476451770674e-04
3.800000000000000000e+02,1.721460314701717120e-04
3.810000000000000000e+02,1.719888389201673640e-04
3.820000000000000000e+02,1.718334299451729219e-04
3.830000000000000000e+02,1.716798492001764265e-04
3.840000000000000000e+02,1.715279551251780443e-04
3.850000000000000000e+02,1.713777113651754336e-04
3.860000000000000000e+02,1.712290920201781086e-04
3.870000000000000000e+02,1.710820683951813637e-04
3.880000000000000000e+02,1.709366124851841029e-04
3.890000000000000000e+02,1.707926941201809434e-04
3.900000000000000000e+02,1.706503611501875017e-04
3.910000000000000000e+02,1.705094868751921844e-04
3.920000000000000000e+02,1.703700421751969118e-04
3.930000000000000000e+02,1.702320073102003839e-04
3.940000000000000000e+02,1.700953598252064047e-04
3.950000000000000000e+02,1.699601503302033967e-04
3.960000000000000000e+02,1.698262616952050941e-04
3.970000000000000000e+02,1.696936694952078106e-04
3.980000000000000000e+02,1.695623577752103373e-04
3.990000000000000000e+02,1.694323076752157764e-04
