# Time [s], Thickness [m]
1.000000000000000000e+00,8.000000400000000303e-03
2.000000000000000000e+00,8.000000400000000303e-03
3.000000000000000000e+00,8.000000400000000303e-03
4.000000000000000000e+00,8.000000400000000303e-03
5.000000000000000000e+00,8.000000400000000303e-03
6.000000000000000000e+00,8.000000400000000303e-03
7.000000000000000000e+00,8.000000400000000303e-03
8.000000000000000000e+00,8.000000400000000303e-03
9.000000000000000000e+00,8.000000400000000303e-03
1.000000000000000000e+01,7.999999400000000829e-03
1.100000000000000000e+01,7.999999400000000829e-03
1.200000000000000000e+01,7.999998499999999221e-03
1.300000000000000000e+01,7.999995700000000001e-03
1.400000000000000000e+01,7.999988300000000080e-03
1.500000000000000000e+01,7.999972399999999428e-03
1.600000000000000000e+01,7.999938899999999714e-03
1.700000000000000000e+01,7.999872800000000159e-03
1.800000000000000000e+01,7.999747999999999234e-03
1.900000000000000000e+01,7.999523499999999440e-03
2.000000000000000000e+01,7.999137999999999388e-03
2.100000000000000000e+01,7.998500000000000401e-03
2.200000000000000000e+01,7.997485800000000630e-03
2.300000000000000000e+01,7.995932399999999135e-03
2.400000000000000000e+01,7.993639400000000436e-03
2.500000000000000000e+01,7.990382600000000071e-03
2.600000000000000000e+01,7.985932799999999679e-03
2.700000000000000000e+01,7.980086799999999356e-03
2.800000000000000000e+01,7.972694000000000655e-03
2.900000000000000000e+01,7.963680699999999696e-03
3.000000000000000000e+01,7.953045000000000600e-03
3.100000000000000000e+01,7.940850200000000234e-03
3.200000000000000000e+01,7.927199799999999630e-03
3.300000000000000000e+01,7.912308899999999715e-03
3.400000000000000000e+01,7.896492300000000283e-03
3.500000000000000000e+01,7.879545899999999825e-03
3.600000000000000000e+01,7.861578799999999548e-03
3.700000000000000000e+01,7.842674900000000740e-03
3.800000000000000000e+01,7.822925200000000606e-03
3.900000000000000000e+01,7.802404899999999636e-03
4.000000000000000000e+01,7.781183300000000212e-03
4.100000000000000000e+01,7.759320099999999706e-03
4.200000000000000000e+01,7.736867300000000239e-03
4.300000000000000000e+01,7.713870599999999612e-03
4.400000000000000000e+01,7.690371900000000406e-03
4.500000000000000000e+01,7.666406199999999810e-03
4.600000000000000000e+01,7.642007000000000140e-03
4.700000000000000000e+01,7.617202600000000205e-03
4.800000000000000000e+01,7.592019600000000402e-03
4.900000000000000000e+01,7.565785200000000287e-03
5.000000000000000000e+01,7.540358199999999678e-03
5.100000000000000000e+01,7.514602500000000171e-03
5.200000000000000000e+01,7.488542699999999747e-03
5.300000000000000000e+01,7.462143000000000075e-03
5.400000000000000000e+01,7.435424700000000178e-03
5.500000000000000000e+01,7.408401499999999959e-03
5.600000000000000000e+01,7.381092799999999961e-03
5.700000000000000000e+01,7.353514400000000367e-03
5.800000000000000000e+01,7.325682800000000300e-03
5.900000000000000000e+01,7.297611800000000128e-03
6.000000000000000000e+01,7.269314500000000415e-03
6.100000000000000000e+01,7.240220399999999605e-03
6.200000000000000000e+01,7.211998100000000314e-03
6.300000000000000000e+01,7.183528500000000393e-03
6.400000000000000000e+01,7.154853499999999818e-03
6.500000000000000000e+01,7.125936400000000386e-03
6.600000000000000000e+01,7.096797699999999980e-03
6.700000000000000000e+01,7.067444299999999652e-03
6.800000000000000000e+01,7.037891499999999849e-03
6.900000000000000000e+01,7.008149800000000249e-03
7.000000000000000000e+01,6.978230600000000401e-03
7.100000000000000000e+01,6.948142299999999702e-03
7.200000000000000000e+01,6.917894800000000226e-03
7.300000000000000000e+01,6.886940900000000122e-03
7.400000000000000000e+01,6.856962099999999900e-03
7.500000000000000000e+01,6.826757900000000011e-03
7.600000000000000000e+01,6.796382800000000390e-03
7.700000000000000000e+01,6.765798200000000019e-03
7.800000000000000000e+01,6.735025900000000260e-03
7.900000000000000000e+01,6.704072900000000029e-03
8.000000000000000000e+01,6.672952799999999629e-03
8.100000000000000000e+01,6.641673899999999721e-03
8.200000000000000000e+01,6.610245899999999709e-03
8.300000000000000000e+01,6.578221000000000415e-03
8.400000000000000000e+01,6.547055199999999610e-03
8.500000000000000000e+01,6.515663599999999868e-03
8.600000000000000000e+01,6.484107599999999576e-03
8.700000000000000000e+01,6.452355100000000364e-03
8.800000000000000000e+01,6.420427000000000252e-03
8.900000000000000000e+01,6.388329400000000019e-03
9.000000000000000000e+01,6.356073500000000015e-03
9.100000000000000000e+01,6.323666799999999762e-03
9.200000000000000000e+01,6.291116599999999580e-03
9.300000000000000000e+01,6.258428100000000376e-03
9.400000000000000000e+01,6.225066300000000122e-03
9.500000000000000000e+01,6.192692100000000109e-03
9.600000000000000000e+01,6.160087399999999991e-03
9.700000000000000000e+01,6.127317900000000053e-03
9.800000000000000000e+01,6.094343999999999803e-03
9.900000000000000000e+01,6.061186500000000262e-03
1.000000000000000000e+02,6.027851300000000405e-03
1.010000000000000000e+02,5.994347899999999570e-03
1.020000000000000000e+02,5.960683799999999880e-03
1.030000000000000000e+02,5.926865199999999979e-03
1.040000000000000000e+02,5.892348500000000114e-03
1.050000000000000000e+02,5.858747800000000359e-03
1.060000000000000000e+02,5.824911900000000198e-03
1.070000000000000000e+02,5.790902300000000218e-03
1.080000000000000000e+02,5.756678999999999789e-03
1.090000000000000000e+02,5.722259599999999710e-03
1.100000000000000000e+02,5.687647500000000272e-03
1.110000000000000000e+02,5.652851000000000403e-03
1.120000000000000000e+02,5.617874699999999936e-03
1.130000000000000000e+02,5.582291599999999847e-03
1.140000000000000000e+02,5.547510500000000025e-03
1.150000000000000000e+02,5.512442000000000210e-03
1.160000000000000000e+02,5.477161599999999693e-03
1.170000000000000000e+02,5.441635799999999627e-03
1.180000000000000000e+02,5.405885200000000099e-03
1.190000000000000000e+02,5.369912400000000259e-03
1.200000000000000000e+02,5.333726799999999844e-03
1.210000000000000000e+02,5.297331100000000209e-03
1.220000000000000000e+02,5.260730600000000125e-03
1.230000000000000000e+02,5.223423700000000280e-03
1.240000000000000000e+02,5.186996400000000278e-03
1.250000000000000000e+02,5.150233399999999857e-03
1.260000000000000000e+02,5.113216599999999626e-03
1.270000000000000000e+02,5.075907299999999830e-03
1.280000000000000000e+02,5.038326099999999690e-03
1.290000000000000000e+02,5.000474900000000285e-03
1.300000000000000000e+02,4.962361400000000339e-03
1.310000000000000000e+02,4.923988600000000007e-03
1.320000000000000000e+02,4.884844200000000233e-03
1.330000000000000000e+02,4.846474600000000126e-03
1.340000000000000000e+02,4.807725500000000277e-03
1.350000000000000000e+02,4.768672899999999715e-03
1.360000000000000000e+02,4.729276099999999740e-03
1.370000000000000000e+02,4.689551900000000009e-03
1.380000000000000000e+02,4.649498999999999646e-03
1.390000000000000000e+02,4.609120999999999878e-03
1.400000000000000000e+02,4.567997100000000324e-03
1.410000000000000000e+02,4.527478500000000315e-03
1.420000000000000000e+02,4.486486799999999872e-03
1.430000000000000000e+02,4.445109499999999776e-03
1.440000000000000000e+02,4.403308499999999612e-03
1.450000000000000000e+02,4.361098199999999953e-03
1.460000000000000000e+02,4.318474299999999766e-03
1.470000000000000000e+02,4.275435600000000377e-03
1.480000000000000000e+02,4.231513000000000115e-03
1.490000000000000000e+02,4.188117600000000086e-03
1.500000000000000000e+02,4.144140099999999750e-03
1.510000000000000000e+02,4.099667100000000015e-03
1.520000000000000000e+02,4.054653000000000077e-03
1.530000000000000000e+02,4.009107599999999806e-03
1.540000000000000000e+02,3.963019699999999722e-03
1.550000000000000000e+02,3.915990700000000074e-03
1.560000000000000000e+02,3.869267599999999790e-03
1.570000000000000000e+02,3.821812999999999860e-03
1.580000000000000000e+02,3.773721900000000153e-03
1.590000000000000000e+02,3.724954800000000212e-03
1.600000000000000000e+02,3.675524600000000097e-03
1.610000000000000000e+02,3.625425299999999931e-03
1.620000000000000000e+02,3.574220700000000153e-03
1.630000000000000000e+02,3.523215899999999987e-03
1.640000000000000000e+02,3.471372899999999786e-03
1.650000000000000000e+02,3.418808599999999948e-03
1.660000000000000000e+02,3.365503399999999860e-03
1.670000000000000000e+02,3.311494800000000169e-03
1.680000000000000000e+02,3.256804800000000135e-03
1.690000000000000000e+02,3.200984999999999941e-03
1.700000000000000000e+02,3.145407199999999872e-03
1.710000000000000000e+02,3.089065399999999916e-03
1.720000000000000000e+02,3.032118500000000050e-03
1.730000000000000000e+02,2.974581000000000013e-03
1.740000000000000000e+02,2.916141200000000201e-03
1.750000000000000000e+02,2.857916800000000115e-03
1.760000000000000000e+02,2.799095599999999913e-03
1.770000000000000000e+02,2.739843699999999858e-03
1.780000000000000000e+02,2.680188699999999820e-03
1.790000000000000000e+02,2.620198099999999832e-03
1.800000000000000000e+02,2.559440899999999939e-03
1.810000000000000000e+02,2.499179900000000117e-03
1.820000000000000000e+02,2.438515400000000177e-03
1.830000000000000000e+02,2.377608800000000078e-03
1.840000000000000000e+02,2.316468199999999981e-03
1.850000000000000000e+02,2.255144299999999827e-03
1.860000000000000000e+02,2.193128199999999986e-03
1.870000000000000000e+02,2.131715000000000172e-03
1.880000000000000000e+02,2.069994300000000016e-03
1.890000000000000000e+02,2.008127499999999913e-03
1.900000000000000000e+02,1.946111799999999991e-03
1.910000000000000000e+02,1.883415299999999931e-03
1.920000000000000000e+02,1.821344799999999970e-03
1.930000000000000000e+02,1.759026699999999927e-03
1.940000000000000000e+02,1.696632200000000069e-03
1.950000000000000000e+02,1.634157600000000002e-03
1.960000000000000000e+02,1.571000199999999982e-03
1.970000000000000000e+02,1.508588200000000011e-03
1.980000000000000000e+02,1.446017499999999916e-03
1.990000000000000000e+02,1.383487000000000085e-03
2.000000000000000000e+02,1.320984199999999942e-03
2.010000000000000000e+02,1.257904700000000032e-03
2.020000000000000000e+02,1.195815000000000029e-03
2.030000000000000000e+02,1.133729599999999975e-03
2.040000000000000000e+02,1.071897600000000029e-03
2.050000000000000000e+02,1.010300499999999954e-03
2.060000000000000000e+02,9.490234699999999758e-04
2.070000000000000000e+02,8.878205600000000329e-04
2.080000000000000000e+02,8.280967599999999526e-04
2.090000000000000000e+02,7.687411899999999770e-04
2.100000000000000000e+02,7.102154199999999914e-04
2.110000000000000000e+02,6.525405300000000066e-04
2.120000000000000000e+02,5.966199099999999972e-04
2.130000000000000000e+02,5.427390599999999590e-04
2.140000000000000000e+02,4.899452300000000423e-04
2.150000000000000000e+02,4.391211799999999847e-04
2.160000000000000000e+02,3.901833600000000264e-04
2.170000000000000000e+02,3.437094300000000015e-04
2.180000000000000000e+02,2.998518499999999775e-04
2.190000000000000000e+02,2.618711399999999832e-04
2.200000000000000000e+02,2.260149899999999961e-04
2.210000000000000000e+02,1.940974000000000096e-04
2.220000000000000000e+02,1.645077299999999992e-04
2.230000000000000000e+02,1.396790800000000078e-04
2.240000000000000000e+02,1.164153700000000014e-04
2.250000000000000000e+02,9.923153299999999709e-05
2.260000000000000000e+02,8.087461900000000523e-05
2.270000000000000000e+02,7.166485700000000130e-05
2.280000000000000000e+02,5.457961700000000155e-05
2.290000000000000000e+02,5.248132900000000115e-05
2.300000000000000000e+02,3.783346300000000169e-05
2.310000000000000000e+02,3.746902100000000068e-05
2.320000000000000000e+02,3.347478600000000182e-05
2.330000000000000000e+02,3.010182600000000150e-05
2.340000000000000000e+02,2.791895200000000022e-05
2.350000000000000000e+02,2.578278100000000125e-05
2.360000000000000000e+02,2.427417500000000040e-05
2.370000000000000000e+02,2.295058599999999846e-05
2.380000000000000000e+02,2.188763800000000093e-05
2.390000000000000000e+02,2.100590100000000100e-05
2.400000000000000000e+02,2.026768899999999900e-05
2.410000000000000000e+02,1.964627199999999864e-05
2.420000000000000000e+02,1.911881600000000110e-05
2.430000000000000000e+02,1.866678600000000061e-05
2.440000000000000000e+02,1.827655099999999977e-05
2.450000000000000000e+02,1.793715100000000095e-05
2.460000000000000000e+02,1.763932199999999916e-05
2.470000000000000000e+02,1.737627499999999992e-05
2.480000000000000000e+02,1.714247999999999922e-05
2.490000000000000000e+02,1.693314000000000166e-05
2.500000000000000000e+02,1.674464700000000082e-05
2.510000000000000000e+02,1.657403099999999900e-05
2.520000000000000000e+02,1.641868799999999970e-05
2.530000000000000000e+02,1.627659200000000078e-05
2.540000000000000000e+02,1.614605199999999982e-05
2.550000000000000000e+02,1.602557499999999945e-05
2.560000000000000000e+02,1.591396399999999860e-05
2.570000000000000000e+02,1.581020300000000140e-05
2.580000000000000000e+02,1.571339600000000008e-05
2.590000000000000000e+02,1.562279999999999889e-05
2.600000000000000000e+02,1.553777299999999832e-05
2.610000000000000000e+02,1.545774100000000159e-05
2.620000000000000000e+02,1.538222399999999884e-05
2.630000000000000000e+02,1.531080499999999952e-05
2.640000000000000000e+02,1.524310299999999967e-05
2.650000000000000000e+02,1.517879800000000063e-05
2.660000000000000000e+02,1.511760400000000001e-05
2.670000000000000000e+02,1.505926000000000055e-05
2.680000000000000000e+02,1.500354199999999947e-05
2.690000000000000000e+02,1.495024799999999923e-05
2.700000000000000000e+02,1.489919600000000032e-05
2.710000000000000000e+02,1.485022200000000074e-05
2.720000000000000000e+02,1.480317999999999944e-05
2.730000000000000000e+02,1.475793599999999991e-05
2.740000000000000000e+02,1.471437099999999993e-05
2.750000000000000000e+02,1.467237599999999967e-05
2.760000000000000000e+02,1.463185100000000060e-05
2.770000000000000000e+02,1.459270399999999932e-05
2.780000000000000000e+02,1.455485399999999934e-05
2.790000000000000000e+02,1.451822400000000000e-05
2.800000000000000000e+02,1.448274499999999918e-05
2.810000000000000000e+02,1.444835099999999973e-05
2.820000000000000000e+02,1.441498399999999961e-05
2.830000000000000000e+02,1.438258800000000067e-05
2.840000000000000000e+02,1.435111499999999990e-05
2.850000000000000000e+02,1.432051599999999996e-05
2.860000000000000000e+02,1.429074700000000048e-05
2.870000000000000000e+02,1.426176899999999976e-05
2.880000000000000000e+02,1.423354299999999946e-05
2.890000000000000000e+02,1.420603400000000053e-05
2.900000000000000000e+02,1.417921000000000040e-05
2.910000000000000000e+02,1.415303800000000048e-05
2.920000000000000000e+02,1.412749199999999962e-05
2.930000000000000000e+02,1.410254300000000021e-05
2.940000000000000000e+02,1.407816600000000049e-05
2.950000000000000000e+02,1.405433699999999981e-05
2.960000000000000000e+02,1.403103500000000076e-05
2.970000000000000000e+02,1.400823700000000037e-05
2.980000000000000000e+02,1.398592400000000003e-05
2.990000000000000000e+02,1.396407699999999942e-05
3.000000000000000000e+02,1.394267799999999932e-05
3.010000000000000000e+02,1.392171099999999929e-05
3.020000000000000000e+02,1.390115899999999949e-05
3.030000000000000000e+02,1.388100700000000057e-05
3.040000000000000000e+02,1.386124200000000026e-05
3.050000000000000000e+02,1.384184899999999921e-05
3.060000000000000000e+02,1.382281599999999962e-05
3.070000000000000000e+02,1.380413100000000033e-05
3.080000000000000000e+02,1.378578100000000075e-05
3.090000000000000000e+02,1.376775500000000080e-05
3.100000000000000000e+02,1.375004500000000025e-05
3.110000000000000000e+02,1.373263700000000084e-05
3.120000000000000000e+02,1.371552400000000004e-05
3.130000000000000000e+02,1.369869600000000055e-05
3.140000000000000000e+02,1.368214500000000044e-05
3.150000000000000000e+02,1.366586299999999950e-05
3.160000000000000000e+02,1.364983899999999933e-05
3.170000000000000000e+02,1.363406900000000067e-05
3.180000000000000000e+02,1.361854400000000051e-05
3.190000000000000000e+02,1.360325600000000032e-05
3.200000000000000000e+02,1.358819900000000038e-05
3.210000000000000000e+02,1.357336800000000031e-05
3.220000000000000000e+02,1.355875400000000053e-05
3.230000000000000000e+02,1.354435399999999944e-05
3.240000000000000000e+02,1.353016099999999963e-05
3.250000000000000000e+02,1.351616800000000025e-05
3.260000000000000000e+02,1.350237199999999975e-05
3.270000000000000000e+02,1.348876600000000068e-05
3.280000000000000000e+02,1.347534600000000039e-05
3.290000000000000000e+02,1.346210900000000071e-05
3.300000000000000000e+02,1.344904699999999971e-05
3.310000000000000000e+02,1.343615800000000032e-05
3.320000000000000000e+02,1.342343700000000048e-05
3.330000000000000000e+02,1.341087999999999924e-05
3.340000000000000000e+02,1.339848300000000072e-05
3.350000000000000000e+02,1.338624299999999997e-05
3.360000000000000000e+02,1.337415500000000002e-05
3.370000000000000000e+02,1.336221599999999932e-05
3.380000000000000000e+02,1.335042400000000078e-05
3.390000000000000000e+02,1.333877299999999956e-05
3.400000000000000000e+02,1.332726100000000027e-05
3.410000000000000000e+02,1.331588600000000074e-05
3.420000000000000000e+02,1.330464300000000061e-05
3.430000000000000000e+02,1.329352999999999942e-05
3.440000000000000000e+02,1.328254500000000007e-05
3.450000000000000000e+02,1.327168499999999929e-05
3.460000000000000000e+02,1.326094700000000062e-05
3.470000000000000000e+02,1.325032699999999969e-05
3.480000000000000000e+02,1.323982499999999991e-05
3.490000000000000000e+02,1.322943700000000030e-05
3.500000000000000000e+02,1.321916199999999980e-05
3.510000000000000000e+02,1.320899600000000082e-05
3.520000000000000000e+02,1.319893800000000058e-05
3.530000000000000000e+02,1.318898600000000031e-05
3.540000000000000000e+02,1.317913700000000012e-05
3.550000000000000000e+02,1.316939000000000064e-05
3.560000000000000000e+02,1.315974200000000029e-05
3.570000000000000000e+02,1.315019199999999968e-05
3.580000000000000000e+02,1.314073700000000063e-05
3.590000000000000000e+02,1.313137600000000036e-05
3.600000000000000000e+02,1.312210900000000057e-05
3.610000000000000000e+02,1.311293099999999922e-05
3.620000000000000000e+02,1.310384199999999969e-05
3.630000000000000000e+02,1.309483999999999980e-05
3.640000000000000000e+02,1.308592400000000018e-05
3.650000000000000000e+02,1.307709200000000032e-05
3.660000000000000000e+02,1.306834299999999917e-05
3.670000000000000000e+02,1.305967499999999961e-05
3.680000000000000000e+02,1.305108700000000056e-05
3.690000000000000000e+02,1.304257799999999925e-05
3.700000000000000000e+02,1.303414499999999919e-05
3.710000000000000000e+02,1.302578800000000038e-05
3.720000000000000000e+02,1.301750600000000005e-05
3.730000000000000000e+02,1.300929600000000000e-05
3.740000000000000000e+02,1.300115899999999964e-05
3.750000000000000000e+02,1.299309200000000079e-05
3.760000000000000000e+02,1.298509599999999945e-05
3.770000000000000000e+02,1.297716800000000084e-05
3.780000000000000000e+02,1.296930700000000047e-05
3.790000000000000000e+02,1.296151200000000066e-05
3.800000000000000000e+02,1.295378299999999971e-05
3.810000000000000000e+02,1.294611899999999991e-05
3.820000000000000000e+02,1.293851699999999971e-05
3.830000000000000000e+02,1.293097700000000079e-05
3.840000000000000000e+02,1.292349999999999917e-05
3.850000000000000000e+02,1.291608200000000066e-05
3.860000000000000000e+02,1.290872399999999957e-05
3.870000000000000000e+02,1.290142400000000050e-05
3.880000000000000000e+02,1.289418200000000007e-05
3.890000000000000000e+02,1.288699700000000058e-05
3.900000000000000000e+02,1.287986699999999985e-05
3.910000000000000000e+02,1.287279300000000067e-05
3.920000000000000000e+02,1.286577400000000026e-05
3.930000000000000000e+02,1.285880799999999982e-05
3.940000000000000000e+02,1.285189499999999937e-05
3.950000000000000000e+02,1.284503399999999950e-05
3.960000000000000000e+02,1.283822400000000084e-05
3.970000000000000000e+02,1.283146499999999997e-05
3.980000000000000000e+02,1.282475599999999922e-05
3.990000000000000000e+02,1.281809499999999980e-05
