# Time [s], Thickness [m]
1.000000000000000000e+00,8.000000400000000303e-03
2.000000000000000000e+00,8.000000400000000303e-03
3.000000000000000000e+00,8.000000400000000303e-03
4.000000000000000000e+00,8.000000400000000303e-03
5.000000000000000000e+00,8.000000400000000303e-03
6.000000000000000000e+00,8.000000400000000303e-03
7.000000000000000000e+00,8.000000400000000303e-03
8.000000000000000000e+00,8.000000400000000303e-03
9.000000000000000000e+00,8.000000400000000303e-03
1.000000000000000000e+01,8.000000400000000303e-03
1.100000000000000000e+01,8.000000400000000303e-03
1.200000000000000000e+01,8.000000400000000303e-03
1.300000000000000000e+01,8.000000400000000303e-03
1.400000000000000000e+01,8.000000400000000303e-03
1.500000000000000000e+01,8.000000400000000303e-03
1.600000000000000000e+01,8.000000400000000303e-03
1.700000000000000000e+01,7.999999400000000829e-03
1.800000000000000000e+01,7.999999400000000829e-03
1.900000000000000000e+01,7.999999400000000829e-03
2.000000000000000000e+01,7.999999400000000829e-03
2.100000000000000000e+01,7.999999400000000829e-03
2.200000000000000000e+01,7.999999400000000829e-03
2.300000000000000000e+01,7.999998499999999221e-03
2.400000000000000000e+01,7.999997599999999348e-03
2.500000000000000000e+01,7.999996699999999475e-03
2.600000000000000000e+01,7.999995700000000001e-03
2.700000000000000000e+01,7.999993900000000255e-03
2.800000000000000000e+01,7.999991999999999173e-03
2.900000000000000000e+01,7.999988300000000080e-03
3.000000000000000000e+01,7.999984499999999651e-03
3.100000000000000000e+01,7.999979900000000685e-03
3.200000000000000000e+01,7.999973400000000637e-03
3.300000000000000000e+01,7.999965899999999380e-03
3.400000000000000000e+01,7.999955700000000239e-03
3.500000000000000000e+01,7.999943600000000016e-03
3.600000000000000000e+01,7.999927699999999364e-03
3.700000000000000000e+01,7.999909100000000828e-03
3.800000000000000000e+01,7.999886799999999729e-03
3.900000000000000000e+01,7.999859800000000062e-03
4.000000000000000000e+01,7.999827200000000221e-03
4.100000000000000000e+01,7.999789000000000205e-03
4.200000000000000000e+01,7.999743300000000668e-03
4.300000000000000000e+01,7.999689299999999600e-03
4.400000000000000000e+01,7.999625999999999265e-03
4.500000000000000000e+01,7.999552400000000188e-03
4.600000000000000000e+01,7.999466699999999153e-03
4.700000000000000000e+01,7.999367099999999883e-03
4.800000000000000000e+01,7.999253499999999309e-03
4.900000000000000000e+01,7.999122100000000471e-03
5.000000000000000000e+01,7.998972199999999227e-03
5.100000000000000000e+01,7.998801800000000101e-03
5.200000000000000000e+01,7.998608100000000401e-03
5.300000000000000000e+01,7.998388299999999174e-03
5.400000000000000000e+01,7.998141500000000015e-03
5.500000000000000000e+01,7.997863900000000761e-03
5.600000000000000000e+01,7.997552899999999659e-03
5.700000000000000000e+01,7.997204500000000549e-03
5.800000000000000000e+01,7.996818100000000623e-03
5.900000000000000000e+01,7.996387799999999171e-03
6.000000000000000000e+01,7.995911899999999517e-03
6.100000000000000000e+01,7.995385699999999624e-03
6.200000000000000000e+01,7.994807300000000144e-03
6.300000000000000000e+01,7.994170300000000631e-03
6.400000000000000000e+01,7.993473699999999876e-03
6.500000000000000000e+01,7.992710899999999966e-03
6.600000000000000000e+01,7.991879199999999545e-03
6.700000000000000000e+01,7.990974899999999520e-03
6.800000000000000000e+01,7.989993299999999590e-03
6.900000000000000000e+01,7.988929699999999454e-03
7.000000000000000000e+01,7.987780499999999617e-03
7.100000000000000000e+01,7.986541800000000052e-03
7.200000000000000000e+01,7.985208199999999784e-03
7.300000000000000000e+01,7.983777699999999866e-03
7.400000000000000000e+01,7.982244700000000123e-03
7.500000000000000000e+01,7.980605599999999328e-03
7.600000000000000000e+01,7.978856600000000521e-03
7.700000000000000000e+01,7.976994799999999677e-03
7.800000000000000000e+01,7.975015800000000502e-03
7.900000000000000000e+01,7.972916599999999368e-03
8.000000000000000000e+01,7.970693500000000653e-03
8.100000000000000000e+01,7.968344699999999406e-03
8.200000000000000000e+01,7.965866500000000003e-03
8.300000000000000000e+01,7.963256900000000027e-03
8.400000000000000000e+01,7.960512299999999986e-03
8.500000000000000000e+01,7.957632699999999878e-03
8.600000000000000000e+01,7.954615199999999151e-03
8.700000000000000000e+01,7.951457099999999917e-03
8.800000000000000000e+01,7.948159200000000715e-03
8.900000000000000000e+01,7.944718899999999792e-03
9.000000000000000000e+01,7.941135199999999408e-03
9.100000000000000000e+01,7.937408999999999437e-03
9.200000000000000000e+01,7.933537500000000658e-03
9.300000000000000000e+01,7.929522499999999349e-03
9.400000000000000000e+01,7.925363300000000041e-03
9.500000000000000000e+01,7.921059600000000464e-03
9.600000000000000000e+01,7.916612599999999292e-03
9.700000000000000000e+01,7.912022100000000793e-03
9.800000000000000000e+01,7.907289099999999238e-03
9.900000000000000000e+01,7.902413599999999830e-03
1.000000000000000000e+02,7.897398400000000054e-03
1.010000000000000000e+02,7.892242600000000038e-03
1.020000000000000000e+02,7.887014200000000419e-03
1.030000000000000000e+02,7.881664700000000703e-03
1.040000000000000000e+02,7.876186599999999635e-03
1.050000000000000000e+02,7.870577300000000665e-03
1.060000000000000000e+02,7.864836599999999386e-03
1.070000000000000000e+02,7.858964600000000605e-03
1.080000000000000000e+02,7.852961300000000852e-03
1.090000000000000000e+02,7.846827600000000000e-03
1.100000000000000000e+02,7.840565400000000865e-03
1.110000000000000000e+02,7.834176499999999724e-03
1.120000000000000000e+02,7.827660999999999647e-03
1.130000000000000000e+02,7.821021600000000254e-03
1.140000000000000000e+02,7.814260199999999157e-03
1.150000000000000000e+02,7.807377699999999698e-03
1.160000000000000000e+02,7.800376000000000358e-03
1.170000000000000000e+02,7.793256999999999615e-03
1.180000000000000000e+02,7.786022499999999819e-03
1.190000000000000000e+02,7.778673399999999974e-03
1.200000000000000000e+02,7.771212599999999769e-03
1.210000000000000000e+02,7.763640500000000208e-03
1.220000000000000000e+02,7.755959399999999906e-03
1.230000000000000000e+02,7.748170799999999810e-03
1.240000000000000000e+02,7.740275900000000327e-03
1.250000000000000000e+02,7.732277299999999742e-03
1.260000000000000000e+02,7.724175199999999859e-03
1.270000000000000000e+02,7.715972100000000229e-03
1.280000000000000000e+02,7.707668499999999721e-03
1.290000000000000000e+02,7.699266500000000353e-03
1.300000000000000000e+02,7.690767299999999931e-03
1.310000000000000000e+02,7.682172099999999733e-03
1.320000000000000000e+02,7.673482399999999835e-03
1.330000000000000000e+02,7.664698600000000375e-03
1.340000000000000000e+02,7.655823099999999569e-03
1.350000000000000000e+02,7.646856399999999755e-03
1.360000000000000000e+02,7.637799699999999609e-03
1.370000000000000000e+02,7.628654099999999938e-03
1.380000000000000000e+02,7.619420499999999749e-03
1.390000000000000000e+02,7.610100300000000387e-03
1.400000000000000000e+02,7.600694399999999989e-03
1.410000000000000000e+02,7.591203799999999766e-03
1.420000000000000000e+02,7.581628899999999852e-03
1.430000000000000000e+02,7.571971000000000257e-03
1.440000000000000000e+02,7.562231299999999656e-03
1.450000000000000000e+02,7.552409500000000116e-03
1.460000000000000000e+02,7.542507700000000183e-03
1.470000000000000000e+02,7.532525800000000257e-03
1.480000000000000000e+02,7.522389800000000258e-03
1.490000000000000000e+02,7.512242100000000172e-03
1.500000000000000000e+02,7.502054799999999593e-03
1.510000000000000000e+02,7.491815399999999896e-03
1.520000000000000000e+02,7.481514899999999746e-03
1.530000000000000000e+02,7.471148900000000245e-03
1.540000000000000000e+02,7.460713400000000030e-03
1.550000000000000000e+02,7.450206699999999821e-03
1.560000000000000000e+02,7.439626399999999667e-03
1.570000000000000000e+02,7.428971599999999696e-03
1.580000000000000000e+02,7.418242299999999907e-03
1.590000000000000000e+02,7.407437499999999959e-03
1.600000000000000000e+02,7.396557399999999921e-03
1.610000000000000000e+02,7.385601799999999724e-03
1.620000000000000000e+02,7.374571199999999972e-03
1.630000000000000000e+02,7.363465100000000062e-03
1.640000000000000000e+02,7.352284199999999798e-03
1.650000000000000000e+02,7.341029100000000251e-03
1.660000000000000000e+02,7.329699599999999621e-03
1.670000000000000000e+02,7.318296499999999913e-03
1.680000000000000000e+02,7.306819800000000260e-03
1.690000000000000000e+02,7.295270000000000400e-03
1.700000000000000000e+02,7.283647499999999601e-03
1.710000000000000000e+02,7.271952499999999667e-03
1.720000000000000000e+02,7.260185199999999797e-03
1.730000000000000000e+02,7.248346699999999934e-03
1.740000000000000000e+02,7.236435999999999737e-03
1.750000000000000000e+02,7.224454499999999682e-03
1.760000000000000000e+02,7.212402300000000238e-03
1.770000000000000000e+02,7.200279300000000070e-03
1.780000000000000000e+02,7.188085900000000181e-03
1.790000000000000000e+02,7.175822699999999908e-03
1.800000000000000000e+02,7.163427299999999658e-03
1.810000000000000000e+02,7.151028099999999846e-03
1.820000000000000000e+02,7.138595900000000057e-03
1.830000000000000000e+02,7.126117599999999726e-03
1.840000000000000000e+02,7.113583399999999848e-03
1.850000000000000000e+02,7.100988199999999986e-03
1.860000000000000000e+02,7.088328199999999711e-03
1.870000000000000000e+02,7.075600300000000134e-03
1.880000000000000000e+02,7.062803500000000047e-03
1.890000000000000000e+02,7.049936300000000239e-03
1.900000000000000000e+02,7.036997899999999570e-03
1.910000000000000000e+02,7.023987399999999902e-03
1.920000000000000000e+02,7.010904600000000299e-03
1.930000000000000000e+02,6.997749200000000225e-03
1.940000000000000000e+02,6.984521199999999680e-03
1.950000000000000000e+02,6.971220999999999668e-03
1.960000000000000000e+02,6.957847599999999848e-03
1.970000000000000000e+02,6.944402599999999898e-03
1.980000000000000000e+02,6.930884899999999876e-03
1.990000000000000000e+02,6.917294600000000251e-03
2.000000000000000000e+02,6.903632500000000428e-03
2.010000000000000000e+02,6.889897899999999735e-03
2.020000000000000000e+02,6.876091499999999711e-03
2.030000000000000000e+02,6.862213399999999956e-03
2.040000000000000000e+02,6.848263099999999867e-03
2.050000000000000000e+02,6.834241100000000048e-03
2.060000000000000000e+02,6.820147399999999631e-03
2.070000000000000000e+02,6.805982399999999620e-03
2.080000000000000000e+02,6.791677799999999710e-03
2.090000000000000000e+02,6.777369899999999975e-03
2.100000000000000000e+02,6.763027999999999922e-03
2.110000000000000000e+02,6.748637200000000107e-03
2.120000000000000000e+02,6.734188200000000395e-03
2.130000000000000000e+02,6.719674900000000006e-03
2.140000000000000000e+02,6.705093700000000316e-03
2.150000000000000000e+02,6.690440700000000428e-03
2.160000000000000000e+02,6.675714600000000332e-03
2.170000000000000000e+02,6.660914000000000418e-03
2.180000000000000000e+02,6.646037599999999809e-03
2.190000000000000000e+02,6.631084300000000299e-03
2.200000000000000000e+02,6.616054599999999890e-03
2.210000000000000000e+02,6.600947599999999575e-03
2.220000000000000000e+02,6.585762799999999619e-03
2.230000000000000000e+02,6.570500800000000224e-03
2.240000000000000000e+02,6.555161000000000321e-03
2.250000000000000000e+02,6.539742900000000171e-03
2.260000000000000000e+02,6.524247599999999717e-03
2.270000000000000000e+02,6.508673999999999883e-03
2.280000000000000000e+02,6.493022200000000271e-03
2.290000000000000000e+02,6.477292600000000150e-03
2.300000000000000000e+02,6.461484800000000250e-03
2.310000000000000000e+02,6.445598799999999705e-03
2.320000000000000000e+02,6.429582799999999931e-03
2.330000000000000000e+02,6.413550999999999974e-03
2.340000000000000000e+02,6.397474099999999816e-03
2.350000000000000000e+02,6.381338000000000288e-03
2.360000000000000000e+02,6.365133000000000249e-03
2.370000000000000000e+02,6.348854900000000002e-03
2.380000000000000000e+02,6.332498500000000377e-03
2.390000000000000000e+02,6.316062499999999628e-03
2.400000000000000000e+02,6.299544100000000271e-03
2.410000000000000000e+02,6.282942799999999967e-03
2.420000000000000000e+02,6.266256799999999835e-03
2.430000000000000000e+02,6.249486900000000150e-03
2.440000000000000000e+02,6.232631399999999898e-03
2.450000000000000000e+02,6.215690599999999615e-03
2.460000000000000000e+02,6.198664199999999631e-03
2.470000000000000000e+02,6.181551599999999744e-03
2.480000000000000000e+02,6.164353299999999689e-03
2.490000000000000000e+02,6.147069399999999934e-03
2.500000000000000000e+02,6.129698799999999670e-03
2.510000000000000000e+02,6.112242599999999706e-03
2.520000000000000000e+02,6.094699700000000102e-03
2.530000000000000000e+02,6.077033499999999651e-03
2.540000000000000000e+02,6.059337899999999583e-03
2.550000000000000000e+02,6.041585500000000095e-03
2.560000000000000000e+02,6.023761400000000009e-03
2.570000000000000000e+02,6.005858999999999677e-03
2.580000000000000000e+02,5.987872400000000123e-03
2.590000000000000000e+02,5.969798699999999923e-03
2.600000000000000000e+02,5.951635099999999859e-03
2.610000000000000000e+02,5.933381199999999793e-03
2.620000000000000000e+02,5.915034999999999911e-03
2.630000000000000000e+02,5.896596700000000281e-03
2.640000000000000000e+02,5.878065200000000094e-03
2.650000000000000000e+02,5.859441100000000423e-03
2.660000000000000000e+02,5.840723899999999795e-03
2.670000000000000000e+02,5.821913500000000345e-03
2.680000000000000000e+02,5.803009999999999939e-03
2.690000000000000000e+02,5.784013799999999580e-03
2.700000000000000000e+02,5.764924500000000000e-03
2.710000000000000000e+02,5.745742499999999600e-03
2.720000000000000000e+02,5.726467800000000115e-03
2.730000000000000000e+02,5.707057700000000428e-03
2.740000000000000000e+02,5.687612100000000344e-03
2.750000000000000000e+02,5.668103199999999925e-03
2.760000000000000000e+02,5.648517500000000205e-03
2.770000000000000000e+02,5.628847499999999927e-03
2.780000000000000000e+02,5.609088600000000126e-03
2.790000000000000000e+02,5.589237399999999641e-03
2.800000000000000000e+02,5.569292699999999798e-03
2.810000000000000000e+02,5.549252499999999914e-03
2.820000000000000000e+02,5.529116399999999855e-03
2.830000000000000000e+02,5.508884799999999755e-03
2.840000000000000000e+02,5.488557300000000347e-03
2.850000000000000000e+02,5.468134799999999768e-03
2.860000000000000000e+02,5.447616300000000279e-03
2.870000000000000000e+02,5.427003399999999825e-03
2.880000000000000000e+02,5.406296300000000207e-03
2.890000000000000000e+02,5.385495300000000228e-03
2.900000000000000000e+02,5.364601499999999829e-03
2.910000000000000000e+02,5.343580599999999889e-03
2.920000000000000000e+02,5.322520600000000060e-03
2.930000000000000000e+02,5.301394000000000072e-03
2.940000000000000000e+02,5.280189700000000042e-03
2.950000000000000000e+02,5.258901499999999590e-03
2.960000000000000000e+02,5.237524900000000219e-03
2.970000000000000000e+02,5.216057900000000379e-03
2.980000000000000000e+02,5.194499600000000196e-03
2.990000000000000000e+02,5.172850100000000138e-03
3.000000000000000000e+02,5.151109299999999738e-03
3.010000000000000000e+02,5.129277699999999600e-03
3.020000000000000000e+02,5.107356199999999596e-03
3.030000000000000000e+02,5.085345399999999932e-03
3.040000000000000000e+02,5.063246500000000150e-03
3.050000000000000000e+02,5.041060499999999722e-03
3.060000000000000000e+02,5.018788899999999595e-03
3.070000000000000000e+02,4.996407799999999857e-03
3.080000000000000000e+02,4.973989399999999977e-03
3.090000000000000000e+02,4.951509599999999976e-03
3.100000000000000000e+02,4.928958599999999982e-03
3.110000000000000000e+02,4.906331199999999955e-03
3.120000000000000000e+02,4.883624599999999809e-03
3.130000000000000000e+02,4.860837899999999670e-03
3.140000000000000000e+02,4.837970199999999665e-03
3.150000000000000000e+02,4.815022900000000272e-03
3.160000000000000000e+02,4.791996399999999892e-03
3.170000000000000000e+02,4.768891699999999734e-03
3.180000000000000000e+02,4.745710200000000274e-03
3.190000000000000000e+02,4.722452700000000052e-03
3.200000000000000000e+02,4.699121700000000353e-03
3.210000000000000000e+02,4.675717999999999715e-03
3.220000000000000000e+02,4.652243099999999951e-03
3.230000000000000000e+02,4.628666200000000099e-03
3.240000000000000000e+02,4.605067899999999888e-03
3.250000000000000000e+02,4.581425299999999749e-03
3.260000000000000000e+02,4.557728300000000142e-03
3.270000000000000000e+02,4.533971200000000423e-03
3.280000000000000000e+02,4.510151700000000242e-03
3.290000000000000000e+02,4.486268899999999726e-03
3.300000000000000000e+02,4.462323199999999879e-03
3.310000000000000000e+02,4.438314100000000095e-03
3.320000000000000000e+02,4.414244099999999928e-03
3.330000000000000000e+02,4.390113099999999775e-03
3.340000000000000000e+02,4.365923300000000389e-03
3.350000000000000000e+02,4.341676400000000179e-03
3.360000000000000000e+02,4.317373000000000217e-03
3.370000000000000000e+02,4.293015199999999920e-03
3.380000000000000000e+02,4.268571300000000186e-03
3.390000000000000000e+02,4.244120799999999936e-03
3.400000000000000000e+02,4.219640499999999933e-03
3.410000000000000000e+02,4.195121100000000040e-03
3.420000000000000000e+02,4.170557899999999957e-03
3.430000000000000000e+02,4.145947799999999926e-03
3.440000000000000000e+02,4.121290500000000280e-03
3.450000000000000000e+02,4.096585800000000083e-03
3.460000000000000000e+02,4.071834499999999607e-03
3.470000000000000000e+02,4.047037600000000061e-03
3.480000000000000000e+02,4.022195899999999984e-03
3.490000000000000000e+02,3.997310500000000183e-03
3.500000000000000000e+02,3.972383200000000406e-03
3.510000000000000000e+02,3.947415400000000262e-03
3.520000000000000000e+02,3.922374900000000046e-03
3.530000000000000000e+02,3.897338599999999962e-03
3.540000000000000000e+02,3.872284699999999948e-03
3.550000000000000000e+02,3.847203500000000165e-03
3.560000000000000000e+02,3.822090299999999878e-03
3.570000000000000000e+02,3.796942800000000038e-03
3.580000000000000000e+02,3.771759999999999870e-03
3.590000000000000000e+02,3.746541700000000173e-03
3.600000000000000000e+02,3.721288399999999816e-03
3.610000000000000000e+02,3.696000699999999872e-03
3.620000000000000000e+02,3.670679599999999813e-03
3.630000000000000000e+02,3.645326500000000119e-03
3.640000000000000000e+02,3.619941900000000091e-03
3.650000000000000000e+02,3.594527499999999876e-03
3.660000000000000000e+02,3.569084000000000145e-03
3.670000000000000000e+02,3.543564400000000052e-03
3.680000000000000000e+02,3.518063599999999864e-03
3.690000000000000000e+02,3.492557900000000173e-03
3.700000000000000000e+02,3.467036900000000036e-03
3.710000000000000000e+02,3.441494399999999940e-03
3.720000000000000000e+02,3.415927999999999933e-03
3.730000000000000000e+02,3.390335700000000202e-03
3.740000000000000000e+02,3.364717399999999844e-03
3.750000000000000000e+02,3.339072700000000025e-03
3.760000000000000000e+02,3.313402200000000082e-03
3.770000000000000000e+02,3.287706499999999785e-03
3.780000000000000000e+02,3.261986399999999842e-03
3.790000000000000000e+02,3.236242800000000124e-03
3.800000000000000000e+02,3.210476600000000073e-03
3.810000000000000000e+02,3.184635900000000203e-03
3.820000000000000000e+02,3.158817799999999801e-03
3.830000000000000000e+02,3.132999200000000095e-03
3.840000000000000000e+02,3.107169600000000108e-03
3.850000000000000000e+02,3.081323600000000166e-03
3.860000000000000000e+02,3.055457699999999943e-03
3.870000000000000000e+02,3.029570899999999966e-03
3.880000000000000000e+02,3.003662499999999996e-03
3.890000000000000000e+02,2.977732099999999896e-03
3.900000000000000000e+02,2.951780299999999871e-03
3.910000000000000000e+02,2.925807600000000092e-03
3.920000000000000000e+02,2.899814899999999997e-03
3.930000000000000000e+02,2.873802999999999861e-03
3.940000000000000000e+02,2.847773000000000058e-03
3.950000000000000000e+02,2.821660599999999911e-03
3.960000000000000000e+02,2.795576100000000171e-03
3.970000000000000000e+02,2.769495099999999890e-03
3.980000000000000000e+02,2.743407199999999858e-03
3.990000000000000000e+02,2.717306400000000198e-03
