# Time [s], Mass [Kg]
1.000000000000000000e+00,9.821874549759998518e-02
2.000000000000000000e+00,9.821874549759997131e-02
3.000000000000000000e+00,9.821874549759955497e-02
4.000000000000000000e+00,9.821874549759290751e-02
5.000000000000000000e+00,9.821874549752791783e-02
6.000000000000000000e+00,9.821874549708195512e-02
7.000000000000000000e+00,9.821874549473626204e-02
8.000000000000000000e+00,9.821874548470559130e-02
9.000000000000000000e+00,9.821874544836473042e-02
1.000000000000000000e+01,9.821874533339919333e-02
1.100000000000000000e+01,9.821874500851834888e-02
1.200000000000000000e+01,9.821874417388706813e-02
1.300000000000000000e+01,9.821874219738352396e-02
1.400000000000000000e+01,9.821873783459857121e-02
1.500000000000000000e+01,9.821872877683537895e-02
1.600000000000000000e+01,9.821871095688837483e-02
1.700000000000000000e+01,9.821867752805037155e-02
1.800000000000000000e+01,9.821861742023337005e-02
1.900000000000000000e+01,9.821851336719687742e-02
2.000000000000000000e+01,9.821833929212187009e-02
2.100000000000000000e+01,9.821805695002687464e-02
2.200000000000000000e+01,9.821761173131687839e-02
2.300000000000000000e+01,9.821692754579687545e-02
2.400000000000000000e+01,9.821590079887188018e-02
2.500000000000000000e+01,9.821439350242187893e-02
2.600000000000000000e+01,9.821222562692187574e-02
2.700000000000000000e+01,9.820916712087186806e-02
2.800000000000000000e+01,9.820493004627187106e-02
2.900000000000000000e+01,9.819916139082186801e-02
3.000000000000000000e+01,9.819143789137187162e-02
3.100000000000000000e+01,9.818126389532187692e-02
3.200000000000000000e+01,9.816807318982187502e-02
3.300000000000000000e+01,9.815123689982187261e-02
3.400000000000000000e+01,9.813007797232187190e-02
3.500000000000000000e+01,9.810404964882186996e-02
3.600000000000000000e+01,9.807260843282188112e-02
3.700000000000000000e+01,9.803501472282187545e-02
3.800000000000000000e+01,9.799056675182186982e-02
3.900000000000000000e+01,9.793870734032186776e-02
4.000000000000000000e+01,9.787900155932187374e-02
4.100000000000000000e+01,9.781114568482186800e-02
4.200000000000000000e+01,9.773497072032187594e-02
4.300000000000000000e+01,9.765043766532187364e-02
4.400000000000000000e+01,9.755762083282187858e-02
4.500000000000000000e+01,9.745669082982187648e-02
4.600000000000000000e+01,9.734789450482186912e-02
4.700000000000000000e+01,9.723153019482187742e-02
4.800000000000000000e+01,9.710793058482188045e-02
4.900000000000000000e+01,9.697744779482186939e-02
5.000000000000000000e+01,9.684043623482187224e-02
5.100000000000000000e+01,9.669724640982187147e-02
5.200000000000000000e+01,9.654822019482187101e-02
5.300000000000000000e+01,9.639368111982186960e-02
5.400000000000000000e+01,9.623393546482186811e-02
5.500000000000000000e+01,9.606927300982187612e-02
5.600000000000000000e+01,9.589996156482187561e-02
5.700000000000000000e+01,9.572625074982187010e-02
5.800000000000000000e+01,9.554837446982186733e-02
5.900000000000000000e+01,9.536654716982187474e-02
6.000000000000000000e+01,9.518096804982187353e-02
6.100000000000000000e+01,9.499182366982186765e-02
6.200000000000000000e+01,9.479928506482188100e-02
6.300000000000000000e+01,9.460351124982187276e-02
6.400000000000000000e+01,9.440465130982186870e-02
6.500000000000000000e+01,9.420284175982188146e-02
6.600000000000000000e+01,9.399821010482187211e-02
6.700000000000000000e+01,9.378798803482187030e-02
6.800000000000000000e+01,9.357582222482187240e-02
6.900000000000000000e+01,9.336541411982188232e-02
7.000000000000000000e+01,9.315355828482187184e-02
7.100000000000000000e+01,9.293962509482187051e-02
7.200000000000000000e+01,9.272337022482188273e-02
7.300000000000000000e+01,9.250474920982187932e-02
7.400000000000000000e+01,9.228378598982187042e-02
7.500000000000000000e+01,9.206053903482187828e-02
7.600000000000000000e+01,9.183508017482187868e-02
7.700000000000000000e+01,9.160748478982187748e-02
7.800000000000000000e+01,9.137782792482188055e-02
7.900000000000000000e+01,9.114618261982188052e-02
8.000000000000000000e+01,9.091261763482187674e-02
8.100000000000000000e+01,9.067719798982187829e-02
8.200000000000000000e+01,9.043998524982187204e-02
8.300000000000000000e+01,9.020103641982187004e-02
8.400000000000000000e+01,8.996040484482187294e-02
8.500000000000000000e+01,8.971555818982188124e-02
8.600000000000000000e+01,8.946993822482186831e-02
8.700000000000000000e+01,8.922676802982187905e-02
8.800000000000000000e+01,8.898285747482187480e-02
8.900000000000000000e+01,8.873759613982187822e-02
9.000000000000000000e+01,8.849073603482186801e-02
9.100000000000000000e+01,8.824221415482187691e-02
9.200000000000000000e+01,8.799202839482186955e-02
9.300000000000000000e+01,8.774020675982187323e-02
9.400000000000000000e+01,8.748678803482187738e-02
9.500000000000000000e+01,8.723181435482187107e-02
9.600000000000000000e+01,8.697532767482187011e-02
9.700000000000000000e+01,8.671736839982187306e-02
9.800000000000000000e+01,8.645797396482188257e-02
9.900000000000000000e+01,8.619717903482188026e-02
1.000000000000000000e+02,8.593501564982188035e-02
1.010000000000000000e+02,8.566907292482187075e-02
1.020000000000000000e+02,8.540274958482187151e-02
1.030000000000000000e+02,8.513904661982188427e-02
1.040000000000000000e+02,8.487473499982187142e-02
1.050000000000000000e+02,8.460921726982187363e-02
1.060000000000000000e+02,8.434225202982187364e-02
1.070000000000000000e+02,8.407377631982188015e-02
1.080000000000000000e+02,8.380378352482187321e-02
1.090000000000000000e+02,8.353229402982187413e-02
1.100000000000000000e+02,8.325933646982187908e-02
1.110000000000000000e+02,8.298494204482187442e-02
1.120000000000000000e+02,8.270914121482186854e-02
1.130000000000000000e+02,8.243196199982187611e-02
1.140000000000000000e+02,8.215342976982187295e-02
1.150000000000000000e+02,8.187356728982186915e-02
1.160000000000000000e+02,8.158997039982188171e-02
1.170000000000000000e+02,8.130604692482187867e-02
1.180000000000000000e+02,8.102474462982187098e-02
1.190000000000000000e+02,8.074278546482187291e-02
1.200000000000000000e+02,8.045957552482187192e-02
1.210000000000000000e+02,8.017487588982187552e-02
1.220000000000000000e+02,7.988862395982188058e-02
1.230000000000000000e+02,7.960081093482188064e-02
1.240000000000000000e+02,7.931145319482187095e-02
1.250000000000000000e+02,7.902057420982187830e-02
1.260000000000000000e+02,7.872819919982187997e-02
1.270000000000000000e+02,7.843435209982187184e-02
1.280000000000000000e+02,7.813905414482187617e-02
1.290000000000000000e+02,7.784232372482187412e-02
1.300000000000000000e+02,7.754417646982188217e-02
1.310000000000000000e+02,7.724216022482187360e-02
1.320000000000000000e+02,7.693988713482187436e-02
1.330000000000000000e+02,7.664032209482188329e-02
1.340000000000000000e+02,7.633992766482187997e-02
1.350000000000000000e+02,7.603807654982187858e-02
1.360000000000000000e+02,7.573452746982187178e-02
1.370000000000000000e+02,7.542922473982187348e-02
1.380000000000000000e+02,7.512216600982186965e-02
1.390000000000000000e+02,7.481337199482188116e-02
1.400000000000000000e+02,7.450286816482187824e-02
1.410000000000000000e+02,7.419067973982187980e-02
1.420000000000000000e+02,7.387682907482187589e-02
1.430000000000000000e+02,7.356133458982187789e-02
1.440000000000000000e+02,7.324203500482187601e-02
1.450000000000000000e+02,7.292219763482188366e-02
1.460000000000000000e+02,7.260440652982187715e-02
1.470000000000000000e+02,7.228544270982187325e-02
1.480000000000000000e+02,7.196477091482186839e-02
1.490000000000000000e+02,7.164218562482187191e-02
1.500000000000000000e+02,7.131764144982187525e-02
1.510000000000000000e+02,7.099113626982186953e-02
1.520000000000000000e+02,7.066268605982187201e-02
1.530000000000000000e+02,7.033230976482188201e-02
1.540000000000000000e+02,7.000002519482187435e-02
1.550000000000000000e+02,6.966584647482187975e-02
1.560000000000000000e+02,6.932780472982187636e-02
1.570000000000000000e+02,6.898903185482187228e-02
1.580000000000000000e+02,6.865184020482187344e-02
1.590000000000000000e+02,6.831309586482187113e-02
1.600000000000000000e+02,6.797230523482186704e-02
1.610000000000000000e+02,6.762928430482187392e-02
1.620000000000000000e+02,6.728399678982187326e-02
1.630000000000000000e+02,6.693644273482188267e-02
1.640000000000000000e+02,6.658663587482187285e-02
1.650000000000000000e+02,6.623459021482186460e-02
1.660000000000000000e+02,6.588031680982187055e-02
1.670000000000000000e+02,6.552382172482187905e-02
1.680000000000000000e+02,6.516286744982187351e-02
1.690000000000000000e+02,6.480072417982188360e-02
1.700000000000000000e+02,6.443998175982187937e-02
1.710000000000000000e+02,6.407735598482187933e-02
1.720000000000000000e+02,6.371231292482187891e-02
1.730000000000000000e+02,6.334464428482187992e-02
1.740000000000000000e+02,6.297429733482187708e-02
1.750000000000000000e+02,6.260125804982187570e-02
1.760000000000000000e+02,6.222552685482187623e-02
1.770000000000000000e+02,6.184710447982187664e-02
1.780000000000000000e+02,6.146598845982187420e-02
1.790000000000000000e+02,6.108011757982187429e-02
1.800000000000000000e+02,6.069258128982187722e-02
1.810000000000000000e+02,6.030569651982187890e-02
1.820000000000000000e+02,5.991629922482187565e-02
1.830000000000000000e+02,5.952390301482187590e-02
1.840000000000000000e+02,5.912832056982187529e-02
1.850000000000000000e+02,5.872950440982187270e-02
1.860000000000000000e+02,5.832743797482187187e-02
1.870000000000000000e+02,5.792211554482187136e-02
1.880000000000000000e+02,5.751352953482186808e-02
1.890000000000000000e+02,5.710166853482186861e-02
1.900000000000000000e+02,5.668427158482186590e-02
1.910000000000000000e+02,5.626452490982186694e-02
1.920000000000000000e+02,5.584493529482186663e-02
1.930000000000000000e+02,5.542222162482186854e-02
1.940000000000000000e+02,5.499587830482186718e-02
1.950000000000000000e+02,5.456571600982186576e-02
1.960000000000000000e+02,5.413169517982186624e-02
1.970000000000000000e+02,5.369381165482186441e-02
1.980000000000000000e+02,5.325207603982186344e-02
1.990000000000000000e+02,5.280478962982186608e-02
2.000000000000000000e+02,5.235465991482186887e-02
2.010000000000000000e+02,5.190354731482187123e-02
2.020000000000000000e+02,5.144866492482186998e-02
2.030000000000000000e+02,5.098968858982187019e-02
2.040000000000000000e+02,5.052654160482186740e-02
2.050000000000000000e+02,5.005926478982186678e-02
2.060000000000000000e+02,4.958792406982186901e-02
2.070000000000000000e+02,4.911259760482186709e-02
2.080000000000000000e+02,4.863149935982186839e-02
2.090000000000000000e+02,4.814743970482186775e-02
2.100000000000000000e+02,4.766250333982186699e-02
2.110000000000000000e+02,4.717394418982186893e-02
2.120000000000000000e+02,4.668152134482186910e-02
2.130000000000000000e+02,4.618524447482186962e-02
2.140000000000000000e+02,4.568524203982186893e-02
2.150000000000000000e+02,4.518166690982186595e-02
2.160000000000000000e+02,4.467297035482186568e-02
2.170000000000000000e+02,4.416179992482186650e-02
2.180000000000000000e+02,4.365009831482186825e-02
2.190000000000000000e+02,4.313540798482187050e-02
2.200000000000000000e+02,4.261760666482187349e-02
2.210000000000000000e+02,4.209678331982187605e-02
2.220000000000000000e+02,4.157312239982187407e-02
2.230000000000000000e+02,4.104681921982187426e-02
2.240000000000000000e+02,4.051622590482187314e-02
2.250000000000000000e+02,3.998401563482187338e-02
2.260000000000000000e+02,3.945226107482187328e-02
2.270000000000000000e+02,3.891849269482187262e-02
2.280000000000000000e+02,3.838258601982186963e-02
2.290000000000000000e+02,3.784462027482186908e-02
2.300000000000000000e+02,3.730476259982187098e-02
2.310000000000000000e+02,3.676318395482187223e-02
2.320000000000000000e+02,3.621806791982187107e-02
2.330000000000000000e+02,3.567204771982186717e-02
2.340000000000000000e+02,3.512727586982186678e-02
2.350000000000000000e+02,3.458122991482186215e-02
2.360000000000000000e+02,3.403374791482186024e-02
2.370000000000000000e+02,3.348487007982185737e-02
2.380000000000000000e+02,3.293472445982185970e-02
2.390000000000000000e+02,3.238149085982186537e-02
2.400000000000000000e+02,3.182759721982186818e-02
2.410000000000000000e+02,3.127510122482186905e-02
2.420000000000000000e+02,3.072161954982187415e-02
2.430000000000000000e+02,3.016700668982187639e-02
2.440000000000000000e+02,2.961130322482187494e-02
2.450000000000000000e+02,2.905462771482188178e-02
2.460000000000000000e+02,2.849709604482188186e-02
2.470000000000000000e+02,2.793646055482187918e-02
2.480000000000000000e+02,2.737527615482188148e-02
2.490000000000000000e+02,2.681595541482188760e-02
2.500000000000000000e+02,2.625591936482188360e-02
2.510000000000000000e+02,2.569501963982188941e-02
2.520000000000000000e+02,2.513330462982188429e-02
2.530000000000000000e+02,2.457089815482188522e-02
2.540000000000000000e+02,2.400542467482189024e-02
2.550000000000000000e+02,2.343935757482189242e-02
2.560000000000000000e+02,2.287525684982189000e-02
2.570000000000000000e+02,2.231069511982189391e-02
2.580000000000000000e+02,2.174560810482190076e-02
2.590000000000000000e+02,2.118008326482190284e-02
2.600000000000000000e+02,2.061425166982190638e-02
2.610000000000000000e+02,2.004541997482191251e-02
2.620000000000000000e+02,1.947621364982191072e-02
2.630000000000000000e+02,1.890959535482190923e-02
2.640000000000000000e+02,1.834312975982191340e-02
2.650000000000000000e+02,1.777682122982190971e-02
2.660000000000000000e+02,1.721076346482190711e-02
2.670000000000000000e+02,1.664508407982190352e-02
2.680000000000000000e+02,1.607990352482190077e-02
2.690000000000000000e+02,1.551238665482189416e-02
2.700000000000000000e+02,1.494568272982189916e-02
2.710000000000000000e+02,1.438320995982189654e-02
2.720000000000000000e+02,1.382237443982189951e-02
2.730000000000000000e+02,1.326322497982189430e-02
2.740000000000000000e+02,1.270588375482190058e-02
2.750000000000000000e+02,1.215059622482189683e-02
2.760000000000000000e+02,1.159561479982189336e-02
2.770000000000000000e+02,1.104502482482189185e-02
2.780000000000000000e+02,1.050165590482189659e-02
2.790000000000000000e+02,9.962515739821903304e-03
2.800000000000000000e+02,9.427923534821899820e-03
2.810000000000000000e+02,8.898380859821905520e-03
2.820000000000000000e+02,8.374604774821908793e-03
2.830000000000000000e+02,7.858540984821915654e-03
2.840000000000000000e+02,7.355718244821909946e-03
2.850000000000000000e+02,6.865529124821911910e-03
2.860000000000000000e+02,6.384503729821910945e-03
2.870000000000000000e+02,5.914318484821906585e-03
2.880000000000000000e+02,5.456199769821909462e-03
2.890000000000000000e+02,5.011605399821913998e-03
2.900000000000000000e+02,4.582063699821919966e-03
2.910000000000000000e+02,4.169230834821915921e-03
2.920000000000000000e+02,3.783435514821908985e-03
2.930000000000000000e+02,3.430945249821903964e-03
2.940000000000000000e+02,3.099767504821909769e-03
2.950000000000000000e+02,2.787107114821912868e-03
2.960000000000000000e+02,2.496079974821915903e-03
2.970000000000000000e+02,2.226541299821915842e-03
2.980000000000000000e+02,1.979741154821912374e-03
2.990000000000000000e+02,1.755568054821909918e-03
3.000000000000000000e+02,1.554191064821908164e-03
3.010000000000000000e+02,1.374969084821903165e-03
3.020000000000000000e+02,1.217069109821902750e-03
3.030000000000000000e+02,1.079186559821906921e-03
3.040000000000000000e+02,9.598641848219124917e-04
3.050000000000000000e+02,8.572562468219108167e-04
3.060000000000000000e+02,7.696689853219085276e-04
3.070000000000000000e+02,6.951839608219101407e-04
3.080000000000000000e+02,6.321269168219068035e-04
3.090000000000000000e+02,5.787850758219026392e-04
3.100000000000000000e+02,5.337955998219040543e-04
3.110000000000000000e+02,4.957615478219101757e-04
3.120000000000000000e+02,4.636173683219141362e-04
3.130000000000000000e+02,4.363868138219095805e-04
3.140000000000000000e+02,4.132514253219060629e-04
3.150000000000000000e+02,3.935286438219026683e-04
3.160000000000000000e+02,3.766607158219026363e-04
3.170000000000000000e+02,3.621681053219000246e-04
3.180000000000000000e+02,3.496590703219032426e-04
3.190000000000000000e+02,3.388160963219005728e-04
3.200000000000000000e+02,3.293677581218956707e-04
3.210000000000000000e+02,3.210918393719008890e-04
3.220000000000000000e+02,3.138102020718985807e-04
3.230000000000000000e+02,3.073699161719040118e-04
3.240000000000000000e+02,3.016442234219096630e-04
3.250000000000000000e+02,2.965308938719102283e-04
3.260000000000000000e+02,2.919421206719063910e-04
3.270000000000000000e+02,2.878043158219129038e-04
3.280000000000000000e+02,2.840574207719076538e-04
3.290000000000000000e+02,2.806496518219098180e-04
3.300000000000000000e+02,2.775371490719158452e-04
3.310000000000000000e+02,2.746836400219221375e-04
3.320000000000000000e+02,2.720577151719277831e-04
3.330000000000000000e+02,2.696324592719318014e-04
3.340000000000000000e+02,2.673852138719290394e-04
3.350000000000000000e+02,2.652961355219252138e-04
3.360000000000000000e+02,2.633480781719238495e-04
3.370000000000000000e+02,2.615265268719191294e-04
3.380000000000000000e+02,2.598186669219154643e-04
3.390000000000000000e+02,2.582132842719186971e-04
3.400000000000000000e+02,2.567007343219213089e-04
3.410000000000000000e+02,2.552724384219245968e-04
3.420000000000000000e+02,2.539208132219250569e-04
3.430000000000000000e+02,2.526392431219243173e-04
3.440000000000000000e+02,2.514218012719254824e-04
3.450000000000000000e+02,2.502632026719214808e-04
3.460000000000000000e+02,2.491587825219215846e-04
3.470000000000000000e+02,2.481043358219248152e-04
3.480000000000000000e+02,2.470960818719281082e-04
3.490000000000000000e+02,2.461306448669348113e-04
3.500000000000000000e+02,2.452049544869328024e-04
3.510000000000000000e+02,2.443162317569275155e-04
3.520000000000000000e+02,2.434619827819256566e-04
3.530000000000000000e+02,2.426399255519295917e-04
3.540000000000000000e+02,2.418479791019279013e-04
3.550000000000000000e+02,2.410842600269330616e-04
3.560000000000000000e+02,2.403470349919278881e-04
3.570000000000000000e+02,2.396347133619275427e-04
3.580000000000000000e+02,2.389458447069336966e-04
3.590000000000000000e+02,2.382790871369305785e-04
3.600000000000000000e+02,2.376332025669364301e-04
3.610000000000000000e+02,2.370070551619418708e-04
3.620000000000000000e+02,2.363995896769444105e-04
3.630000000000000000e+02,2.358098276119408032e-04
3.640000000000000000e+02,2.352368656669406866e-04
3.650000000000000000e+02,2.346798596119387126e-04
3.660000000000000000e+02,2.341380234919393510e-04
3.670000000000000000e+02,2.336106301669416130e-04
3.680000000000000000e+02,2.330969974519425669e-04
3.690000000000000000e+02,2.325964874269476068e-04
3.700000000000000000e+02,2.321085071819439793e-04
3.710000000000000000e+02,2.316324984669437814e-04
3.720000000000000000e+02,2.311679372669489529e-04
3.730000000000000000e+02,2.307143344769529980e-04
3.740000000000000000e+02,2.302712280569524372e-04
3.750000000000000000e+02,2.298381828919476844e-04
3.760000000000000000e+02,2.294147914619487638e-04
3.770000000000000000e+02,2.290006678569433962e-04
3.780000000000000000e+02,2.285954475319401658e-04
3.790000000000000000e+02,2.281987877269381348e-04
3.800000000000000000e+02,2.278103624469424160e-04
3.810000000000000000e+02,2.274298630219467876e-04
3.820000000000000000e+02,2.270569991119492093e-04
3.830000000000000000e+02,2.266914939369479853e-04
3.840000000000000000e+02,2.263330846769412430e-04
3.850000000000000000e+02,2.259815233969370007e-04
3.860000000000000000e+02,2.256365732019316450e-04
3.870000000000000000e+02,2.252980085919314979e-04
3.880000000000000000e+02,2.249656162569280138e-04
3.890000000000000000e+02,2.246391919419332694e-04
3.900000000000000000e+02,2.243185408119380275e-04
3.910000000000000000e+02,2.240034781669369979e-04
3.920000000000000000e+02,2.236938269069427276e-04
3.930000000000000000e+02,2.233894177619405452e-04
3.940000000000000000e+02,2.230900898069348992e-04
3.950000000000000000e+02,2.227956881869358474e-04
3.960000000000000000e+02,2.225060646869336800e-04
3.970000000000000000e+02,2.222210785019357315e-04
3.980000000000000000e+02,2.219405939469371036e-04
3.990000000000000000e+02,2.216644808869377981e-04
