# Time [s], Mass [Kg]
1.000000000000000000e+00,9.821874549759174178e-02
2.000000000000000000e+00,9.821874549758603801e-02
3.000000000000000000e+00,9.821874549757987627e-02
4.000000000000000000e+00,9.821874549757311779e-02
5.000000000000000000e+00,9.821874549756565154e-02
6.000000000000000000e+00,9.821874549755732486e-02
7.000000000000000000e+00,9.821874549754797123e-02
8.000000000000000000e+00,9.821874549753739636e-02
9.000000000000000000e+00,9.821874549752537820e-02
1.000000000000000000e+01,9.821874549751170858e-02
1.100000000000000000e+01,9.821874549749610994e-02
1.200000000000000000e+01,9.821874549747830474e-02
1.300000000000000000e+01,9.821874549745797378e-02
1.400000000000000000e+01,9.821874549743475624e-02
1.500000000000000000e+01,9.821874549740829130e-02
1.600000000000000000e+01,9.821874549737814875e-02
1.700000000000000000e+01,9.821874549734387061e-02
1.800000000000000000e+01,9.821874549730498505e-02
1.900000000000000000e+01,9.821874549726093695e-02
2.000000000000000000e+01,9.821874549721117120e-02
2.100000000000000000e+01,9.821874549715504943e-02
2.200000000000000000e+01,9.821874549709189162e-02
2.300000000000000000e+01,9.821874549702100388e-02
2.400000000000000000e+01,9.821874549694159517e-02
2.500000000000000000e+01,9.821874549685284672e-02
2.600000000000000000e+01,9.821874549675385646e-02
2.700000000000000000e+01,9.821874549664368070e-02
2.800000000000000000e+01,9.821874549652133413e-02
2.900000000000000000e+01,9.821874549638572038e-02
3.000000000000000000e+01,9.821874549623570150e-02
3.100000000000000000e+01,9.821874549607008398e-02
3.200000000000000000e+01,9.821874549588757719e-02
3.300000000000000000e+01,9.821874549568680723e-02
3.400000000000000000e+01,9.821874549546634470e-02
3.500000000000000000e+01,9.821874549522467690e-02
3.600000000000000000e+01,9.821874549496020790e-02
3.700000000000000000e+01,9.821874549467123072e-02
3.800000000000000000e+01,9.821874549435596902e-02
3.900000000000000000e+01,9.821874549401256316e-02
4.000000000000000000e+01,9.821874549363902862e-02
4.100000000000000000e+01,9.821874549323331149e-02
4.200000000000000000e+01,9.821874549279323297e-02
4.300000000000000000e+01,9.821874549231653095e-02
4.400000000000000000e+01,9.821874549180080460e-02
4.500000000000000000e+01,9.821874549124356979e-02
4.600000000000000000e+01,9.821874549064221749e-02
4.700000000000000000e+01,9.821874548999402765e-02
4.800000000000000000e+01,9.821874548929615534e-02
4.900000000000000000e+01,9.821874548854563070e-02
5.000000000000000000e+01,9.821874548773937286e-02
5.100000000000000000e+01,9.821874548687412054e-02
5.200000000000000000e+01,9.821874548594650145e-02
5.300000000000000000e+01,9.821874548495304613e-02
5.400000000000000000e+01,9.821874548389009085e-02
5.500000000000000000e+01,9.821874548275386085e-02
5.600000000000000000e+01,9.821874548154041484e-02
5.700000000000000000e+01,9.821874548024565887e-02
5.800000000000000000e+01,9.821874547886538798e-02
5.900000000000000000e+01,9.821874547739517514e-02
6.000000000000000000e+01,9.821874547583046844e-02
6.100000000000000000e+01,9.821874547416652168e-02
6.200000000000000000e+01,9.821874547239843600e-02
6.300000000000000000e+01,9.821874547052113213e-02
6.400000000000000000e+01,9.821874546852936427e-02
6.500000000000000000e+01,9.821874546641770620e-02
6.600000000000000000e+01,9.821874546418050966e-02
6.700000000000000000e+01,9.821874546181197374e-02
6.800000000000000000e+01,9.821874545930613098e-02
6.900000000000000000e+01,9.821874545665681966e-02
7.000000000000000000e+01,9.821874545385762822e-02
7.100000000000000000e+01,9.821874545090192310e-02
7.200000000000000000e+01,9.821874544778290417e-02
7.300000000000000000e+01,9.821874544449352151e-02
7.400000000000000000e+01,9.821874544102653093e-02
7.500000000000000000e+01,9.821874543737446617e-02
7.600000000000000000e+01,9.821874543352962506e-02
7.700000000000000000e+01,9.821874542948408338e-02
7.800000000000000000e+01,9.821874542522968099e-02
7.900000000000000000e+01,9.821874542075804959e-02
8.000000000000000000e+01,9.821874541606052944e-02
8.100000000000000000e+01,9.821874541112821100e-02
8.200000000000000000e+01,9.821874540595183778e-02
8.300000000000000000e+01,9.821874540052200064e-02
8.400000000000000000e+01,9.821874539482908228e-02
8.500000000000000000e+01,9.821874538886318784e-02
8.600000000000000000e+01,9.821874538261403387e-02
8.700000000000000000e+01,9.821874537607112876e-02
8.800000000000000000e+01,9.821874536922370336e-02
8.900000000000000000e+01,9.821874536206078032e-02
9.000000000000000000e+01,9.821874535457102151e-02
9.100000000000000000e+01,9.821874534674260304e-02
9.200000000000000000e+01,9.821874533856352063e-02
9.300000000000000000e+01,9.821874533002157570e-02
9.400000000000000000e+01,9.821874532110425049e-02
9.500000000000000000e+01,9.821874531179862478e-02
9.600000000000000000e+01,9.821874530209148690e-02
9.700000000000000000e+01,9.821874529196926440e-02
9.800000000000000000e+01,9.821874528141789906e-02
9.900000000000000000e+01,9.821874527042312453e-02
1.000000000000000000e+02,9.821874525897050789e-02
1.010000000000000000e+02,9.821874524704519993e-02
1.020000000000000000e+02,9.821874523463182405e-02
1.030000000000000000e+02,9.821874522171442079e-02
1.040000000000000000e+02,9.821874520827693356e-02
1.050000000000000000e+02,9.821874519430315309e-02
1.060000000000000000e+02,9.821874517977642605e-02
1.070000000000000000e+02,9.821874516467941907e-02
1.080000000000000000e+02,9.821874514899420205e-02
1.090000000000000000e+02,9.821874513270280327e-02
1.100000000000000000e+02,9.821874511578702893e-02
1.110000000000000000e+02,9.821874509822811627e-02
1.120000000000000000e+02,9.821874508000659476e-02
1.130000000000000000e+02,9.821874506110259140e-02
1.140000000000000000e+02,9.821874504149594176e-02
1.150000000000000000e+02,9.821874502116621775e-02
1.160000000000000000e+02,9.821874500009245001e-02
1.170000000000000000e+02,9.821874497825285044e-02
1.180000000000000000e+02,9.821874495562531171e-02
1.190000000000000000e+02,9.821874493218754609e-02
1.200000000000000000e+02,9.821874490791673851e-02
1.210000000000000000e+02,9.821874488278894977e-02
1.220000000000000000e+02,9.821874485678024069e-02
1.230000000000000000e+02,9.821874482986654720e-02
1.240000000000000000e+02,9.821874480202226476e-02
1.250000000000000000e+02,9.821874477322167785e-02
1.260000000000000000e+02,9.821874474343920969e-02
1.270000000000000000e+02,9.821874471264839535e-02
1.280000000000000000e+02,9.821874468082156251e-02
1.290000000000000000e+02,9.821874464793077519e-02
1.300000000000000000e+02,9.821874461394819456e-02
1.310000000000000000e+02,9.821874457884449683e-02
1.320000000000000000e+02,9.821874454258991416e-02
1.330000000000000000e+02,9.821874450515433175e-02
1.340000000000000000e+02,9.821874446650680213e-02
1.350000000000000000e+02,9.821874442661610027e-02
1.360000000000000000e+02,9.821874438545000197e-02
1.370000000000000000e+02,9.821874434297558909e-02
1.380000000000000000e+02,9.821874429915976312e-02
1.390000000000000000e+02,9.821874425396846797e-02
1.400000000000000000e+02,9.821874420736691202e-02
1.410000000000000000e+02,9.821874415931991509e-02
1.420000000000000000e+02,9.821874410979114511e-02
1.430000000000000000e+02,9.821874405874354841e-02
1.440000000000000000e+02,9.821874400613939127e-02
1.450000000000000000e+02,9.821874395194069018e-02
1.460000000000000000e+02,9.821874389610861511e-02
1.470000000000000000e+02,9.821874383860279556e-02
1.480000000000000000e+02,9.821874377938298595e-02
1.490000000000000000e+02,9.821874371840756679e-02
1.500000000000000000e+02,9.821874365563387776e-02
1.510000000000000000e+02,9.821874359101967489e-02
1.520000000000000000e+02,9.821874352452082679e-02
1.530000000000000000e+02,9.821874345609236945e-02
1.540000000000000000e+02,9.821874338568864493e-02
1.550000000000000000e+02,9.821874331326309326e-02
1.560000000000000000e+02,9.821874323876897406e-02
1.570000000000000000e+02,9.821874316215747913e-02
1.580000000000000000e+02,9.821874308337902315e-02
1.590000000000000000e+02,9.821874300238343791e-02
1.600000000000000000e+02,9.821874291911991683e-02
1.610000000000000000e+02,9.821874283353627944e-02
1.620000000000000000e+02,9.821874274557997053e-02
1.630000000000000000e+02,9.821874265519803249e-02
1.640000000000000000e+02,9.821874256233417699e-02
1.650000000000000000e+02,9.821874246693219901e-02
1.660000000000000000e+02,9.821874236893532450e-02
1.670000000000000000e+02,9.821874226828569698e-02
1.680000000000000000e+02,9.821874216492433585e-02
1.690000000000000000e+02,9.821874205879041475e-02
1.700000000000000000e+02,9.821874194982303796e-02
1.710000000000000000e+02,9.821874183795964441e-02
1.720000000000000000e+02,9.821874172313643792e-02
1.730000000000000000e+02,9.821874160528840103e-02
1.740000000000000000e+02,9.821874148434936447e-02
1.750000000000000000e+02,9.821874136025142421e-02
1.760000000000000000e+02,9.821874123292645420e-02
1.770000000000000000e+02,9.821874110230421895e-02
1.780000000000000000e+02,9.821874096831441359e-02
1.790000000000000000e+02,9.821874083088494300e-02
1.800000000000000000e+02,9.821874068994172757e-02
1.810000000000000000e+02,9.821874054541107624e-02
1.820000000000000000e+02,9.821874039721611993e-02
1.830000000000000000e+02,9.821874024528044755e-02
1.840000000000000000e+02,9.821874008952438673e-02
1.850000000000000000e+02,9.821873992986773771e-02
1.860000000000000000e+02,9.821873976622901015e-02
1.870000000000000000e+02,9.821873959852450708e-02
1.880000000000000000e+02,9.821873942666885238e-02
1.890000000000000000e+02,9.821873925057536536e-02
1.900000000000000000e+02,9.821873907015653271e-02
1.910000000000000000e+02,9.821873888532321739e-02
1.920000000000000000e+02,9.821873869598407580e-02
1.930000000000000000e+02,9.821873850204772272e-02
1.940000000000000000e+02,9.821873830342131573e-02
1.950000000000000000e+02,9.821873810000862626e-02
1.960000000000000000e+02,9.821873789171238489e-02
1.970000000000000000e+02,9.821873767843372627e-02
1.980000000000000000e+02,9.821873746007191153e-02
1.990000000000000000e+02,9.821873723652421728e-02
2.000000000000000000e+02,9.821873700768657400e-02
2.010000000000000000e+02,9.821873677345277498e-02
2.020000000000000000e+02,9.821873653371457347e-02
2.030000000000000000e+02,9.821873628836251535e-02
2.040000000000000000e+02,9.821873603728584201e-02
2.050000000000000000e+02,9.821873578037076946e-02
2.060000000000000000e+02,9.821873551750234799e-02
2.070000000000000000e+02,9.821873524856353233e-02
2.080000000000000000e+02,9.821873497343515391e-02
2.090000000000000000e+02,9.821873469199569884e-02
2.100000000000000000e+02,9.821873440412150214e-02
2.110000000000000000e+02,9.821873410968670615e-02
2.120000000000000000e+02,9.821873380856398217e-02
2.130000000000000000e+02,9.821873350062451657e-02
2.140000000000000000e+02,9.821873318573594303e-02
2.150000000000000000e+02,9.821873286376447965e-02
2.160000000000000000e+02,9.821873253457369390e-02
2.170000000000000000e+02,9.821873219802479404e-02
2.180000000000000000e+02,9.821873185397755890e-02
2.190000000000000000e+02,9.821873150228974114e-02
2.200000000000000000e+02,9.821873114281579054e-02
2.210000000000000000e+02,9.821873077540958785e-02
2.220000000000000000e+02,9.821873039991978194e-02
2.230000000000000000e+02,9.821873001619110810e-02
2.240000000000000000e+02,9.821872962407074414e-02
2.250000000000000000e+02,9.821872922340062206e-02
2.260000000000000000e+02,9.821872881402010647e-02
2.270000000000000000e+02,9.821872839576635539e-02
2.280000000000000000e+02,9.821872796847357090e-02
2.290000000000000000e+02,9.821872753197323502e-02
2.300000000000000000e+02,9.821872708609402647e-02
2.310000000000000000e+02,9.821872663066304188e-02
2.320000000000000000e+02,9.821872616550494928e-02
2.330000000000000000e+02,9.821872569044082235e-02
2.340000000000000000e+02,9.821872520528884820e-02
2.350000000000000000e+02,9.821872470986395265e-02
2.360000000000000000e+02,9.821872420397791126e-02
2.370000000000000000e+02,9.821872368743952975e-02
2.380000000000000000e+02,9.821872316005095249e-02
2.390000000000000000e+02,9.821872262161790434e-02
2.400000000000000000e+02,9.821872207193975413e-02
2.410000000000000000e+02,9.821872151081090241e-02
2.420000000000000000e+02,9.821872093802336279e-02
2.430000000000000000e+02,9.821872035336791373e-02
2.440000000000000000e+02,9.821871975663248877e-02
2.450000000000000000e+02,9.821871914760085809e-02
2.460000000000000000e+02,9.821871852605310038e-02
2.470000000000000000e+02,9.821871789176615797e-02
2.480000000000000000e+02,9.821871724451330943e-02
2.490000000000000000e+02,9.821871658406157446e-02
2.500000000000000000e+02,9.821871591018102587e-02
2.510000000000000000e+02,9.821871522263415921e-02
2.520000000000000000e+02,9.821871452118005608e-02
2.530000000000000000e+02,9.821871380557169184e-02
2.540000000000000000e+02,9.821871307556090391e-02
2.550000000000000000e+02,9.821871233089538022e-02
2.560000000000000000e+02,9.821871157131957519e-02
2.570000000000000000e+02,9.821871079657194803e-02
2.580000000000000000e+02,9.821871000638361660e-02
2.590000000000000000e+02,9.821870920049140252e-02
2.600000000000000000e+02,9.821870837862320403e-02
2.610000000000000000e+02,9.821870754050293639e-02
2.620000000000000000e+02,9.821870668584768704e-02
2.630000000000000000e+02,9.821870581437328052e-02
2.640000000000000000e+02,9.821870492579115597e-02
2.650000000000000000e+02,9.821870401980356546e-02
2.660000000000000000e+02,9.821870309611838157e-02
2.670000000000000000e+02,9.821870215443470609e-02
2.680000000000000000e+02,9.821870119444470193e-02
2.690000000000000000e+02,9.821870021583786747e-02
2.700000000000000000e+02,9.821869921829746997e-02
2.710000000000000000e+02,9.821869820150366803e-02
2.720000000000000000e+02,9.821869716512517112e-02
2.730000000000000000e+02,9.821869610883536550e-02
2.740000000000000000e+02,9.821869503229711806e-02
2.750000000000000000e+02,9.821869393517147773e-02
2.760000000000000000e+02,9.821869281711406718e-02
2.770000000000000000e+02,9.821869167777357024e-02
2.780000000000000000e+02,9.821869051679552043e-02
2.790000000000000000e+02,9.821868933380821509e-02
2.800000000000000000e+02,9.821868812845467589e-02
2.810000000000000000e+02,9.821868690036576754e-02
2.820000000000000000e+02,9.821868564916637345e-02
2.830000000000000000e+02,9.821868437447582589e-02
2.840000000000000000e+02,9.821868307590442271e-02
2.850000000000000000e+02,9.821868175306092130e-02
2.860000000000000000e+02,9.821868040553546897e-02
2.870000000000000000e+02,9.821867903292887114e-02
2.880000000000000000e+02,9.821867763483252411e-02
2.890000000000000000e+02,9.821867621083271715e-02
2.900000000000000000e+02,9.821867476050877288e-02
2.910000000000000000e+02,9.821867328342182013e-02
2.920000000000000000e+02,9.821867177914751779e-02
2.930000000000000000e+02,9.821867024723812678e-02
2.940000000000000000e+02,9.821866868724951627e-02
2.950000000000000000e+02,9.821866709873072754e-02
2.960000000000000000e+02,9.821866548122042129e-02
2.970000000000000000e+02,9.821866383425467695e-02
2.980000000000000000e+02,9.821866215734782746e-02
2.990000000000000000e+02,9.821866045002941581e-02
3.000000000000000000e+02,9.821865871181317820e-02
3.010000000000000000e+02,9.821865694220952014e-02
3.020000000000000000e+02,9.821865514071692616e-02
3.030000000000000000e+02,9.821865330682101602e-02
3.040000000000000000e+02,9.821865144002096815e-02
3.050000000000000000e+02,9.821864953979707324e-02
3.060000000000000000e+02,9.821864760562441787e-02
3.070000000000000000e+02,9.821864563695736905e-02
3.080000000000000000e+02,9.821864363324096792e-02
3.090000000000000000e+02,9.821864159393407789e-02
3.100000000000000000e+02,9.821863951848082419e-02
3.110000000000000000e+02,9.821863740631997519e-02
3.120000000000000000e+02,9.821863525688202812e-02
3.130000000000000000e+02,9.821863306957441531e-02
3.140000000000000000e+02,9.821863084381926567e-02
3.150000000000000000e+02,9.821862857902337318e-02
3.160000000000000000e+02,9.821862627457472739e-02
3.170000000000000000e+02,9.821862392986191459e-02
3.180000000000000000e+02,9.821862154424482183e-02
3.190000000000000000e+02,9.821861911710641491e-02
3.200000000000000000e+02,9.821861664781267320e-02
3.210000000000000000e+02,9.821861413571636445e-02
3.220000000000000000e+02,9.821861158016437221e-02
3.230000000000000000e+02,9.821860898047077293e-02
3.240000000000000000e+02,9.821860633597706558e-02
3.250000000000000000e+02,9.821860364600702720e-02
3.260000000000000000e+02,9.821860090987556691e-02
3.270000000000000000e+02,9.821859812687831759e-02
3.280000000000000000e+02,9.821859529629567431e-02
3.290000000000000000e+02,9.821859241742816882e-02
3.300000000000000000e+02,9.821858948953401947e-02
3.310000000000000000e+02,9.821858651187777289e-02
3.320000000000000000e+02,9.821858348371131919e-02
3.330000000000000000e+02,9.821858040426137415e-02
3.340000000000000000e+02,9.821857727277497063e-02
3.350000000000000000e+02,9.821857408847396720e-02
3.360000000000000000e+02,9.821857085057271453e-02
3.370000000000000000e+02,9.821856755826696705e-02
3.380000000000000000e+02,9.821856421073682508e-02
3.390000000000000000e+02,9.821856080718711912e-02
3.400000000000000000e+02,9.821855734678847094e-02
3.410000000000000000e+02,9.821855382866946649e-02
3.420000000000000000e+02,9.821855025200126876e-02
3.430000000000000000e+02,9.821854661592982483e-02
3.440000000000000000e+02,9.821854291957632377e-02
3.450000000000000000e+02,9.821853916206087221e-02
3.460000000000000000e+02,9.821853534247036721e-02
3.470000000000000000e+02,9.821853145991302214e-02
3.480000000000000000e+02,9.821852751346357713e-02
3.490000000000000000e+02,9.821852350219241468e-02
3.500000000000000000e+02,9.821851942516277023e-02
3.510000000000000000e+02,9.821851528140182475e-02
3.520000000000000000e+02,9.821851106996322411e-02
3.530000000000000000e+02,9.821850678987216476e-02
3.540000000000000000e+02,9.821850244012077236e-02
3.550000000000000000e+02,9.821849801972441785e-02
3.560000000000000000e+02,9.821849352766176544e-02
3.570000000000000000e+02,9.821848896289922526e-02
3.580000000000000000e+02,9.821848432440241639e-02
3.590000000000000000e+02,9.821847961110272140e-02
3.600000000000000000e+02,9.821847482196002788e-02
3.610000000000000000e+02,9.821846995588712215e-02
3.620000000000000000e+02,9.821846501175017508e-02
3.630000000000000000e+02,9.821845998847401893e-02
3.640000000000000000e+02,9.821845488493481657e-02
3.650000000000000000e+02,9.821844970001077091e-02
3.660000000000000000e+02,9.821844443255411949e-02
3.670000000000000000e+02,9.821843908136787538e-02
3.680000000000000000e+02,9.821843364530871701e-02
3.690000000000000000e+02,9.821842812316956828e-02
3.700000000000000000e+02,9.821842251372876753e-02
3.710000000000000000e+02,9.821841681578007133e-02
3.720000000000000000e+02,9.821841102809257540e-02
3.730000000000000000e+02,9.821840514943132316e-02
3.740000000000000000e+02,9.821839917852681623e-02
3.750000000000000000e+02,9.821839311408217532e-02
3.760000000000000000e+02,9.821838695481197035e-02
3.770000000000000000e+02,9.821838069940992677e-02
3.780000000000000000e+02,9.821837434651842225e-02
3.790000000000000000e+02,9.821836789481262764e-02
3.800000000000000000e+02,9.821836134294942289e-02
3.810000000000000000e+02,9.821835468952147541e-02
3.820000000000000000e+02,9.821834793316247536e-02
3.830000000000000000e+02,9.821834107247066903e-02
3.840000000000000000e+02,9.821833410603307557e-02
3.850000000000000000e+02,9.821832703239706530e-02
3.860000000000000000e+02,9.821831985005656518e-02
3.870000000000000000e+02,9.821831255756717505e-02
3.880000000000000000e+02,9.821830515345342238e-02
3.890000000000000000e+02,9.821829763618401821e-02
3.900000000000000000e+02,9.821829000425072453e-02
3.910000000000000000e+02,9.821828225610047813e-02
3.920000000000000000e+02,9.821827439012592587e-02
3.930000000000000000e+02,9.821826640479551507e-02
3.940000000000000000e+02,9.821825829852437462e-02
3.950000000000000000e+02,9.821825006967252469e-02
3.960000000000000000e+02,9.821824171658746772e-02
3.970000000000000000e+02,9.821823323758172020e-02
3.980000000000000000e+02,9.821822463101072265e-02
3.990000000000000000e+02,9.821821589519406925e-02
