# Time [s], Thickness [m]
1.000000000000000000e+00,8.000000400000000303e-03
2.000000000000000000e+00,8.000000400000000303e-03
3.000000000000000000e+00,8.000000400000000303e-03
4.000000000000000000e+00,8.000000400000000303e-03
5.000000000000000000e+00,8.000000400000000303e-03
6.000000000000000000e+00,8.000000400000000303e-03
7.000000000000000000e+00,8.000000400000000303e-03
8.000000000000000000e+00,8.000000400000000303e-03
9.000000000000000000e+00,8.000000400000000303e-03
1.000000000000000000e+01,8.000000400000000303e-03
1.100000000000000000e+01,8.000000400000000303e-03
1.200000000000000000e+01,7.999999400000000829e-03
1.300000000000000000e+01,7.999999400000000829e-03
1.400000000000000000e+01,7.999999400000000829e-03
1.500000000000000000e+01,7.999998499999999221e-03
1.600000000000000000e+01,7.999997599999999348e-03
1.700000000000000000e+01,7.999996699999999475e-03
1.800000000000000000e+01,7.999993900000000255e-03
1.900000000000000000e+01,7.999990099999999826e-03
2.000000000000000000e+01,7.999984499999999651e-03
2.100000000000000000e+01,7.999976199999999857e-03
2.200000000000000000e+01,7.999963100000000160e-03
2.300000000000000000e+01,7.999944499999999889e-03
2.400000000000000000e+01,7.999919399999999570e-03
2.500000000000000000e+01,7.999882999999999300e-03
2.600000000000000000e+01,7.999834600000000143e-03
2.700000000000000000e+01,7.999767499999999379e-03
2.800000000000000000e+01,7.999680000000000332e-03
2.900000000000000000e+01,7.999563600000000538e-03
3.000000000000000000e+01,7.999413599999999694e-03
3.100000000000000000e+01,7.999219899999999994e-03
3.200000000000000000e+01,7.998973100000000835e-03
3.300000000000000000e+01,7.998662999999999607e-03
3.400000000000000000e+01,7.998275600000000207e-03
3.500000000000000000e+01,7.997796899999999598e-03
3.600000000000000000e+01,7.997209200000000850e-03
3.700000000000000000e+01,7.996494899999999698e-03
3.800000000000000000e+01,7.995634300000000264e-03
3.900000000000000000e+01,7.994603399999999568e-03
4.000000000000000000e+01,7.993380499999999320e-03
4.100000000000000000e+01,7.991940700000000133e-03
4.200000000000000000e+01,7.990256899999999274e-03
4.300000000000000000e+01,7.988303000000000417e-03
4.400000000000000000e+01,7.986053800000000175e-03
4.500000000000000000e+01,7.983482400000000215e-03
4.600000000000000000e+01,7.980563700000000218e-03
4.700000000000000000e+01,7.977274200000000412e-03
4.800000000000000000e+01,7.973592700000000505e-03
4.900000000000000000e+01,7.969501400000000499e-03
5.000000000000000000e+01,7.964982699999999596e-03
5.100000000000000000e+01,7.960024300000000108e-03
5.200000000000000000e+01,7.954618000000000105e-03
5.300000000000000000e+01,7.948756200000000466e-03
5.400000000000000000e+01,7.942438099999999182e-03
5.500000000000000000e+01,7.935663699999999723e-03
5.600000000000000000e+01,7.928436599999999848e-03
5.700000000000000000e+01,7.920762499999999331e-03
5.800000000000000000e+01,7.912651600000000784e-03
5.900000000000000000e+01,7.904112300000000133e-03
6.000000000000000000e+01,7.895158600000000415e-03
6.100000000000000000e+01,7.885801600000000647e-03
6.200000000000000000e+01,7.876054400000000524e-03
6.300000000000000000e+01,7.865932799999999364e-03
6.400000000000000000e+01,7.855552199999999222e-03
6.500000000000000000e+01,7.844861599999999185e-03
6.600000000000000000e+01,7.833851500000000787e-03
6.700000000000000000e+01,7.822526600000000857e-03
6.800000000000000000e+01,7.810894399999999786e-03
6.900000000000000000e+01,7.798966000000000058e-03
7.000000000000000000e+01,7.786752200000000151e-03
7.100000000000000000e+01,7.774264599999999685e-03
7.200000000000000000e+01,7.761513299999999935e-03
7.300000000000000000e+01,7.748510699999999925e-03
7.400000000000000000e+01,7.735265399999999986e-03
7.500000000000000000e+01,7.721788200000000331e-03
7.600000000000000000e+01,7.708088499999999829e-03
7.700000000000000000e+01,7.694175000000000146e-03
7.800000000000000000e+01,7.680056600000000414e-03
7.900000000000000000e+01,7.665741299999999890e-03
8.000000000000000000e+01,7.651236799999999900e-03
8.100000000000000000e+01,7.636550800000000035e-03
8.200000000000000000e+01,7.621689699999999873e-03
8.300000000000000000e+01,7.606659099999999590e-03
8.400000000000000000e+01,7.591465999999999839e-03
8.500000000000000000e+01,7.576115399999999722e-03
8.600000000000000000e+01,7.560613600000000087e-03
8.700000000000000000e+01,7.544890000000000277e-03
8.800000000000000000e+01,7.529126500000000305e-03
8.900000000000000000e+01,7.513278600000000175e-03
9.000000000000000000e+01,7.497326500000000074e-03
9.100000000000000000e+01,7.481261200000000403e-03
9.200000000000000000e+01,7.465077100000000118e-03
9.300000000000000000e+01,7.448772900000000079e-03
9.400000000000000000e+01,7.432349000000000420e-03
9.500000000000000000e+01,7.415805000000000140e-03
9.600000000000000000e+01,7.399142699999999850e-03
9.700000000000000000e+01,7.382364500000000371e-03
9.800000000000000000e+01,7.365472100000000112e-03
9.900000000000000000e+01,7.348467600000000224e-03
1.000000000000000000e+02,7.331353100000000123e-03
1.010000000000000000e+02,7.314131599999999962e-03
1.020000000000000000e+02,7.296805699999999763e-03
1.030000000000000000e+02,7.279376500000000333e-03
1.040000000000000000e+02,7.261847099999999694e-03
1.050000000000000000e+02,7.244168300000000150e-03
1.060000000000000000e+02,7.226488100000000130e-03
1.070000000000000000e+02,7.208760800000000094e-03
1.080000000000000000e+02,7.190965100000000151e-03
1.090000000000000000e+02,7.173089300000000217e-03
1.100000000000000000e+02,7.155127800000000114e-03
1.110000000000000000e+02,7.137076899999999884e-03
1.120000000000000000e+02,7.118935699999999651e-03
1.130000000000000000e+02,7.100703199999999944e-03
1.140000000000000000e+02,7.082379399999999894e-03
1.150000000000000000e+02,7.063964800000000106e-03
1.160000000000000000e+02,7.045460400000000054e-03
1.170000000000000000e+02,7.026866500000000272e-03
1.180000000000000000e+02,7.008184699999999573e-03
1.190000000000000000e+02,6.989415700000000363e-03
1.200000000000000000e+02,6.970560599999999982e-03
1.210000000000000000e+02,6.951620799999999774e-03
1.220000000000000000e+02,6.932537499999999638e-03
1.230000000000000000e+02,6.913471000000000026e-03
1.240000000000000000e+02,6.894372900000000047e-03
1.250000000000000000e+02,6.875219299999999790e-03
1.260000000000000000e+02,6.855997299999999628e-03
1.270000000000000000e+02,6.836698900000000301e-03
1.280000000000000000e+02,6.817319399999999772e-03
1.290000000000000000e+02,6.797856700000000363e-03
1.300000000000000000e+02,6.778309100000000191e-03
1.310000000000000000e+02,6.758675900000000319e-03
1.320000000000000000e+02,6.738957000000000280e-03
1.330000000000000000e+02,6.719151999999999937e-03
1.340000000000000000e+02,6.699261300000000294e-03
1.350000000000000000e+02,6.679285800000000356e-03
1.360000000000000000e+02,6.659225099999999987e-03
1.370000000000000000e+02,6.639051699999999785e-03
1.380000000000000000e+02,6.618882100000000011e-03
1.390000000000000000e+02,6.598670499999999793e-03
1.400000000000000000e+02,6.578395600000000107e-03
1.410000000000000000e+02,6.558045299999999862e-03
1.420000000000000000e+02,6.537613000000000278e-03
1.430000000000000000e+02,6.517094600000000390e-03
1.440000000000000000e+02,6.496487700000000247e-03
1.450000000000000000e+02,6.475790900000000239e-03
1.460000000000000000e+02,6.455003299999999625e-03
1.470000000000000000e+02,6.434124400000000403e-03
1.480000000000000000e+02,6.413154800000000176e-03
1.490000000000000000e+02,6.392093800000000006e-03
1.500000000000000000e+02,6.370941599999999962e-03
1.510000000000000000e+02,6.349699099999999916e-03
1.520000000000000000e+02,6.328316900000000370e-03
1.530000000000000000e+02,6.306938399999999917e-03
1.540000000000000000e+02,6.285515099999999800e-03
1.550000000000000000e+02,6.264022999999999640e-03
1.560000000000000000e+02,6.242448900000000141e-03
1.570000000000000000e+02,6.220785399999999646e-03
1.580000000000000000e+02,6.199027900000000056e-03
1.590000000000000000e+02,6.177172100000000339e-03
1.600000000000000000e+02,6.155217499999999890e-03
1.610000000000000000e+02,6.133161500000000425e-03
1.620000000000000000e+02,6.111003900000000141e-03
1.630000000000000000e+02,6.088743899999999633e-03
1.640000000000000000e+02,6.066381499999999767e-03
1.650000000000000000e+02,6.043915599999999735e-03
1.660000000000000000e+02,6.021306899999999580e-03
1.670000000000000000e+02,5.998684599999999992e-03
1.680000000000000000e+02,5.975999899999999941e-03
1.690000000000000000e+02,5.953230399999999596e-03
1.700000000000000000e+02,5.930363699999999932e-03
1.710000000000000000e+02,5.907390700000000015e-03
1.720000000000000000e+02,5.884308399999999689e-03
1.730000000000000000e+02,5.861112400000000056e-03
1.740000000000000000e+02,5.837801400000000238e-03
1.750000000000000000e+02,5.814372600000000148e-03
1.760000000000000000e+02,5.790825500000000049e-03
1.770000000000000000e+02,5.767159200000000069e-03
1.780000000000000000e+02,5.743372699999999866e-03
1.790000000000000000e+02,5.719437699999999764e-03
1.800000000000000000e+02,5.695465499999999986e-03
1.810000000000000000e+02,5.671408499999999915e-03
1.820000000000000000e+02,5.647245300000000058e-03
1.830000000000000000e+02,5.622962999999999920e-03
1.840000000000000000e+02,5.598553499999999773e-03
1.850000000000000000e+02,5.574013099999999658e-03
1.860000000000000000e+02,5.549337700000000345e-03
1.870000000000000000e+02,5.524525899999999622e-03
1.880000000000000000e+02,5.499575300000000139e-03
1.890000000000000000e+02,5.474484100000000415e-03
1.900000000000000000e+02,5.449250800000000373e-03
1.910000000000000000e+02,5.423859700000000297e-03
1.920000000000000000e+02,5.398402000000000062e-03
1.930000000000000000e+02,5.372832499999999865e-03
1.940000000000000000e+02,5.347129899999999818e-03
1.950000000000000000e+02,5.321282400000000232e-03
1.960000000000000000e+02,5.295282699999999919e-03
1.970000000000000000e+02,5.269125999999999845e-03
1.980000000000000000e+02,5.242808699999999648e-03
1.990000000000000000e+02,5.216328899999999984e-03
2.000000000000000000e+02,5.189684200000000032e-03
2.010000000000000000e+02,5.162873299999999784e-03
2.020000000000000000e+02,5.135894299999999892e-03
2.030000000000000000e+02,5.108716899999999998e-03
2.040000000000000000e+02,5.081448700000000367e-03
2.050000000000000000e+02,5.054043599999999588e-03
2.060000000000000000e+02,5.026479700000000168e-03
2.070000000000000000e+02,4.998744500000000014e-03
2.080000000000000000e+02,4.970830400000000003e-03
2.090000000000000000e+02,4.942732400000000165e-03
2.100000000000000000e+02,4.914448099999999681e-03
2.110000000000000000e+02,4.885974300000000062e-03
2.120000000000000000e+02,4.857310099999999700e-03
2.130000000000000000e+02,4.828453100000000379e-03
2.140000000000000000e+02,4.799384599999999626e-03
2.150000000000000000e+02,4.770195100000000112e-03
2.160000000000000000e+02,4.740841200000000047e-03
2.170000000000000000e+02,4.711302900000000418e-03
2.180000000000000000e+02,4.681570500000000086e-03
2.190000000000000000e+02,4.651638199999999675e-03
2.200000000000000000e+02,4.621502900000000295e-03
2.210000000000000000e+02,4.591163199999999736e-03
2.220000000000000000e+02,4.560619099999999732e-03
2.230000000000000000e+02,4.529870600000000282e-03
2.240000000000000000e+02,4.498907400000000043e-03
2.250000000000000000e+02,4.467806300000000050e-03
2.260000000000000000e+02,4.436528799999999752e-03
2.270000000000000000e+02,4.405059400000000368e-03
2.280000000000000000e+02,4.373391199999999979e-03
2.290000000000000000e+02,4.341520800000000027e-03
2.300000000000000000e+02,4.309448399999999714e-03
2.310000000000000000e+02,4.277174800000000179e-03
2.320000000000000000e+02,4.244703300000000380e-03
2.330000000000000000e+02,4.212036700000000404e-03
2.340000000000000000e+02,4.179157299999999853e-03
2.350000000000000000e+02,4.146154499999999722e-03
2.360000000000000000e+02,4.112991499999999606e-03
2.370000000000000000e+02,4.079656200000000149e-03
2.380000000000000000e+02,4.046143000000000309e-03
2.390000000000000000e+02,4.012452399999999822e-03
2.400000000000000000e+02,3.978585399999999897e-03
2.410000000000000000e+02,3.944546900000000036e-03
2.420000000000000000e+02,3.910340400000000133e-03
2.430000000000000000e+02,3.875955500000000109e-03
2.440000000000000000e+02,3.841470500000000211e-03
2.450000000000000000e+02,3.806853700000000038e-03
2.460000000000000000e+02,3.772095100000000083e-03
2.470000000000000000e+02,3.737192600000000062e-03
2.480000000000000000e+02,3.702147600000000021e-03
2.490000000000000000e+02,3.666963899999999953e-03
2.500000000000000000e+02,3.631646499999999830e-03
2.510000000000000000e+02,3.596186199999999982e-03
2.520000000000000000e+02,3.560653400000000132e-03
2.530000000000000000e+02,3.525019600000000100e-03
2.540000000000000000e+02,3.489276400000000059e-03
2.550000000000000000e+02,3.453421600000000126e-03
2.560000000000000000e+02,3.417458200000000022e-03
2.570000000000000000e+02,3.381388999999999836e-03
2.580000000000000000e+02,3.345218699999999868e-03
2.590000000000000000e+02,3.308952600000000192e-03
2.600000000000000000e+02,3.272561399999999922e-03
2.610000000000000000e+02,3.236140399999999900e-03
2.620000000000000000e+02,3.199656999999999848e-03
2.630000000000000000e+02,3.163100500000000023e-03
2.640000000000000000e+02,3.126467300000000064e-03
2.650000000000000000e+02,3.089757600000000038e-03
2.660000000000000000e+02,3.052974400000000102e-03
2.670000000000000000e+02,3.016119800000000104e-03
2.680000000000000000e+02,2.979161499999999872e-03
2.690000000000000000e+02,2.942189799999999841e-03
2.700000000000000000e+02,2.905174899999999824e-03
2.710000000000000000e+02,2.868105399999999836e-03
2.720000000000000000e+02,2.830978300000000156e-03
2.730000000000000000e+02,2.793793299999999813e-03
2.740000000000000000e+02,2.756552299999999889e-03
2.750000000000000000e+02,2.719258200000000073e-03
2.760000000000000000e+02,2.681863999999999949e-03
2.770000000000000000e+02,2.644473699999999854e-03
2.780000000000000000e+02,2.607055899999999923e-03
2.790000000000000000e+02,2.569599100000000136e-03
2.800000000000000000e+02,2.532099400000000031e-03
2.810000000000000000e+02,2.494556599999999975e-03
2.820000000000000000e+02,2.456972400000000112e-03
2.830000000000000000e+02,2.419349999999999799e-03
2.840000000000000000e+02,2.381627400000000012e-03
2.850000000000000000e+02,2.343923800000000199e-03
2.860000000000000000e+02,2.306207499999999959e-03
2.870000000000000000e+02,2.268467100000000174e-03
2.880000000000000000e+02,2.230699400000000186e-03
2.890000000000000000e+02,2.192904900000000167e-03
2.900000000000000000e+02,2.155085599999999931e-03
2.910000000000000000e+02,2.117244099999999931e-03
2.920000000000000000e+02,2.079305000000000042e-03
2.930000000000000000e+02,2.041405300000000145e-03
2.940000000000000000e+02,2.003513299999999837e-03
2.950000000000000000e+02,1.965618499999999876e-03
2.960000000000000000e+02,1.927718799999999979e-03
2.970000000000000000e+02,1.889815700000000006e-03
2.980000000000000000e+02,1.851911500000000092e-03
2.990000000000000000e+02,1.814010900000000105e-03
3.000000000000000000e+02,1.776028200000000093e-03
3.010000000000000000e+02,1.738117699999999982e-03
3.020000000000000000e+02,1.700248300000000009e-03
3.030000000000000000e+02,1.662410900000000106e-03
3.040000000000000000e+02,1.624605199999999954e-03
3.050000000000000000e+02,1.586832999999999950e-03
3.060000000000000000e+02,1.549099699999999984e-03
3.070000000000000000e+02,1.511409800000000072e-03
3.080000000000000000e+02,1.473684299999999947e-03
3.090000000000000000e+02,1.436088799999999917e-03
3.100000000000000000e+02,1.398591899999999900e-03
3.110000000000000000e+02,1.361185900000000089e-03
3.120000000000000000e+02,1.323871500000000073e-03
3.130000000000000000e+02,1.286653800000000071e-03
3.140000000000000000e+02,1.249540099999999973e-03
3.150000000000000000e+02,1.212539000000000108e-03
3.160000000000000000e+02,1.175660600000000017e-03
3.170000000000000000e+02,1.138872499999999928e-03
3.180000000000000000e+02,1.102330699999999912e-03
3.190000000000000000e+02,1.065999599999999971e-03
3.200000000000000000e+02,1.029872899999999909e-03
3.210000000000000000e+02,9.939549499999999083e-04
3.220000000000000000e+02,9.582567699999999539e-04
3.230000000000000000e+02,9.227942799999999668e-04
3.240000000000000000e+02,8.875842300000000209e-04
3.250000000000000000e+02,8.527077700000000333e-04
3.260000000000000000e+02,8.182726499999999929e-04
3.270000000000000000e+02,7.842233200000000388e-04
3.280000000000000000e+02,7.505521100000000275e-04
3.290000000000000000e+02,7.172706500000000001e-04
3.300000000000000000e+02,6.844021299999999931e-04
3.310000000000000000e+02,6.519759199999999606e-04
3.320000000000000000e+02,6.200243999999999721e-04
3.330000000000000000e+02,5.885843999999999885e-04
3.340000000000000000e+02,5.579647299999999964e-04
3.350000000000000000e+02,5.281713699999999534e-04
3.360000000000000000e+02,4.990583399999999744e-04
3.370000000000000000e+02,4.706173200000000195e-04
3.380000000000000000e+02,4.428779899999999966e-04
3.390000000000000000e+02,4.158781399999999877e-04
3.400000000000000000e+02,3.896633900000000131e-04
3.410000000000000000e+02,3.642792600000000045e-04
3.420000000000000000e+02,3.397695499999999901e-04
3.430000000000000000e+02,3.161798200000000129e-04
3.440000000000000000e+02,2.935516800000000158e-04
3.450000000000000000e+02,2.723195399999999897e-04
3.460000000000000000e+02,2.527172899999999929e-04
3.470000000000000000e+02,2.340833500000000125e-04
3.480000000000000000e+02,2.164061599999999989e-04
3.490000000000000000e+02,1.997077800000000044e-04
3.500000000000000000e+02,1.840028000000000063e-04
3.510000000000000000e+02,1.692921700000000031e-04
3.520000000000000000e+02,1.555774800000000113e-04
3.530000000000000000e+02,1.428485699999999976e-04
3.540000000000000000e+02,1.310888799999999964e-04
3.550000000000000000e+02,1.202733200000000006e-04
3.560000000000000000e+02,1.103730399999999979e-04
3.570000000000000000e+02,1.013444600000000024e-04
3.580000000000000000e+02,9.314964700000000198e-05
3.590000000000000000e+02,8.573830599999999504e-05
3.600000000000000000e+02,7.905914399999999700e-05
3.610000000000000000e+02,7.306043699999999717e-05
3.620000000000000000e+02,6.768851000000000154e-05
3.630000000000000000e+02,6.288785499999999490e-05
3.640000000000000000e+02,5.860823099999999713e-05
3.650000000000000000e+02,5.479878399999999741e-05
3.660000000000000000e+02,5.141270599999999964e-05
3.670000000000000000e+02,4.840472299999999710e-05
3.680000000000000000e+02,4.573469399999999794e-05
3.690000000000000000e+02,4.336436499999999863e-05
3.700000000000000000e+02,4.125937600000000109e-05
3.710000000000000000e+02,3.938969199999999807e-05
3.720000000000000000e+02,3.772737499999999892e-05
3.730000000000000000e+02,3.624852600000000145e-05
3.740000000000000000e+02,3.493001000000000000e-05
3.750000000000000000e+02,3.375335999999999831e-05
3.760000000000000000e+02,3.270151100000000201e-05
3.770000000000000000e+02,3.175949300000000062e-05
3.780000000000000000e+02,3.091398700000000025e-05
3.790000000000000000e+02,3.015319500000000091e-05
3.800000000000000000e+02,2.946758700000000000e-05
3.810000000000000000e+02,2.884810400000000009e-05
3.820000000000000000e+02,2.828699899999999930e-05
3.830000000000000000e+02,2.777752199999999978e-05
3.840000000000000000e+02,2.731369600000000148e-05
3.850000000000000000e+02,2.689036599999999956e-05
3.860000000000000000e+02,2.650303200000000107e-05
3.870000000000000000e+02,2.614769400000000065e-05
3.880000000000000000e+02,2.582105499999999939e-05
3.890000000000000000e+02,2.551983200000000005e-05
3.900000000000000000e+02,2.524149899999999941e-05
3.910000000000000000e+02,2.498351599999999934e-05
3.920000000000000000e+02,2.474397799999999872e-05
3.930000000000000000e+02,2.452100700000000034e-05
3.940000000000000000e+02,2.431296500000000008e-05
3.950000000000000000e+02,2.411840800000000125e-05
3.960000000000000000e+02,2.393605200000000147e-05
3.970000000000000000e+02,2.376477100000000056e-05
3.980000000000000000e+02,2.360356499999999972e-05
3.990000000000000000e+02,2.345162800000000084e-05
