# Time [s], Thickness [m]
1.000000000000000000e+00,8.000000400000000303e-03
2.000000000000000000e+00,8.000000400000000303e-03
3.000000000000000000e+00,8.000000400000000303e-03
4.000000000000000000e+00,8.000000400000000303e-03
5.000000000000000000e+00,8.000000400000000303e-03
6.000000000000000000e+00,8.000000400000000303e-03
7.000000000000000000e+00,8.000000400000000303e-03
8.000000000000000000e+00,8.000000400000000303e-03
9.000000000000000000e+00,8.000000400000000303e-03
1.000000000000000000e+01,8.000000400000000303e-03
1.100000000000000000e+01,8.000000400000000303e-03
1.200000000000000000e+01,8.000000400000000303e-03
1.300000000000000000e+01,7.999999400000000829e-03
1.400000000000000000e+01,7.999999400000000829e-03
1.500000000000000000e+01,7.999999400000000829e-03
1.600000000000000000e+01,7.999998499999999221e-03
1.700000000000000000e+01,7.999996699999999475e-03
1.800000000000000000e+01,7.999992900000000781e-03
1.900000000000000000e+01,7.999986400000000733e-03
2.000000000000000000e+01,7.999976199999999857e-03
2.100000000000000000e+01,7.999958499999999459e-03
2.200000000000000000e+01,7.999929600000000446e-03
2.300000000000000000e+01,7.999885800000000255e-03
2.400000000000000000e+01,7.999817799999999618e-03
2.500000000000000000e+01,7.999718200000000348e-03
2.600000000000000000e+01,7.999572899999999806e-03
2.700000000000000000e+01,7.999365200000000536e-03
2.800000000000000000e+01,7.999074599999999452e-03
2.900000000000000000e+01,7.998675099999999830e-03
3.000000000000000000e+01,7.998134900000000366e-03
3.100000000000000000e+01,7.997416900000000120e-03
3.200000000000000000e+01,7.996477199999999300e-03
3.300000000000000000e+01,7.995268300000000355e-03
3.400000000000000000e+01,7.993734400000000739e-03
3.500000000000000000e+01,7.991821499999999384e-03
3.600000000000000000e+01,7.989495100000000571e-03
3.700000000000000000e+01,7.986699200000000817e-03
3.800000000000000000e+01,7.983370700000000722e-03
3.900000000000000000e+01,7.979458199999999238e-03
4.000000000000000000e+01,7.974922699999999545e-03
4.100000000000000000e+01,7.969732400000000341e-03
4.200000000000000000e+01,7.963868799999999221e-03
4.300000000000000000e+01,7.957323500000000258e-03
4.400000000000000000e+01,7.950098299999999729e-03
4.500000000000000000e+01,7.942203400000000246e-03
4.600000000000000000e+01,7.933656699999999673e-03
4.700000000000000000e+01,7.924480399999999508e-03
4.800000000000000000e+01,7.914700499999999944e-03
4.900000000000000000e+01,7.904346099999999195e-03
5.000000000000000000e+01,7.893445000000000669e-03
5.100000000000000000e+01,7.882026000000000310e-03
5.200000000000000000e+01,7.870119099999999673e-03
5.300000000000000000e+01,7.857750199999999352e-03
5.400000000000000000e+01,7.844944499999999266e-03
5.500000000000000000e+01,7.831727199999999334e-03
5.600000000000000000e+01,7.818120499999999320e-03
5.700000000000000000e+01,7.804145600000000384e-03
5.800000000000000000e+01,7.789822800000000338e-03
5.900000000000000000e+01,7.775169299999999846e-03
6.000000000000000000e+01,7.760202499999999635e-03
6.100000000000000000e+01,7.744938100000000290e-03
6.200000000000000000e+01,7.729390600000000250e-03
6.300000000000000000e+01,7.713573500000000215e-03
6.400000000000000000e+01,7.697498900000000407e-03
6.500000000000000000e+01,7.681178900000000184e-03
6.600000000000000000e+01,7.664623700000000421e-03
6.700000000000000000e+01,7.647843999999999996e-03
6.800000000000000000e+01,7.630378000000000160e-03
6.900000000000000000e+01,7.613281700000000193e-03
7.000000000000000000e+01,7.596102500000000146e-03
7.100000000000000000e+01,7.578770200000000366e-03
7.200000000000000000e+01,7.561252499999999814e-03
7.300000000000000000e+01,7.543542000000000303e-03
7.400000000000000000e+01,7.525638700000000098e-03
7.500000000000000000e+01,7.507546300000000027e-03
7.600000000000000000e+01,7.489271500000000206e-03
7.700000000000000000e+01,7.470818700000000402e-03
7.800000000000000000e+01,7.452195499999999737e-03
7.900000000000000000e+01,7.433407500000000119e-03
8.000000000000000000e+01,7.414460200000000389e-03
8.100000000000000000e+01,7.395359199999999855e-03
8.200000000000000000e+01,7.376109700000000290e-03
8.300000000000000000e+01,7.356716800000000396e-03
8.400000000000000000e+01,7.337184600000000272e-03
8.500000000000000000e+01,7.317517400000000082e-03
8.600000000000000000e+01,7.297298899999999679e-03
8.700000000000000000e+01,7.277505499999999822e-03
8.800000000000000000e+01,7.257686000000000172e-03
8.900000000000000000e+01,7.237772499999999692e-03
9.000000000000000000e+01,7.217732299999999809e-03
9.100000000000000000e+01,7.197558399999999870e-03
9.200000000000000000e+01,7.177247700000000119e-03
9.300000000000000000e+01,7.156802799999999708e-03
9.400000000000000000e+01,7.136225700000000186e-03
9.500000000000000000e+01,7.115520099999999779e-03
9.600000000000000000e+01,7.094690100000000318e-03
9.700000000000000000e+01,7.073738100000000022e-03
9.800000000000000000e+01,7.052667900000000184e-03
9.900000000000000000e+01,7.031482200000000425e-03
1.000000000000000000e+02,7.010184200000000102e-03
1.010000000000000000e+02,6.988775499999999759e-03
1.020000000000000000e+02,6.966861399999999677e-03
1.030000000000000000e+02,6.945391199999999612e-03
1.040000000000000000e+02,6.923903700000000154e-03
1.050000000000000000e+02,6.902334300000000089e-03
1.060000000000000000e+02,6.880650799999999713e-03
1.070000000000000000e+02,6.858845199999999767e-03
1.080000000000000000e+02,6.836915399999999969e-03
1.090000000000000000e+02,6.814862599999999861e-03
1.100000000000000000e+02,6.792689200000000260e-03
1.110000000000000000e+02,6.770397499999999784e-03
1.120000000000000000e+02,6.747989900000000117e-03
1.130000000000000000e+02,6.725469100000000013e-03
1.140000000000000000e+02,6.702837100000000152e-03
1.150000000000000000e+02,6.680095599999999814e-03
1.160000000000000000e+02,6.657246999999999817e-03
1.170000000000000000e+02,6.633897300000000247e-03
1.180000000000000000e+02,6.610995199999999787e-03
1.190000000000000000e+02,6.588072999999999846e-03
1.200000000000000000e+02,6.565063700000000127e-03
1.210000000000000000e+02,6.541937599999999610e-03
1.220000000000000000e+02,6.518685700000000430e-03
1.230000000000000000e+02,6.495306299999999838e-03
1.240000000000000000e+02,6.471800599999999980e-03
1.250000000000000000e+02,6.448169699999999928e-03
1.260000000000000000e+02,6.424415900000000033e-03
1.270000000000000000e+02,6.400541400000000179e-03
1.280000000000000000e+02,6.376547699999999576e-03
1.290000000000000000e+02,6.352436700000000172e-03
1.300000000000000000e+02,6.328209799999999843e-03
1.310000000000000000e+02,6.303867799999999730e-03
1.320000000000000000e+02,6.279010800000000073e-03
1.330000000000000000e+02,6.254627399999999719e-03
1.340000000000000000e+02,6.230210899999999788e-03
1.350000000000000000e+02,6.205692399999999768e-03
1.360000000000000000e+02,6.181038899999999683e-03
1.370000000000000000e+02,6.156243799999999884e-03
1.380000000000000000e+02,6.131304899999999621e-03
1.390000000000000000e+02,6.106223400000000169e-03
1.400000000000000000e+02,6.081001800000000214e-03
1.410000000000000000e+02,6.055641900000000369e-03
1.420000000000000000e+02,6.030145599999999981e-03
1.430000000000000000e+02,6.004515099999999800e-03
1.440000000000000000e+02,5.978751000000000031e-03
1.450000000000000000e+02,5.952500700000000131e-03
1.460000000000000000e+02,5.926649099999999580e-03
1.470000000000000000e+02,5.900731799999999611e-03
1.480000000000000000e+02,5.874689199999999847e-03
1.490000000000000000e+02,5.848493899999999621e-03
1.500000000000000000e+02,5.822139799999999886e-03
1.510000000000000000e+02,5.795625000000000429e-03
1.520000000000000000e+02,5.768951500000000197e-03
1.530000000000000000e+02,5.742120100000000331e-03
1.540000000000000000e+02,5.715132199999999572e-03
1.550000000000000000e+02,5.687990199999999608e-03
1.560000000000000000e+02,5.660694099999999569e-03
1.570000000000000000e+02,5.632922500000000013e-03
1.580000000000000000e+02,5.605507600000000229e-03
1.590000000000000000e+02,5.577993600000000045e-03
1.600000000000000000e+02,5.550325400000000187e-03
1.610000000000000000e+02,5.522478400000000072e-03
1.620000000000000000e+02,5.494447000000000393e-03
1.630000000000000000e+02,5.466230199999999942e-03
1.640000000000000000e+02,5.437829499999999663e-03
1.650000000000000000e+02,5.409246300000000035e-03
1.660000000000000000e+02,5.380481000000000326e-03
1.670000000000000000e+02,5.351534600000000010e-03
1.680000000000000000e+02,5.322407000000000353e-03
1.690000000000000000e+02,5.292734099999999928e-03
1.700000000000000000e+02,5.263413300000000308e-03
1.710000000000000000e+02,5.233968599999999638e-03
1.720000000000000000e+02,5.204340899999999881e-03
1.730000000000000000e+02,5.174502699999999900e-03
1.740000000000000000e+02,5.144447100000000377e-03
1.750000000000000000e+02,5.114172600000000367e-03
1.760000000000000000e+02,5.083678299999999997e-03
1.770000000000000000e+02,5.052965100000000008e-03
1.780000000000000000e+02,5.022032699999999864e-03
1.790000000000000000e+02,4.990880799999999895e-03
1.800000000000000000e+02,4.959174000000000221e-03
1.810000000000000000e+02,4.927750699999999644e-03
1.820000000000000000e+02,4.896149500000000418e-03
1.830000000000000000e+02,4.864316900000000346e-03
1.840000000000000000e+02,4.832227700000000375e-03
1.850000000000000000e+02,4.799875900000000195e-03
1.860000000000000000e+02,4.767259599999999591e-03
1.870000000000000000e+02,4.734378800000000297e-03
1.880000000000000000e+02,4.701232100000000101e-03
1.890000000000000000e+02,4.667819499999999872e-03
1.900000000000000000e+02,4.634139100000000261e-03
1.910000000000000000e+02,4.599824500000000357e-03
1.920000000000000000e+02,4.565761899999999651e-03
1.930000000000000000e+02,4.531472899999999804e-03
1.940000000000000000e+02,4.496900800000000128e-03
1.950000000000000000e+02,4.462020899999999575e-03
1.960000000000000000e+02,4.426826699999999830e-03
1.970000000000000000e+02,4.391318200000000026e-03
1.980000000000000000e+02,4.355494900000000426e-03
1.990000000000000000e+02,4.319358599999999909e-03
2.000000000000000000e+02,4.282631000000000285e-03
2.010000000000000000e+02,4.246031400000000074e-03
2.020000000000000000e+02,4.209143999999999733e-03
2.030000000000000000e+02,4.171930699999999714e-03
2.040000000000000000e+02,4.134376099999999971e-03
2.050000000000000000e+02,4.096482900000000121e-03
2.060000000000000000e+02,4.058255799999999601e-03
2.070000000000000000e+02,4.019700900000000056e-03
2.080000000000000000e+02,3.980824299999999663e-03
2.090000000000000000e+02,3.941329200000000428e-03
2.100000000000000000e+02,3.901970299999999933e-03
2.110000000000000000e+02,3.862332300000000107e-03
2.120000000000000000e+02,3.822383200000000012e-03
2.130000000000000000e+02,3.782115600000000161e-03
2.140000000000000000e+02,3.741538899999999855e-03
2.150000000000000000e+02,3.700664499999999947e-03
2.160000000000000000e+02,3.659505600000000167e-03
2.170000000000000000e+02,3.617796799999999785e-03
2.180000000000000000e+02,3.576235100000000125e-03
2.190000000000000000e+02,3.534439999999999804e-03
2.200000000000000000e+02,3.492391200000000140e-03
2.210000000000000000e+02,3.450089099999999968e-03
2.220000000000000000e+02,3.407548199999999895e-03
2.230000000000000000e+02,3.364783899999999970e-03
2.240000000000000000e+02,3.321812500000000112e-03
2.250000000000000000e+02,3.278349299999999949e-03
2.260000000000000000e+02,3.235114500000000042e-03
2.270000000000000000e+02,3.191725600000000062e-03
2.280000000000000000e+02,3.148162700000000161e-03
2.290000000000000000e+02,3.104425499999999803e-03
2.300000000000000000e+02,3.060527099999999986e-03
2.310000000000000000e+02,3.016481899999999983e-03
2.320000000000000000e+02,2.972303199999999992e-03
2.330000000000000000e+02,2.927681399999999823e-03
2.340000000000000000e+02,2.883355599999999977e-03
2.350000000000000000e+02,2.838937100000000179e-03
2.360000000000000000e+02,2.794403799999999830e-03
2.370000000000000000e+02,2.749751600000000136e-03
2.380000000000000000e+02,2.704990600000000203e-03
2.390000000000000000e+02,2.660131799999999880e-03
2.400000000000000000e+02,2.614867900000000193e-03
2.410000000000000000e+02,2.569901500000000040e-03
2.420000000000000000e+02,2.524865299999999937e-03
2.430000000000000000e+02,2.479738600000000199e-03
2.440000000000000000e+02,2.434518000000000099e-03
2.450000000000000000e+02,2.389213500000000011e-03
2.460000000000000000e+02,2.343834600000000139e-03
2.470000000000000000e+02,2.298390500000000152e-03
2.480000000000000000e+02,2.252506100000000074e-03
2.490000000000000000e+02,2.206972800000000026e-03
2.500000000000000000e+02,2.161391800000000193e-03
2.510000000000000000e+02,2.115741799999999815e-03
2.520000000000000000e+02,2.070020399999999809e-03
2.530000000000000000e+02,2.024237500000000082e-03
2.540000000000000000e+02,1.978403399999999809e-03
2.550000000000000000e+02,1.932120999999999969e-03
2.560000000000000000e+02,1.886190000000000045e-03
2.570000000000000000e+02,1.840227999999999959e-03
2.580000000000000000e+02,1.794222000000000048e-03
2.590000000000000000e+02,1.748174400000000045e-03
2.600000000000000000e+02,1.702097000000000072e-03
2.610000000000000000e+02,1.655999499999999966e-03
2.620000000000000000e+02,1.609433400000000094e-03
2.630000000000000000e+02,1.563274799999999970e-03
2.640000000000000000e+02,1.517130300000000100e-03
2.650000000000000000e+02,1.470996499999999976e-03
2.660000000000000000e+02,1.424877699999999980e-03
2.670000000000000000e+02,1.378784799999999925e-03
2.680000000000000000e+02,1.332727599999999901e-03
2.690000000000000000e+02,1.286716000000000032e-03
2.700000000000000000e+02,1.240278100000000074e-03
2.710000000000000000e+02,1.194399000000000068e-03
2.720000000000000000e+02,1.148650300000000077e-03
2.730000000000000000e+02,1.103037899999999944e-03
2.740000000000000000e+02,1.057563899999999953e-03
2.750000000000000000e+02,1.012246000000000066e-03
2.760000000000000000e+02,9.671066700000000536e-04
2.770000000000000000e+02,9.218386299999999957e-04
2.780000000000000000e+02,8.774146600000000450e-04
2.790000000000000000e+02,8.333228800000000089e-04
2.800000000000000000e+02,7.895877900000000020e-04
2.810000000000000000e+02,7.462369399999999866e-04
2.820000000000000000e+02,7.033243900000000310e-04
2.830000000000000000e+02,6.609128899999999578e-04
2.840000000000000000e+02,6.192567500000000337e-04
2.850000000000000000e+02,5.790022599999999475e-04
2.860000000000000000e+02,5.394041100000000494e-04
2.870000000000000000e+02,5.006423999999999553e-04
2.880000000000000000e+02,4.628101299999999910e-04
2.890000000000000000e+02,4.260140699999999956e-04
2.900000000000000000e+02,3.903849599999999805e-04
2.910000000000000000e+02,3.560410099999999889e-04
2.920000000000000000e+02,3.231337799999999981e-04
2.930000000000000000e+02,2.931942900000000189e-04
2.940000000000000000e+02,2.657124999999999873e-04
2.950000000000000000e+02,2.392448699999999949e-04
2.960000000000000000e+02,2.147795999999999993e-04
2.970000000000000000e+02,1.918360600000000018e-04
2.980000000000000000e+02,1.708713000000000050e-04
2.990000000000000000e+02,1.516318899999999934e-04
3.000000000000000000e+02,1.343531199999999873e-04
3.010000000000000000e+02,1.188272399999999957e-04
3.020000000000000000e+02,1.051575499999999941e-04
3.030000000000000000e+02,9.310506700000000045e-05
3.040000000000000000e+02,8.269624999999999958e-05
3.050000000000000000e+02,7.366725199999999384e-05
3.060000000000000000e+02,6.598124299999999531e-05
3.070000000000000000e+02,5.939913899999999853e-05
3.080000000000000000e+02,5.384750700000000154e-05
3.090000000000000000e+02,4.912704000000000186e-05
3.100000000000000000e+02,4.515803100000000180e-05
3.110000000000000000e+02,4.179817899999999824e-05
3.120000000000000000e+02,3.896222199999999791e-05
3.130000000000000000e+02,3.656183599999999795e-05
3.140000000000000000e+02,3.452631799999999763e-05
3.150000000000000000e+02,3.279304300000000024e-05
3.160000000000000000e+02,3.131344399999999773e-05
3.170000000000000000e+02,3.004522800000000154e-05
3.180000000000000000e+02,2.895257200000000134e-05
3.190000000000000000e+02,2.800748600000000082e-05
3.200000000000000000e+02,2.718623400000000036e-05
3.210000000000000000e+02,2.646833500000000109e-05
3.220000000000000000e+02,2.583807099999999984e-05
3.230000000000000000e+02,2.528214499999999949e-05
3.240000000000000000e+02,2.478893799999999973e-05
3.250000000000000000e+02,2.434941999999999903e-05
3.260000000000000000e+02,2.395596900000000089e-05
3.270000000000000000e+02,2.360189999999999844e-05
3.280000000000000000e+02,2.328191300000000038e-05
3.290000000000000000e+02,2.299152400000000068e-05
3.300000000000000000e+02,2.272678099999999866e-05
3.310000000000000000e+02,2.248449199999999940e-05
3.320000000000000000e+02,2.226194000000000051e-05
3.330000000000000000e+02,2.205672500000000014e-05
3.340000000000000000e+02,2.186686099999999894e-05
3.350000000000000000e+02,2.169064499999999839e-05
3.360000000000000000e+02,2.152654600000000049e-05
3.370000000000000000e+02,2.137330199999999962e-05
3.380000000000000000e+02,2.122981300000000016e-05
3.390000000000000000e+02,2.109508900000000060e-05
3.400000000000000000e+02,2.096829300000000135e-05
3.410000000000000000e+02,2.084869299999999998e-05
3.420000000000000000e+02,2.073562199999999864e-05
3.430000000000000000e+02,2.062851100000000088e-05
3.440000000000000000e+02,2.052685200000000030e-05
3.450000000000000000e+02,2.043018700000000078e-05
3.460000000000000000e+02,2.033811499999999865e-05
3.470000000000000000e+02,2.025027599999999924e-05
3.480000000000000000e+02,2.016634199999999856e-05
3.490000000000000000e+02,2.008602899999999979e-05
3.500000000000000000e+02,2.000907300000000073e-05
3.510000000000000000e+02,1.993523299999999874e-05
3.520000000000000000e+02,1.986429700000000068e-05
3.530000000000000000e+02,1.979607400000000063e-05
3.540000000000000000e+02,1.973038300000000018e-05
3.550000000000000000e+02,1.966706400000000168e-05
3.560000000000000000e+02,1.960597199999999837e-05
3.570000000000000000e+02,1.954696899999999957e-05
3.580000000000000000e+02,1.948993300000000149e-05
3.590000000000000000e+02,1.943475200000000105e-05
3.600000000000000000e+02,1.938131799999999948e-05
3.610000000000000000e+02,1.932953600000000032e-05
3.620000000000000000e+02,1.927931799999999944e-05
3.630000000000000000e+02,1.923057800000000167e-05
3.640000000000000000e+02,1.918324399999999993e-05
3.650000000000000000e+02,1.913724199999999854e-05
3.660000000000000000e+02,1.909250799999999911e-05
3.670000000000000000e+02,1.904897499999999832e-05
3.680000000000000000e+02,1.900659299999999944e-05
3.690000000000000000e+02,1.896530400000000046e-05
3.700000000000000000e+02,1.892505900000000064e-05
3.710000000000000000e+02,1.888581200000000084e-05
3.720000000000000000e+02,1.884751699999999853e-05
3.730000000000000000e+02,1.881013300000000167e-05
3.740000000000000000e+02,1.877362400000000164e-05
3.750000000000000000e+02,1.873795200000000121e-05
3.760000000000000000e+02,1.870307999999999915e-05
3.770000000000000000e+02,1.866897899999999953e-05
3.780000000000000000e+02,1.863561900000000024e-05
3.790000000000000000e+02,1.860296800000000041e-05
3.800000000000000000e+02,1.857100300000000045e-05
3.810000000000000000e+02,1.853969299999999888e-05
3.820000000000000000e+02,1.850901800000000108e-05
3.830000000000000000e+02,1.847895299999999851e-05
3.840000000000000000e+02,1.844947700000000056e-05
3.850000000000000000e+02,1.842056700000000086e-05
3.860000000000000000e+02,1.839220699999999899e-05
3.870000000000000000e+02,1.836437500000000152e-05
3.880000000000000000e+02,1.833705399999999847e-05
3.890000000000000000e+02,1.831022700000000015e-05
3.900000000000000000e+02,1.828387899999999876e-05
3.910000000000000000e+02,1.825799300000000122e-05
3.920000000000000000e+02,1.823255499999999911e-05
3.930000000000000000e+02,1.820755100000000094e-05
3.940000000000000000e+02,1.818296599999999887e-05
3.950000000000000000e+02,1.815878899999999959e-05
3.960000000000000000e+02,1.813500800000000023e-05
3.970000000000000000e+02,1.811160799999999974e-05
3.980000000000000000e+02,1.808858400000000117e-05
3.990000000000000000e+02,1.806591699999999910e-05
