# Time [s], Thickness [m]
1.000000000000000000e+00,8.000000400000000303e-03
2.000000000000000000e+00,8.000000400000000303e-03
3.000000000000000000e+00,8.000000400000000303e-03
4.000000000000000000e+00,8.000000400000000303e-03
5.000000000000000000e+00,8.000000400000000303e-03
6.000000000000000000e+00,8.000000400000000303e-03
7.000000000000000000e+00,8.000000400000000303e-03
8.000000000000000000e+00,8.000000400000000303e-03
9.000000000000000000e+00,8.000000400000000303e-03
1.000000000000000000e+01,8.000000400000000303e-03
1.100000000000000000e+01,8.000000400000000303e-03
1.200000000000000000e+01,8.000000400000000303e-03
1.300000000000000000e+01,8.000000400000000303e-03
1.400000000000000000e+01,7.999999400000000829e-03
1.500000000000000000e+01,7.999999400000000829e-03
1.600000000000000000e+01,7.999999400000000829e-03
1.700000000000000000e+01,7.999998499999999221e-03
1.800000000000000000e+01,7.999996699999999475e-03
1.900000000000000000e+01,7.999993900000000255e-03
2.000000000000000000e+01,7.999988300000000080e-03
2.100000000000000000e+01,7.999979900000000685e-03
2.200000000000000000e+01,7.999965899999999380e-03
2.300000000000000000e+01,7.999943600000000016e-03
2.400000000000000000e+01,7.999909100000000828e-03
2.500000000000000000e+01,7.999857900000000716e-03
2.600000000000000000e+01,7.999781500000000684e-03
2.700000000000000000e+01,7.999671599999999203e-03
2.800000000000000000e+01,7.999516099999999519e-03
2.900000000000000000e+01,7.999298199999999373e-03
3.000000000000000000e+01,7.998999200000000628e-03
3.100000000000000000e+01,7.998595900000000578e-03
3.200000000000000000e+01,7.998057600000000461e-03
3.300000000000000000e+01,7.997351700000000438e-03
3.400000000000000000e+01,7.996438999999999284e-03
3.500000000000000000e+01,7.995273900000000530e-03
3.600000000000000000e+01,7.993810800000000771e-03
3.700000000000000000e+01,7.991995700000000674e-03
3.800000000000000000e+01,7.989777300000000526e-03
3.900000000000000000e+01,7.987102499999999133e-03
4.000000000000000000e+01,7.983923000000000408e-03
4.100000000000000000e+01,7.980193899999999882e-03
4.200000000000000000e+01,7.975879099999999555e-03
4.300000000000000000e+01,7.970950600000000288e-03
4.400000000000000000e+01,7.965389599999999140e-03
4.500000000000000000e+01,7.959186999999999512e-03
4.600000000000000000e+01,7.952342700000000070e-03
4.700000000000000000e+01,7.944866099999999681e-03
4.800000000000000000e+01,7.936771999999999924e-03
4.900000000000000000e+01,7.928163699999999162e-03
5.000000000000000000e+01,7.919068399999999730e-03
5.100000000000000000e+01,7.909436699999999529e-03
5.200000000000000000e+01,7.899280599999999181e-03
5.300000000000000000e+01,7.888619799999999765e-03
5.400000000000000000e+01,7.877478400000000394e-03
5.500000000000000000e+01,7.865880599999999778e-03
5.600000000000000000e+01,7.853851699999999172e-03
5.700000000000000000e+01,7.841413800000000475e-03
5.800000000000000000e+01,7.828589500000000118e-03
5.900000000000000000e+01,7.815400099999999725e-03
6.000000000000000000e+01,7.801865199999999910e-03
6.100000000000000000e+01,7.788001999999999599e-03
6.200000000000000000e+01,7.773828200000000056e-03
6.300000000000000000e+01,7.759358699999999859e-03
6.400000000000000000e+01,7.744608400000000184e-03
6.500000000000000000e+01,7.729590899999999598e-03
6.600000000000000000e+01,7.714318099999999991e-03
6.700000000000000000e+01,7.698801800000000181e-03
6.800000000000000000e+01,7.683052699999999915e-03
6.900000000000000000e+01,7.667080500000000333e-03
7.000000000000000000e+01,7.650894999999999571e-03
7.100000000000000000e+01,7.634505199999999832e-03
7.200000000000000000e+01,7.617917800000000364e-03
7.300000000000000000e+01,7.601141900000000368e-03
7.400000000000000000e+01,7.583827199999999651e-03
7.500000000000000000e+01,7.566783599999999874e-03
7.600000000000000000e+01,7.549678399999999907e-03
7.700000000000000000e+01,7.532446600000000138e-03
7.800000000000000000e+01,7.515059299999999817e-03
7.900000000000000000e+01,7.497508100000000418e-03
8.000000000000000000e+01,7.479791099999999991e-03
8.100000000000000000e+01,7.461911499999999628e-03
8.200000000000000000e+01,7.443872300000000351e-03
8.300000000000000000e+01,7.425677999999999793e-03
8.400000000000000000e+01,7.407333200000000388e-03
8.500000000000000000e+01,7.388842799999999905e-03
8.600000000000000000e+01,7.370210700000000108e-03
8.700000000000000000e+01,7.351441799999999631e-03
8.800000000000000000e+01,7.332539699999999702e-03
8.900000000000000000e+01,7.313508500000000419e-03
9.000000000000000000e+01,7.294351200000000202e-03
9.100000000000000000e+01,7.275071499999999879e-03
9.200000000000000000e+01,7.255369799999999633e-03
9.300000000000000000e+01,7.235978300000000217e-03
9.400000000000000000e+01,7.216563399999999760e-03
9.500000000000000000e+01,7.197062500000000335e-03
9.600000000000000000e+01,7.177446999999999994e-03
9.700000000000000000e+01,7.157709400000000083e-03
9.800000000000000000e+01,7.137846199999999842e-03
9.900000000000000000e+01,7.117859100000000286e-03
1.000000000000000000e+02,7.097749999999999893e-03
1.010000000000000000e+02,7.077520700000000144e-03
1.020000000000000000e+02,7.057174599999999597e-03
1.030000000000000000e+02,7.036713899999999869e-03
1.040000000000000000e+02,7.016141899999999917e-03
1.050000000000000000e+02,6.995460000000000220e-03
1.060000000000000000e+02,6.974670599999999859e-03
1.070000000000000000e+02,6.953775899999999587e-03
1.080000000000000000e+02,6.932777799999999616e-03
1.090000000000000000e+02,6.911362499999999624e-03
1.100000000000000000e+02,6.890299699999999708e-03
1.110000000000000000e+02,6.869230399999999744e-03
1.120000000000000000e+02,6.848084699999999747e-03
1.130000000000000000e+02,6.826833400000000170e-03
1.140000000000000000e+02,6.805466500000000203e-03
1.150000000000000000e+02,6.783981300000000228e-03
1.160000000000000000e+02,6.762377499999999708e-03
1.170000000000000000e+02,6.740657100000000193e-03
1.180000000000000000e+02,6.718821800000000094e-03
1.190000000000000000e+02,6.696873800000000161e-03
1.200000000000000000e+02,6.674814999999999741e-03
1.210000000000000000e+02,6.652647200000000316e-03
1.220000000000000000e+02,6.630371300000000023e-03
1.230000000000000000e+02,6.607989800000000150e-03
1.240000000000000000e+02,6.585231100000000018e-03
1.250000000000000000e+02,6.562786200000000209e-03
1.260000000000000000e+02,6.540315700000000343e-03
1.270000000000000000e+02,6.517758099999999832e-03
1.280000000000000000e+02,6.495086899999999615e-03
1.290000000000000000e+02,6.472294200000000032e-03
1.300000000000000000e+02,6.449377600000000266e-03
1.310000000000000000e+02,6.426337600000000053e-03
1.320000000000000000e+02,6.403174699999999997e-03
1.330000000000000000e+02,6.379891199999999582e-03
1.340000000000000000e+02,6.356488000000000416e-03
1.350000000000000000e+02,6.332967000000000110e-03
1.360000000000000000e+02,6.309329100000000273e-03
1.370000000000000000e+02,6.285575699999999648e-03
1.380000000000000000e+02,6.261707299999999705e-03
1.390000000000000000e+02,6.237428199999999791e-03
1.400000000000000000e+02,6.213483900000000421e-03
1.410000000000000000e+02,6.189507900000000215e-03
1.420000000000000000e+02,6.165432299999999873e-03
1.430000000000000000e+02,6.141228599999999649e-03
1.440000000000000000e+02,6.116888000000000013e-03
1.450000000000000000e+02,6.092408700000000350e-03
1.460000000000000000e+02,6.067789599999999853e-03
1.470000000000000000e+02,6.043032700000000070e-03
1.480000000000000000e+02,6.018139399999999743e-03
1.490000000000000000e+02,5.993111100000000219e-03
1.500000000000000000e+02,5.967948100000000297e-03
1.510000000000000000e+02,5.942651999999999657e-03
1.520000000000000000e+02,5.916986100000000415e-03
1.530000000000000000e+02,5.891584800000000330e-03
1.540000000000000000e+02,5.866114500000000134e-03
1.550000000000000000e+02,5.840517100000000399e-03
1.560000000000000000e+02,5.814770700000000160e-03
1.570000000000000000e+02,5.788868299999999634e-03
1.580000000000000000e+02,5.762808000000000340e-03
1.590000000000000000e+02,5.736589900000000145e-03
1.600000000000000000e+02,5.710215299999999924e-03
1.610000000000000000e+02,5.683685699999999758e-03
1.620000000000000000e+02,5.657000500000000306e-03
1.630000000000000000e+02,5.630161100000000314e-03
1.640000000000000000e+02,5.603168199999999585e-03
1.650000000000000000e+02,5.575749100000000104e-03
1.660000000000000000e+02,5.548594100000000043e-03
1.670000000000000000e+02,5.521352400000000341e-03
1.680000000000000000e+02,5.493962199999999872e-03
1.690000000000000000e+02,5.466397900000000316e-03
1.700000000000000000e+02,5.438651899999999949e-03
1.710000000000000000e+02,5.410720600000000144e-03
1.720000000000000000e+02,5.382604400000000171e-03
1.730000000000000000e+02,5.354303399999999630e-03
1.740000000000000000e+02,5.325817499999999788e-03
1.750000000000000000e+02,5.297146699999999778e-03
1.760000000000000000e+02,5.268291100000000067e-03
1.770000000000000000e+02,5.238996800000000377e-03
1.780000000000000000e+02,5.209913499999999781e-03
1.790000000000000000e+02,5.180700699999999694e-03
1.800000000000000000e+02,5.151300699999999955e-03
1.810000000000000000e+02,5.121689300000000118e-03
1.820000000000000000e+02,5.091860000000000136e-03
1.830000000000000000e+02,5.061809399999999716e-03
1.840000000000000000e+02,5.031536799999999920e-03
1.850000000000000000e+02,5.001041599999999678e-03
1.860000000000000000e+02,4.970322800000000381e-03
1.870000000000000000e+02,4.939379600000000023e-03
1.880000000000000000e+02,4.907983399999999580e-03
1.890000000000000000e+02,4.876732800000000215e-03
1.900000000000000000e+02,4.845301199999999843e-03
1.910000000000000000e+02,4.813633900000000194e-03
1.920000000000000000e+02,4.781710899999999653e-03
1.930000000000000000e+02,4.749524899999999633e-03
1.940000000000000000e+02,4.717074299999999588e-03
1.950000000000000000e+02,4.684357899999999977e-03
1.960000000000000000e+02,4.651375099999999728e-03
1.970000000000000000e+02,4.618126000000000175e-03
1.980000000000000000e+02,4.584406499999999808e-03
1.990000000000000000e+02,4.550764300000000213e-03
2.000000000000000000e+02,4.516889799999999899e-03
2.010000000000000000e+02,4.482734900000000244e-03
2.020000000000000000e+02,4.448284400000000402e-03
2.030000000000000000e+02,4.413533499999999603e-03
2.040000000000000000e+02,4.378483600000000059e-03
2.050000000000000000e+02,4.343136699999999850e-03
2.060000000000000000e+02,4.307494999999999727e-03
2.070000000000000000e+02,4.271561299999999776e-03
2.080000000000000000e+02,4.235111599999999941e-03
2.090000000000000000e+02,4.198726699999999652e-03
2.100000000000000000e+02,4.162095000000000204e-03
2.110000000000000000e+02,4.125173700000000013e-03
2.120000000000000000e+02,4.087951000000000258e-03
2.130000000000000000e+02,4.050429900000000229e-03
2.140000000000000000e+02,4.012616400000000236e-03
2.150000000000000000e+02,3.974518300000000337e-03
2.160000000000000000e+02,3.936145000000000269e-03
2.170000000000000000e+02,3.897299300000000005e-03
2.180000000000000000e+02,3.858515800000000134e-03
2.190000000000000000e+02,3.819510300000000021e-03
2.200000000000000000e+02,3.780252100000000039e-03
2.210000000000000000e+02,3.740738400000000099e-03
2.220000000000000000e+02,3.700978399999999870e-03
2.230000000000000000e+02,3.660983899999999906e-03
2.240000000000000000e+02,3.620767999999999903e-03
2.250000000000000000e+02,3.580155299999999898e-03
2.260000000000000000e+02,3.539636300000000187e-03
2.270000000000000000e+02,3.498951399999999847e-03
2.280000000000000000e+02,3.458077600000000144e-03
2.290000000000000000e+02,3.417015800000000082e-03
2.300000000000000000e+02,3.375776799999999876e-03
2.310000000000000000e+02,3.334373900000000158e-03
2.320000000000000000e+02,3.292819700000000020e-03
2.330000000000000000e+02,3.250920899999999898e-03
2.340000000000000000e+02,3.209184199999999976e-03
2.350000000000000000e+02,3.167347100000000078e-03
2.360000000000000000e+02,3.125384399999999851e-03
2.370000000000000000e+02,3.083295199999999854e-03
2.380000000000000000e+02,3.041087599999999815e-03
2.390000000000000000e+02,2.998772299999999912e-03
2.400000000000000000e+02,2.956359200000000052e-03
2.410000000000000000e+02,2.913631700000000099e-03
2.420000000000000000e+02,2.871113099999999824e-03
2.430000000000000000e+02,2.828536600000000189e-03
2.440000000000000000e+02,2.785873400000000045e-03
2.450000000000000000e+02,2.743120300000000036e-03
2.460000000000000000e+02,2.700283200000000005e-03
2.470000000000000000e+02,2.657370599999999815e-03
2.480000000000000000e+02,2.614389899999999822e-03
2.490000000000000000e+02,2.571096900000000018e-03
2.500000000000000000e+02,2.528037199999999974e-03
2.510000000000000000e+02,2.484939800000000084e-03
2.520000000000000000e+02,2.441775800000000034e-03
2.530000000000000000e+02,2.398541000000000128e-03
2.540000000000000000e+02,2.355241699999999910e-03
2.550000000000000000e+02,2.311885599999999839e-03
2.560000000000000000e+02,2.268216100000000016e-03
2.570000000000000000e+02,2.224776400000000060e-03
2.580000000000000000e+02,2.181307200000000019e-03
2.590000000000000000e+02,2.137784099999999812e-03
2.600000000000000000e+02,2.094206899999999805e-03
2.610000000000000000e+02,2.050582300000000115e-03
2.620000000000000000e+02,2.006919399999999940e-03
2.630000000000000000e+02,1.963224500000000129e-03
2.640000000000000000e+02,1.919182099999999997e-03
2.650000000000000000e+02,1.875414599999999932e-03
2.660000000000000000e+02,1.831644799999999950e-03
2.670000000000000000e+02,1.787851200000000092e-03
2.680000000000000000e+02,1.744035600000000104e-03
2.690000000000000000e+02,1.700206799999999952e-03
2.700000000000000000e+02,1.656372599999999910e-03
2.710000000000000000e+02,1.612539899999999946e-03
2.720000000000000000e+02,1.568359299999999958e-03
2.730000000000000000e+02,1.524510900000000061e-03
2.740000000000000000e+02,1.480713100000000072e-03
2.750000000000000000e+02,1.436952499999999975e-03
2.760000000000000000e+02,1.393232099999999925e-03
2.770000000000000000e+02,1.349560600000000070e-03
2.780000000000000000e+02,1.305947299999999896e-03
2.790000000000000000e+02,1.262061999999999993e-03
2.800000000000000000e+02,1.218623399999999978e-03
2.810000000000000000e+02,1.175333200000000045e-03
2.820000000000000000e+02,1.132181099999999933e-03
2.830000000000000000e+02,1.089171600000000094e-03
2.840000000000000000e+02,1.046318600000000062e-03
2.850000000000000000e+02,1.003641399999999914e-03
2.860000000000000000e+02,9.611631399999999957e-04
2.870000000000000000e+02,9.187187000000000305e-04
2.880000000000000000e+02,8.769979500000000183e-04
2.890000000000000000e+02,8.356267399999999825e-04
2.900000000000000000e+02,7.946090799999999460e-04
2.910000000000000000e+02,7.539728000000000532e-04
2.920000000000000000e+02,7.137634099999999506e-04
2.930000000000000000e+02,6.740332499999999658e-04
2.940000000000000000e+02,6.348379499999999651e-04
2.950000000000000000e+02,5.965669999999999957e-04
2.960000000000000000e+02,5.595057200000000137e-04
2.970000000000000000e+02,5.231198700000000510e-04
2.980000000000000000e+02,4.875463500000000081e-04
2.990000000000000000e+02,4.528703300000000019e-04
3.000000000000000000e+02,4.191693399999999944e-04
3.010000000000000000e+02,3.865512800000000257e-04
3.020000000000000000e+02,3.551064000000000260e-04
3.030000000000000000e+02,3.249415900000000054e-04
3.040000000000000000e+02,2.973650100000000242e-04
3.050000000000000000e+02,2.719545200000000147e-04
3.060000000000000000e+02,2.474309899999999822e-04
3.070000000000000000e+02,2.245642800000000061e-04
3.080000000000000000e+02,2.030304500000000036e-04
3.090000000000000000e+02,1.830994300000000062e-04
3.100000000000000000e+02,1.646606299999999888e-04
3.110000000000000000e+02,1.478215299999999894e-04
3.120000000000000000e+02,1.324950899999999905e-04
3.130000000000000000e+02,1.187124200000000000e-04
3.140000000000000000e+02,1.063699000000000063e-04
3.150000000000000000e+02,9.542934999999999461e-05
3.160000000000000000e+02,8.577833099999999640e-05
3.170000000000000000e+02,7.733484400000000404e-05
3.180000000000000000e+02,6.997171999999999420e-05
3.190000000000000000e+02,6.359571900000000368e-05
3.200000000000000000e+02,5.808401299999999706e-05
3.210000000000000000e+02,5.333619600000000179e-05
3.220000000000000000e+02,4.925435499999999744e-05
3.230000000000000000e+02,4.574841699999999706e-05
3.240000000000000000e+02,4.273514800000000150e-05
3.250000000000000000e+02,4.014665700000000210e-05
3.260000000000000000e+02,3.791953299999999865e-05
3.270000000000000000e+02,3.599861499999999889e-05
3.280000000000000000e+02,3.433941999999999995e-05
3.290000000000000000e+02,3.290236400000000013e-05
3.300000000000000000e+02,3.165298399999999957e-05
3.310000000000000000e+02,3.056385299999999863e-05
3.320000000000000000e+02,2.961116800000000116e-05
3.330000000000000000e+02,2.877422199999999991e-05
3.340000000000000000e+02,2.803637300000000093e-05
3.350000000000000000e+02,2.738340800000000133e-05
3.360000000000000000e+02,2.680284500000000003e-05
3.370000000000000000e+02,2.628473499999999831e-05
3.380000000000000000e+02,2.582059299999999892e-05
3.390000000000000000e+02,2.540291999999999835e-05
3.400000000000000000e+02,2.502566000000000054e-05
3.410000000000000000e+02,2.468364600000000114e-05
3.420000000000000000e+02,2.437230400000000137e-05
3.430000000000000000e+02,2.408788499999999917e-05
3.440000000000000000e+02,2.382717300000000064e-05
3.450000000000000000e+02,2.358731600000000075e-05
3.460000000000000000e+02,2.336593899999999936e-05
3.470000000000000000e+02,2.316099699999999911e-05
3.480000000000000000e+02,2.297066899999999866e-05
3.490000000000000000e+02,2.279341800000000024e-05
3.500000000000000000e+02,2.262790100000000004e-05
3.510000000000000000e+02,2.247291600000000003e-05
3.520000000000000000e+02,2.232743999999999845e-05
3.530000000000000000e+02,2.219057800000000043e-05
3.540000000000000000e+02,2.206151800000000137e-05
3.550000000000000000e+02,2.193956800000000163e-05
3.560000000000000000e+02,2.182410799999999850e-05
3.570000000000000000e+02,2.171457700000000086e-05
3.580000000000000000e+02,2.161048899999999908e-05
3.590000000000000000e+02,2.151140700000000124e-05
3.600000000000000000e+02,2.141693600000000002e-05
3.610000000000000000e+02,2.132672100000000109e-05
3.620000000000000000e+02,2.124044799999999874e-05
3.630000000000000000e+02,2.115783200000000014e-05
3.640000000000000000e+02,2.107861099999999848e-05
3.650000000000000000e+02,2.100255600000000078e-05
3.660000000000000000e+02,2.092944900000000060e-05
3.670000000000000000e+02,2.085909500000000124e-05
3.680000000000000000e+02,2.079132500000000037e-05
3.690000000000000000e+02,2.072597099999999842e-05
3.700000000000000000e+02,2.066288799999999880e-05
3.710000000000000000e+02,2.060194099999999886e-05
3.720000000000000000e+02,2.054300400000000061e-05
3.730000000000000000e+02,2.048596400000000158e-05
3.740000000000000000e+02,2.043071399999999902e-05
3.750000000000000000e+02,2.037715800000000044e-05
3.760000000000000000e+02,2.032520599999999955e-05
3.770000000000000000e+02,2.027477099999999840e-05
3.780000000000000000e+02,2.022577799999999851e-05
3.790000000000000000e+02,2.017815499999999959e-05
3.800000000000000000e+02,2.013183299999999953e-05
3.810000000000000000e+02,2.008675100000000151e-05
3.820000000000000000e+02,2.004284900000000133e-05
3.830000000000000000e+02,2.000007400000000071e-05
3.840000000000000000e+02,1.995837199999999858e-05
3.850000000000000000e+02,1.991769900000000135e-05
3.860000000000000000e+02,1.987800700000000092e-05
3.870000000000000000e+02,1.983925700000000066e-05
3.880000000000000000e+02,1.980140599999999959e-05
3.890000000000000000e+02,1.976441899999999865e-05
3.900000000000000000e+02,1.972825900000000000e-05
3.910000000000000000e+02,1.969289200000000058e-05
3.920000000000000000e+02,1.965829099999999986e-05
3.930000000000000000e+02,1.962442400000000034e-05
3.940000000000000000e+02,1.959126199999999932e-05
3.950000000000000000e+02,1.955877999999999843e-05
3.960000000000000000e+02,1.952695100000000053e-05
3.970000000000000000e+02,1.949575400000000145e-05
3.980000000000000000e+02,1.946516600000000160e-05
3.990000000000000000e+02,1.943516299999999863e-05
