# Time [s], Thickness [m]
1.000000000000000000e+00,8.000000400000000303e-03
2.000000000000000000e+00,8.000000400000000303e-03
3.000000000000000000e+00,8.000000400000000303e-03
4.000000000000000000e+00,8.000000400000000303e-03
5.000000000000000000e+00,8.000000400000000303e-03
6.000000000000000000e+00,8.000000400000000303e-03
7.000000000000000000e+00,8.000000400000000303e-03
8.000000000000000000e+00,8.000000400000000303e-03
9.000000000000000000e+00,7.999999400000000829e-03
1.000000000000000000e+01,7.999999400000000829e-03
1.100000000000000000e+01,7.999999400000000829e-03
1.200000000000000000e+01,7.999997599999999348e-03
1.300000000000000000e+01,7.999994800000000128e-03
1.400000000000000000e+01,7.999989199999999953e-03
1.500000000000000000e+01,7.999977999999999603e-03
1.600000000000000000e+01,7.999957499999999985e-03
1.700000000000000000e+01,7.999924000000000271e-03
1.800000000000000000e+01,7.999868099999999857e-03
1.900000000000000000e+01,7.999777799999999855e-03
2.000000000000000000e+01,7.999638099999999488e-03
2.100000000000000000e+01,7.999425799999999517e-03
2.200000000000000000e+01,7.999113800000000676e-03
2.300000000000000000e+01,7.998664900000000688e-03
2.400000000000000000e+01,7.998030600000000795e-03
2.500000000000000000e+01,7.997156099999999657e-03
2.600000000000000000e+01,7.995972400000000632e-03
2.700000000000000000e+01,7.994399399999999392e-03
2.800000000000000000e+01,7.992350500000000232e-03
2.900000000000000000e+01,7.989728800000000034e-03
3.000000000000000000e+01,7.986436600000000607e-03
3.100000000000000000e+01,7.982375999999999361e-03
3.200000000000000000e+01,7.977457699999999235e-03
3.300000000000000000e+01,7.971602499999999245e-03
3.400000000000000000e+01,7.964750799999999881e-03
3.500000000000000000e+01,7.956861500000000573e-03
3.600000000000000000e+01,7.947916200000000250e-03
3.700000000000000000e+01,7.937916600000000794e-03
3.800000000000000000e+01,7.926882200000000614e-03
3.900000000000000000e+01,7.914847699999999833e-03
4.000000000000000000e+01,7.901858499999999189e-03
4.100000000000000000e+01,7.887966899999999601e-03
4.200000000000000000e+01,7.873228799999999750e-03
4.300000000000000000e+01,7.857866599999999146e-03
4.400000000000000000e+01,7.841857199999999889e-03
4.500000000000000000e+01,7.825176200000000595e-03
4.600000000000000000e+01,7.807854099999999957e-03
4.700000000000000000e+01,7.789927500000000046e-03
4.800000000000000000e+01,7.771435200000000217e-03
4.900000000000000000e+01,7.752415300000000016e-03
5.000000000000000000e+01,7.732903600000000377e-03
5.100000000000000000e+01,7.712934200000000351e-03
5.200000000000000000e+01,7.692535900000000218e-03
5.300000000000000000e+01,7.671737999999999995e-03
5.400000000000000000e+01,7.650564399999999592e-03
5.500000000000000000e+01,7.629038799999999718e-03
5.600000000000000000e+01,7.607183000000000000e-03
5.700000000000000000e+01,7.585016099999999581e-03
5.800000000000000000e+01,7.562556300000000328e-03
5.900000000000000000e+01,7.539650400000000308e-03
6.000000000000000000e+01,7.516744500000000287e-03
6.100000000000000000e+01,7.493686400000000407e-03
6.200000000000000000e+01,7.470428900000000184e-03
6.300000000000000000e+01,7.446954500000000157e-03
6.400000000000000000e+01,7.423258900000000160e-03
6.500000000000000000e+01,7.399344799999999812e-03
6.600000000000000000e+01,7.375217499999999621e-03
6.700000000000000000e+01,7.350885300000000247e-03
6.800000000000000000e+01,7.326355199999999741e-03
6.900000000000000000e+01,7.301636499999999974e-03
7.000000000000000000e+01,7.276735700000000126e-03
7.100000000000000000e+01,7.251660299999999719e-03
7.200000000000000000e+01,7.226273899999999945e-03
7.300000000000000000e+01,7.200982400000000005e-03
7.400000000000000000e+01,7.175624799999999644e-03
7.500000000000000000e+01,7.150150800000000355e-03
7.600000000000000000e+01,7.124537099999999831e-03
7.700000000000000000e+01,7.098776799999999623e-03
7.800000000000000000e+01,7.072867800000000316e-03
7.900000000000000000e+01,7.046811699999999852e-03
8.000000000000000000e+01,7.020612199999999928e-03
8.100000000000000000e+01,6.994273999999999977e-03
8.200000000000000000e+01,6.967800700000000361e-03
8.300000000000000000e+01,6.941196999999999645e-03
8.400000000000000000e+01,6.914333400000000074e-03
8.500000000000000000e+01,6.887597500000000247e-03
8.600000000000000000e+01,6.860827600000000102e-03
8.700000000000000000e+01,6.833971000000000316e-03
8.800000000000000000e+01,6.807004600000000384e-03
8.900000000000000000e+01,6.779918900000000102e-03
9.000000000000000000e+01,6.752710799999999715e-03
9.100000000000000000e+01,6.725379699999999884e-03
9.200000000000000000e+01,6.697929000000000035e-03
9.300000000000000000e+01,6.670361399999999788e-03
9.400000000000000000e+01,6.642678800000000224e-03
9.500000000000000000e+01,6.614783800000000220e-03
9.600000000000000000e+01,6.587007500000000362e-03
9.700000000000000000e+01,6.559196899999999650e-03
9.800000000000000000e+01,6.531303700000000260e-03
9.900000000000000000e+01,6.503306799999999770e-03
1.000000000000000000e+02,6.475197599999999581e-03
1.010000000000000000e+02,6.446972500000000203e-03
1.020000000000000000e+02,6.418630899999999695e-03
1.030000000000000000e+02,6.390175300000000211e-03
1.040000000000000000e+02,6.361606500000000289e-03
1.050000000000000000e+02,6.332927399999999617e-03
1.060000000000000000e+02,6.304021499999999667e-03
1.070000000000000000e+02,6.275247299999999959e-03
1.080000000000000000e+02,6.246445699999999580e-03
1.090000000000000000e+02,6.217562599999999599e-03
1.100000000000000000e+02,6.188574700000000310e-03
1.110000000000000000e+02,6.159471799999999969e-03
1.120000000000000000e+02,6.130249200000000009e-03
1.130000000000000000e+02,6.100906100000000158e-03
1.140000000000000000e+02,6.071442300000000347e-03
1.150000000000000000e+02,6.041858800000000050e-03
1.160000000000000000e+02,6.012088199999999702e-03
1.170000000000000000e+02,5.982411600000000183e-03
1.180000000000000000e+02,5.952681399999999734e-03
1.190000000000000000e+02,5.922849800000000269e-03
1.200000000000000000e+02,5.892896100000000366e-03
1.210000000000000000e+02,5.862812000000000232e-03
1.220000000000000000e+02,5.832594400000000109e-03
1.230000000000000000e+02,5.802241199999999717e-03
1.240000000000000000e+02,5.771753800000000399e-03
1.250000000000000000e+02,5.741131499999999749e-03
1.260000000000000000e+02,5.710286099999999782e-03
1.270000000000000000e+02,5.679526800000000118e-03
1.280000000000000000e+02,5.648699600000000286e-03
1.290000000000000000e+02,5.617755500000000055e-03
1.300000000000000000e+02,5.586672600000000197e-03
1.310000000000000000e+02,5.555441099999999972e-03
1.320000000000000000e+02,5.524054599999999801e-03
1.330000000000000000e+02,5.492512599999999946e-03
1.340000000000000000e+02,5.460813200000000193e-03
1.350000000000000000e+02,5.428956399999999675e-03
1.360000000000000000e+02,5.396836399999999610e-03
1.370000000000000000e+02,5.364784499999999783e-03
1.380000000000000000e+02,5.332644099999999700e-03
1.390000000000000000e+02,5.300359800000000420e-03
1.400000000000000000e+02,5.267907900000000365e-03
1.410000000000000000e+02,5.235276700000000318e-03
1.420000000000000000e+02,5.202459199999999624e-03
1.430000000000000000e+02,5.169452199999999796e-03
1.440000000000000000e+02,5.136253300000000015e-03
1.450000000000000000e+02,5.102800700000000023e-03
1.460000000000000000e+02,5.069352200000000128e-03
1.470000000000000000e+02,5.035760299999999905e-03
1.480000000000000000e+02,5.001977099999999933e-03
1.490000000000000000e+02,4.967981500000000390e-03
1.500000000000000000e+02,4.933761000000000049e-03
1.510000000000000000e+02,4.899310900000000343e-03
1.520000000000000000e+02,4.864624700000000357e-03
1.530000000000000000e+02,4.829700099999999739e-03
1.540000000000000000e+02,4.794452799999999668e-03
1.550000000000000000e+02,4.759165499999999834e-03
1.560000000000000000e+02,4.723685800000000309e-03
1.570000000000000000e+02,4.687960700000000369e-03
1.580000000000000000e+02,4.651967899999999781e-03
1.590000000000000000e+02,4.615692900000000105e-03
1.600000000000000000e+02,4.579126799999999609e-03
1.610000000000000000e+02,4.542262800000000308e-03
1.620000000000000000e+02,4.505054599999999861e-03
1.630000000000000000e+02,4.467715500000000312e-03
1.640000000000000000e+02,4.430103999999999813e-03
1.650000000000000000e+02,4.392172700000000415e-03
1.660000000000000000e+02,4.353898600000000348e-03
1.670000000000000000e+02,4.315268700000000381e-03
1.680000000000000000e+02,4.276274200000000116e-03
1.690000000000000000e+02,4.236908200000000235e-03
1.700000000000000000e+02,4.197104800000000385e-03
1.710000000000000000e+02,4.157099899999999910e-03
1.720000000000000000e+02,4.116749400000000413e-03
1.730000000000000000e+02,4.076005899999999606e-03
1.740000000000000000e+02,4.034847499999999997e-03
1.750000000000000000e+02,3.993263000000000368e-03
1.760000000000000000e+02,3.951246900000000145e-03
1.770000000000000000e+02,3.908795300000000167e-03
1.780000000000000000e+02,3.865827599999999836e-03
1.790000000000000000e+02,3.822603700000000177e-03
1.800000000000000000e+02,3.778985700000000135e-03
1.810000000000000000e+02,3.734932700000000074e-03
1.820000000000000000e+02,3.690431399999999796e-03
1.830000000000000000e+02,3.645480100000000022e-03
1.840000000000000000e+02,3.600083100000000050e-03
1.850000000000000000e+02,3.554186600000000182e-03
1.860000000000000000e+02,3.508016200000000154e-03
1.870000000000000000e+02,3.461458000000000156e-03
1.880000000000000000e+02,3.414488900000000118e-03
1.890000000000000000e+02,3.367109899999999947e-03
1.900000000000000000e+02,3.319332600000000130e-03
1.910000000000000000e+02,3.271121300000000200e-03
1.920000000000000000e+02,3.222676500000000010e-03
1.930000000000000000e+02,3.173906099999999810e-03
1.940000000000000000e+02,3.124800699999999865e-03
1.950000000000000000e+02,3.075368199999999833e-03
1.960000000000000000e+02,3.025627199999999985e-03
1.970000000000000000e+02,2.975525599999999903e-03
1.980000000000000000e+02,2.925286300000000134e-03
1.990000000000000000e+02,2.874819299999999914e-03
2.000000000000000000e+02,2.824114400000000101e-03
2.010000000000000000e+02,2.773180799999999929e-03
2.020000000000000000e+02,2.722034199999999980e-03
2.030000000000000000e+02,2.670596400000000044e-03
2.040000000000000000e+02,2.619110500000000185e-03
2.050000000000000000e+02,2.567481899999999803e-03
2.060000000000000000e+02,2.515696899999999864e-03
2.070000000000000000e+02,2.463760599999999940e-03
2.080000000000000000e+02,2.411685399999999920e-03
2.090000000000000000e+02,2.359361899999999797e-03
2.100000000000000000e+02,2.307055100000000164e-03
2.110000000000000000e+02,2.254667200000000198e-03
2.120000000000000000e+02,2.202181599999999875e-03
2.130000000000000000e+02,2.149601499999999853e-03
2.140000000000000000e+02,2.096936299999999868e-03
2.150000000000000000e+02,2.044048599999999903e-03
2.160000000000000000e+02,1.991232900000000205e-03
2.170000000000000000e+02,1.938390099999999939e-03
2.180000000000000000e+02,1.885504000000000086e-03
2.190000000000000000e+02,1.832580000000000103e-03
2.200000000000000000e+02,1.779627900000000078e-03
2.210000000000000000e+02,1.726493499999999905e-03
2.220000000000000000e+02,1.673503200000000081e-03
2.230000000000000000e+02,1.620559300000000034e-03
2.240000000000000000e+02,1.567650199999999928e-03
2.250000000000000000e+02,1.514785199999999898e-03
2.260000000000000000e+02,1.461979599999999957e-03
2.270000000000000000e+02,1.409095499999999919e-03
2.280000000000000000e+02,1.356477999999999937e-03
2.290000000000000000e+02,1.304030500000000030e-03
2.300000000000000000e+02,1.251750000000000041e-03
2.310000000000000000e+02,1.199654199999999936e-03
2.320000000000000000e+02,1.147681100000000039e-03
2.330000000000000000e+02,1.096156700000000062e-03
2.340000000000000000e+02,1.044977099999999919e-03
2.350000000000000000e+02,9.941505299999999021e-04
2.360000000000000000e+02,9.437084699999999902e-04
2.370000000000000000e+02,8.936969699999999491e-04
2.380000000000000000e+02,8.442893200000000428e-04
2.390000000000000000e+02,7.956866200000000007e-04
2.400000000000000000e+02,7.477671599999999958e-04
2.410000000000000000e+02,7.005682000000000055e-04
2.420000000000000000e+02,6.541657499999999938e-04
2.430000000000000000e+02,6.086531799999999465e-04
2.440000000000000000e+02,5.641362499999999979e-04
2.450000000000000000e+02,5.213154900000000532e-04
2.460000000000000000e+02,4.799725999999999927e-04
2.470000000000000000e+02,4.399410699999999996e-04
2.480000000000000000e+02,4.013553799999999947e-04
2.490000000000000000e+02,3.643560899999999988e-04
2.500000000000000000e+02,3.290828300000000085e-04
2.510000000000000000e+02,2.956767599999999782e-04
2.520000000000000000e+02,2.653431400000000068e-04
2.530000000000000000e+02,2.375232300000000118e-04
2.540000000000000000e+02,2.114376300000000053e-04
2.550000000000000000e+02,1.874075399999999868e-04
2.560000000000000000e+02,1.654259800000000102e-04
2.570000000000000000e+02,1.455270400000000072e-04
2.580000000000000000e+02,1.276836299999999937e-04
2.590000000000000000e+02,1.118473299999999976e-04
2.600000000000000000e+02,9.793152300000000545e-05
2.610000000000000000e+02,8.581294200000000121e-05
2.620000000000000000e+02,7.535729699999999605e-05
2.630000000000000000e+02,6.640838499999999827e-05
2.640000000000000000e+02,5.879242999999999844e-05
2.650000000000000000e+02,5.235486199999999849e-05
2.660000000000000000e+02,4.693157500000000136e-05
2.670000000000000000e+02,4.237674100000000254e-05
2.680000000000000000e+02,3.855722400000000311e-05
2.690000000000000000e+02,3.535704299999999805e-05
2.700000000000000000e+02,3.267162900000000005e-05
2.710000000000000000e+02,3.041688800000000062e-05
2.720000000000000000e+02,2.851858199999999908e-05
2.730000000000000000e+02,2.691648100000000024e-05
2.740000000000000000e+02,2.555881100000000007e-05
2.750000000000000000e+02,2.440382699999999887e-05
2.760000000000000000e+02,2.341761700000000073e-05
2.770000000000000000e+02,2.257163000000000127e-05
2.780000000000000000e+02,2.184252999999999838e-05
2.790000000000000000e+02,2.121078599999999862e-05
2.800000000000000000e+02,2.066074900000000096e-05
2.810000000000000000e+02,2.017950100000000160e-05
2.820000000000000000e+02,1.975615100000000166e-05
2.830000000000000000e+02,1.938212500000000037e-05
2.840000000000000000e+02,1.904970800000000013e-05
2.850000000000000000e+02,1.875297900000000076e-05
2.860000000000000000e+02,1.848678200000000138e-05
2.870000000000000000e+02,1.824700300000000152e-05
2.880000000000000000e+02,1.802975399999999888e-05
2.890000000000000000e+02,1.783221900000000044e-05
2.900000000000000000e+02,1.765168399999999862e-05
2.910000000000000000e+02,1.748614299999999946e-05
2.920000000000000000e+02,1.733386699999999990e-05
2.930000000000000000e+02,1.719311099999999985e-05
2.940000000000000000e+02,1.706264100000000041e-05
2.950000000000000000e+02,1.694118700000000081e-05
2.960000000000000000e+02,1.682788000000000057e-05
2.970000000000000000e+02,1.672184599999999887e-05
2.980000000000000000e+02,1.662233099999999987e-05
2.990000000000000000e+02,1.652868200000000060e-05
3.000000000000000000e+02,1.644041000000000003e-05
3.010000000000000000e+02,1.635691799999999842e-05
3.020000000000000000e+02,1.627784899999999926e-05
3.030000000000000000e+02,1.620273399999999956e-05
3.040000000000000000e+02,1.613130900000000049e-05
3.050000000000000000e+02,1.606326300000000132e-05
3.060000000000000000e+02,1.599831400000000059e-05
3.070000000000000000e+02,1.593621499999999934e-05
3.080000000000000000e+02,1.587675099999999947e-05
3.090000000000000000e+02,1.581972399999999931e-05
3.100000000000000000e+02,1.576496099999999897e-05
3.110000000000000000e+02,1.571235599999999848e-05
3.120000000000000000e+02,1.566169900000000009e-05
3.130000000000000000e+02,1.561286399999999906e-05
3.140000000000000000e+02,1.556578500000000160e-05
3.150000000000000000e+02,1.552030000000000114e-05
3.160000000000000000e+02,1.547635300000000120e-05
3.170000000000000000e+02,1.543381200000000069e-05
3.180000000000000000e+02,1.539263399999999863e-05
3.190000000000000000e+02,1.535273999999999897e-05
3.200000000000000000e+02,1.531401500000000046e-05
3.210000000000000000e+02,1.527643699999999951e-05
3.220000000000000000e+02,1.523994600000000040e-05
3.230000000000000000e+02,1.520447900000000076e-05
3.240000000000000000e+02,1.516994799999999986e-05
3.250000000000000000e+02,1.513634800000000072e-05
3.260000000000000000e+02,1.510363300000000082e-05
3.270000000000000000e+02,1.507175699999999929e-05
3.280000000000000000e+02,1.504067799999999965e-05
3.290000000000000000e+02,1.501036000000000006e-05
3.300000000000000000e+02,1.498076700000000036e-05
3.310000000000000000e+02,1.495186800000000075e-05
3.320000000000000000e+02,1.492363300000000085e-05
3.330000000000000000e+02,1.489603299999999962e-05
3.340000000000000000e+02,1.486904199999999932e-05
3.350000000000000000e+02,1.484263599999999929e-05
3.360000000000000000e+02,1.481679199999999995e-05
3.370000000000000000e+02,1.479148700000000003e-05
3.380000000000000000e+02,1.476672599999999988e-05
3.390000000000000000e+02,1.474245700000000060e-05
3.400000000000000000e+02,1.471866199999999958e-05
3.410000000000000000e+02,1.469532499999999978e-05
3.420000000000000000e+02,1.467243300000000061e-05
3.430000000000000000e+02,1.464997099999999933e-05
3.440000000000000000e+02,1.462794500000000077e-05
3.450000000000000000e+02,1.460631500000000044e-05
3.460000000000000000e+02,1.458506499999999958e-05
3.470000000000000000e+02,1.456418800000000077e-05
3.480000000000000000e+02,1.454369200000000082e-05
3.490000000000000000e+02,1.452354000000000020e-05
3.500000000000000000e+02,1.450372199999999991e-05
3.510000000000000000e+02,1.448424900000000004e-05
3.520000000000000000e+02,1.446508800000000031e-05
3.530000000000000000e+02,1.444622800000000063e-05
3.540000000000000000e+02,1.442768499999999974e-05
3.550000000000000000e+02,1.440942499999999969e-05
3.560000000000000000e+02,1.439144000000000023e-05
3.570000000000000000e+02,1.437374500000000073e-05
3.580000000000000000e+02,1.435631000000000079e-05
3.590000000000000000e+02,1.433914499999999940e-05
3.600000000000000000e+02,1.432222299999999943e-05
3.610000000000000000e+02,1.430553999999999992e-05
3.620000000000000000e+02,1.428910899999999974e-05
3.630000000000000000e+02,1.427290099999999957e-05
3.640000000000000000e+02,1.425693100000000046e-05
3.650000000000000000e+02,1.424117299999999959e-05
3.660000000000000000e+02,1.422562199999999998e-05
3.670000000000000000e+02,1.421029299999999930e-05
3.680000000000000000e+02,1.419515999999999980e-05
3.690000000000000000e+02,1.418023600000000035e-05
3.700000000000000000e+02,1.416549799999999967e-05
3.710000000000000000e+02,1.415095900000000005e-05
3.720000000000000000e+02,1.413659600000000020e-05
3.730000000000000000e+02,1.412242200000000070e-05
3.740000000000000000e+02,1.410841600000000075e-05
3.750000000000000000e+02,1.409458900000000045e-05
3.760000000000000000e+02,1.408092300000000057e-05
3.770000000000000000e+02,1.406742899999999951e-05
3.780000000000000000e+02,1.405408800000000035e-05
3.790000000000000000e+02,1.404091099999999978e-05
3.800000000000000000e+02,1.402788000000000028e-05
3.810000000000000000e+02,1.401500699999999963e-05
3.820000000000000000e+02,1.400227299999999922e-05
3.830000000000000000e+02,1.398969099999999961e-05
3.840000000000000000e+02,1.397725499999999938e-05
3.850000000000000000e+02,1.396494599999999991e-05
3.860000000000000000e+02,1.395277900000000053e-05
3.870000000000000000e+02,1.394073699999999974e-05
3.880000000000000000e+02,1.392882999999999993e-05
3.890000000000000000e+02,1.391704200000000064e-05
3.900000000000000000e+02,1.390538499999999968e-05
3.910000000000000000e+02,1.389385499999999947e-05
3.920000000000000000e+02,1.388243599999999957e-05
3.930000000000000000e+02,1.387113900000000008e-05
3.940000000000000000e+02,1.385994999999999933e-05
3.950000000000000000e+02,1.384887899999999972e-05
3.960000000000000000e+02,1.383792400000000077e-05
3.970000000000000000e+02,1.382706900000000034e-05
3.980000000000000000e+02,1.381632500000000023e-05
3.990000000000000000e+02,1.380567800000000047e-05
