# Time [s], Mass [Kg]
1.000000000000000000e+00,9.821874549759998518e-02
2.000000000000000000e+00,9.821874549759992967e-02
3.000000000000000000e+00,9.821874549759557205e-02
4.000000000000000000e+00,9.821874549747407201e-02
5.000000000000000000e+00,9.821874549574111102e-02
6.000000000000000000e+00,9.821874548013587169e-02
7.000000000000000000e+00,9.821874537973843133e-02
8.000000000000000000e+00,9.821874487999514292e-02
9.000000000000000000e+00,9.821874284768941643e-02
1.000000000000000000e+01,9.821873582659751412e-02
1.100000000000000000e+01,9.821871461474751541e-02
1.200000000000000000e+01,9.821865732210700861e-02
1.300000000000000000e+01,9.821851658011501729e-02
1.400000000000000000e+01,9.821819783477502008e-02
1.500000000000000000e+01,9.821752509892001104e-02
1.600000000000000000e+01,9.821619046917501317e-02
1.700000000000000000e+01,9.821368467772501054e-02
1.800000000000000000e+01,9.820920900627501393e-02
1.900000000000000000e+01,9.820157511857501020e-02
2.000000000000000000e+01,9.818911003102501200e-02
2.100000000000000000e+01,9.816959941202502149e-02
2.200000000000000000e+01,9.814031627902501664e-02
2.300000000000000000e+01,9.809818270652501115e-02
2.400000000000000000e+01,9.804038477952502217e-02
2.500000000000000000e+01,9.796479043652502050e-02
2.600000000000000000e+01,9.786938198702500868e-02
2.700000000000000000e+01,9.775278497202501138e-02
2.800000000000000000e+01,9.761494505202501781e-02
2.900000000000000000e+01,9.745666756702502098e-02
3.000000000000000000e+01,9.727932540702501074e-02
3.100000000000000000e+01,9.708455011702502024e-02
3.200000000000000000e+01,9.687400491702501115e-02
3.300000000000000000e+01,9.664926160202501337e-02
3.400000000000000000e+01,9.641174545702502208e-02
3.500000000000000000e+01,9.616270664202501706e-02
3.600000000000000000e+01,9.590324048202501783e-02
3.700000000000000000e+01,9.563430815702501919e-02
3.800000000000000000e+01,9.535673743202500996e-02
3.900000000000000000e+01,9.507125546202500888e-02
4.000000000000000000e+01,9.477850833202501601e-02
4.100000000000000000e+01,9.447905628702502057e-02
4.200000000000000000e+01,9.417339933202500957e-02
4.300000000000000000e+01,9.385628737702501889e-02
4.400000000000000000e+01,9.353696453702502189e-02
4.500000000000000000e+01,9.322105983702501375e-02
4.600000000000000000e+01,9.290005915202501074e-02
4.700000000000000000e+01,9.257421616702501965e-02
4.800000000000000000e+01,9.224343652702501895e-02
4.900000000000000000e+01,9.190805176202501703e-02
5.000000000000000000e+01,9.156831441202500921e-02
5.100000000000000000e+01,9.122451424702501810e-02
5.200000000000000000e+01,9.087690781702500997e-02
5.300000000000000000e+01,9.052573420202501830e-02
5.400000000000000000e+01,9.017120918202500834e-02
5.500000000000000000e+01,8.981353484702501999e-02
5.600000000000000000e+01,8.944831940202500886e-02
5.700000000000000000e+01,8.908449770702500659e-02
5.800000000000000000e+01,8.872578398202501937e-02
5.900000000000000000e+01,8.836335608702501621e-02
6.000000000000000000e+01,8.799770884702501350e-02
6.100000000000000000e+01,8.762871638202501812e-02
6.200000000000000000e+01,8.725668129702501830e-02
6.300000000000000000e+01,8.688178229702502031e-02
6.400000000000000000e+01,8.650423575702501089e-02
6.500000000000000000e+01,8.612420976202501965e-02
6.600000000000000000e+01,8.574186523702501117e-02
6.700000000000000000e+01,8.535230422702501374e-02
6.800000000000000000e+01,8.496442603202501720e-02
6.900000000000000000e+01,8.458245156702501322e-02
7.000000000000000000e+01,8.419759607702501092e-02
7.100000000000000000e+01,8.381030782702501847e-02
7.200000000000000000e+01,8.342039329202501075e-02
7.300000000000000000e+01,8.302808589202501088e-02
7.400000000000000000e+01,8.263350869702501544e-02
7.500000000000000000e+01,8.223682481202501671e-02
7.600000000000000000e+01,8.183815794202500826e-02
7.700000000000000000e+01,8.143328610702500747e-02
7.800000000000000000e+01,8.103061176202501492e-02
7.900000000000000000e+01,8.063346617702500663e-02
8.000000000000000000e+01,8.023343965702500746e-02
8.100000000000000000e+01,7.983110306702501102e-02
8.200000000000000000e+01,7.942630186202501164e-02
8.300000000000000000e+01,7.901927593702501307e-02
8.400000000000000000e+01,7.861014127202500812e-02
8.500000000000000000e+01,7.819904732202501152e-02
8.600000000000000000e+01,7.778610004202501926e-02
8.700000000000000000e+01,7.736672832702501390e-02
8.800000000000000000e+01,7.694958084202500881e-02
8.900000000000000000e+01,7.653829096202501014e-02
9.000000000000000000e+01,7.612419119202501472e-02
9.100000000000000000e+01,7.570784290702500807e-02
9.200000000000000000e+01,7.528905006202502026e-02
9.300000000000000000e+01,7.486803267202501999e-02
9.400000000000000000e+01,7.444488434702500879e-02
9.500000000000000000e+01,7.401973571702501198e-02
9.600000000000000000e+01,7.359267428202501127e-02
9.700000000000000000e+01,7.315910059702501744e-02
9.800000000000000000e+01,7.272784523702501003e-02
9.900000000000000000e+01,7.230242828202501637e-02
1.000000000000000000e+02,7.187393094702501650e-02
1.010000000000000000e+02,7.144296433202501628e-02
1.020000000000000000e+02,7.100932842702500913e-02
1.030000000000000000e+02,7.057324963202500634e-02
1.040000000000000000e+02,7.013481593702500239e-02
1.050000000000000000e+02,6.969415157702500696e-02
1.060000000000000000e+02,6.924722782702501245e-02
1.070000000000000000e+02,6.880227975702500609e-02
1.080000000000000000e+02,6.836215921202501433e-02
1.090000000000000000e+02,6.791852533202501208e-02
1.100000000000000000e+02,6.747208117702500896e-02
1.110000000000000000e+02,6.702266171702500608e-02
1.120000000000000000e+02,6.657049288202501747e-02
1.130000000000000000e+02,6.611565452702500290e-02
1.140000000000000000e+02,6.565825751202500338e-02
1.150000000000000000e+02,6.519836403702500283e-02
1.160000000000000000e+02,6.473193220702500028e-02
1.170000000000000000e+02,6.426764714702501435e-02
1.180000000000000000e+02,6.380804780202500859e-02
1.190000000000000000e+02,6.334418602202501747e-02
1.200000000000000000e+02,6.287689825202501248e-02
1.210000000000000000e+02,6.240601487702501088e-02
1.220000000000000000e+02,6.193179235202501270e-02
1.230000000000000000e+02,6.145430690202501045e-02
1.240000000000000000e+02,6.097010910202500800e-02
1.250000000000000000e+02,6.048688575702500930e-02
1.260000000000000000e+02,6.000675112202501216e-02
1.270000000000000000e+02,5.952181034702501428e-02
1.280000000000000000e+02,5.903289389202501236e-02
1.290000000000000000e+02,5.853984861202501250e-02
1.300000000000000000e+02,5.804288569702500955e-02
1.310000000000000000e+02,5.754204838202500727e-02
1.320000000000000000e+02,5.703740269202500768e-02
1.330000000000000000e+02,5.652465630702500909e-02
1.340000000000000000e+02,5.601239992702500975e-02
1.350000000000000000e+02,5.550324713702500801e-02
1.360000000000000000e+02,5.498827343702501064e-02
1.370000000000000000e+02,5.446834004702501286e-02
1.380000000000000000e+02,5.394320776702501291e-02
1.390000000000000000e+02,5.341306082202501582e-02
1.400000000000000000e+02,5.287458689202501755e-02
1.410000000000000000e+02,5.233503766702501947e-02
1.420000000000000000e+02,5.179601861702502058e-02
1.430000000000000000e+02,5.124993361702501887e-02
1.440000000000000000e+02,5.069766206202502151e-02
1.450000000000000000e+02,5.013897605702501842e-02
1.460000000000000000e+02,4.957398745702501497e-02
1.470000000000000000e+02,4.900261720702501350e-02
1.480000000000000000e+02,4.842054685702501526e-02
1.490000000000000000e+02,4.783578180202501667e-02
1.500000000000000000e+02,4.725069177702501816e-02
1.510000000000000000e+02,4.665666666202501756e-02
1.520000000000000000e+02,4.605452003702501657e-02
1.530000000000000000e+02,4.544390132202501958e-02
1.540000000000000000e+02,4.482487896702502111e-02
1.550000000000000000e+02,4.419329018202502318e-02
1.560000000000000000e+02,4.355658866202502533e-02
1.570000000000000000e+02,4.291693004202502826e-02
1.580000000000000000e+02,4.226642649202502766e-02
1.590000000000000000e+02,4.160608404702502428e-02
1.600000000000000000e+02,4.093573637202502224e-02
1.610000000000000000e+02,4.025221065702502127e-02
1.620000000000000000e+02,3.956224373702502128e-02
1.630000000000000000e+02,3.886774419702502398e-02
1.640000000000000000e+02,3.816210178702502537e-02
1.650000000000000000e+02,3.744681113702502673e-02
1.660000000000000000e+02,3.672220966702502420e-02
1.670000000000000000e+02,3.598527744702502418e-02
1.680000000000000000e+02,3.524317791202502548e-02
1.690000000000000000e+02,3.449850666202503024e-02
1.700000000000000000e+02,3.374508077202502399e-02
1.710000000000000000e+02,3.298478251702502417e-02
1.720000000000000000e+02,3.221443824702502345e-02
1.730000000000000000e+02,3.144104595702502947e-02
1.740000000000000000e+02,3.066721395202502698e-02
1.750000000000000000e+02,2.988727863202503277e-02
1.760000000000000000e+02,2.910303888702503450e-02
1.770000000000000000e+02,2.831497016702502756e-02
1.780000000000000000e+02,2.751934257702502717e-02
1.790000000000000000e+02,2.672298499202502287e-02
1.800000000000000000e+02,2.592878224702502288e-02
1.810000000000000000e+02,2.513044226702501605e-02
1.820000000000000000e+02,2.432964635202501669e-02
1.830000000000000000e+02,2.352182145702501337e-02
1.840000000000000000e+02,2.271366134702501594e-02
1.850000000000000000e+02,2.190830306202501410e-02
1.860000000000000000e+02,2.109981255702501890e-02
1.870000000000000000e+02,2.028988317202501390e-02
1.880000000000000000e+02,1.947329842202501216e-02
1.890000000000000000e+02,1.865701000702500723e-02
1.900000000000000000e+02,1.784483692702500124e-02
1.910000000000000000e+02,1.703091070202500390e-02
1.920000000000000000e+02,1.621705582702499815e-02
1.930000000000000000e+02,1.539775845202499827e-02
1.940000000000000000e+02,1.458099437202499404e-02
1.950000000000000000e+02,1.377115528202499384e-02
1.960000000000000000e+02,1.296223499702499338e-02
1.970000000000000000e+02,1.215637646702499852e-02
1.980000000000000000e+02,1.134997527202499801e-02
1.990000000000000000e+02,1.055308963702500380e-02
2.000000000000000000e+02,9.768594197024998982e-03
2.010000000000000000e+02,8.990718602024994066e-03
2.020000000000000000e+02,8.223422107024994099e-03
2.030000000000000000e+02,7.471644562024995495e-03
2.040000000000000000e+02,6.746055302024989153e-03
2.050000000000000000e+02,6.042439632024984575e-03
2.060000000000000000e+02,5.360432802024986398e-03
2.070000000000000000e+02,4.706765372024981908e-03
2.080000000000000000e+02,4.085968502024986404e-03
2.090000000000000000e+02,3.527115072024980535e-03
2.100000000000000000e+02,3.021081297024982848e-03
2.110000000000000000e+02,2.559870992024981806e-03
2.120000000000000000e+02,2.142325587024984657e-03
2.130000000000000000e+02,1.781553332024982117e-03
2.140000000000000000e+02,1.460309392024988773e-03
2.150000000000000000e+02,1.208050992024992110e-03
2.160000000000000000e+02,9.617632270249865112e-04
2.170000000000000000e+02,7.884063970249877151e-04
2.180000000000000000e+02,6.082292920249893209e-04
2.190000000000000000e+02,4.426633084749914682e-04
2.200000000000000000e+02,4.318549529249982033e-04
2.210000000000000000e+02,3.711518709249989056e-04
2.220000000000000000e+02,3.195864325750003010e-04
2.230000000000000000e+02,3.088694467249936126e-04
2.240000000000000000e+02,2.866700082249928894e-04
2.250000000000000000e+02,2.678997492249896029e-04
2.260000000000000000e+02,2.557437367249892901e-04
2.270000000000000000e+02,2.444502642249823943e-04
2.280000000000000000e+02,2.353507518749881067e-04
2.290000000000000000e+02,2.278562808749884372e-04
2.300000000000000000e+02,2.215435234249885088e-04
2.310000000000000000e+02,2.161808828749917089e-04
2.320000000000000000e+02,2.115911198249942338e-04
2.330000000000000000e+02,2.076234515749897369e-04
2.340000000000000000e+02,2.041609218249862412e-04
2.350000000000000000e+02,2.011169406249818659e-04
2.360000000000000000e+02,1.984193050749843978e-04
2.370000000000000000e+02,1.960102433749832951e-04
2.380000000000000000e+02,1.938458650749819157e-04
2.390000000000000000e+02,1.918889196749762327e-04
2.400000000000000000e+02,1.901088427749830778e-04
2.410000000000000000e+02,1.884818302249763322e-04
2.420000000000000000e+02,1.869874564749823831e-04
2.430000000000000000e+02,1.856085500749754535e-04
2.440000000000000000e+02,1.843312483249814893e-04
2.450000000000000000e+02,1.831434281749783066e-04
2.460000000000000000e+02,1.820347687249840307e-04
2.470000000000000000e+02,1.809968630749891894e-04
2.480000000000000000e+02,1.800222870599887948e-04
2.490000000000000000e+02,1.791045802249924268e-04
2.500000000000000000e+02,1.782383068249931979e-04
2.510000000000000000e+02,1.774186345599865211e-04
2.520000000000000000e+02,1.766413069399924707e-04
2.530000000000000000e+02,1.759026561199972249e-04
2.540000000000000000e+02,1.751993993650002857e-04
2.550000000000000000e+02,1.745286169450022129e-04
2.560000000000000000e+02,1.738877501700070161e-04
2.570000000000000000e+02,1.732744942150032941e-04
2.580000000000000000e+02,1.726867796650044529e-04
2.590000000000000000e+02,1.721227657750096229e-04
2.600000000000000000e+02,1.715807784150036319e-04
2.610000000000000000e+02,1.710593035749996549e-04
2.620000000000000000e+02,1.705569857950034462e-04
2.630000000000000000e+02,1.700725839449968024e-04
2.640000000000000000e+02,1.696049659049986280e-04
2.650000000000000000e+02,1.691531078250041453e-04
2.660000000000000000e+02,1.687160665500009316e-04
2.670000000000000000e+02,1.682929759650036994e-04
2.680000000000000000e+02,1.678830462100017185e-04
2.690000000000000000e+02,1.674855457299978534e-04
2.700000000000000000e+02,1.670997989249994875e-04
2.710000000000000000e+02,1.667251856000001586e-04
2.720000000000000000e+02,1.663611288300059776e-04
2.730000000000000000e+02,1.660070930150081558e-04
2.740000000000000000e+02,1.656625832250069319e-04
2.750000000000000000e+02,1.653271362950098355e-04
2.760000000000000000e+02,1.650003205400096817e-04
2.770000000000000000e+02,1.646817361300040305e-04
2.780000000000000000e+02,1.643710073700038743e-04
2.790000000000000000e+02,1.640677824499975346e-04
2.800000000000000000e+02,1.637717339599970012e-04
2.810000000000000000e+02,1.634825531399985987e-04
2.820000000000000000e+02,1.631999497599956328e-04
2.830000000000000000e+02,1.629236525699934157e-04
2.840000000000000000e+02,1.626534049349870337e-04
2.850000000000000000e+02,1.623889648399851060e-04
2.860000000000000000e+02,1.621301053349871735e-04
2.870000000000000000e+02,1.618766111649849737e-04
2.880000000000000000e+02,1.616282787049866387e-04
2.890000000000000000e+02,1.613849162599850784e-04
2.900000000000000000e+02,1.611463412299896092e-04
2.910000000000000000e+02,1.609123805199896839e-04
2.920000000000000000e+02,1.606828711299829182e-04
2.930000000000000000e+02,1.604576574049804139e-04
2.940000000000000000e+02,1.602365913399850239e-04
2.950000000000000000e+02,1.600195331599857385e-04
2.960000000000000000e+02,1.598063490949874765e-04
2.970000000000000000e+02,1.595969116349876815e-04
2.980000000000000000e+02,1.593911000349890195e-04
2.990000000000000000e+02,1.591887985049889043e-04
3.000000000000000000e+02,1.589898964599878450e-04
3.010000000000000000e+02,1.587942889549887049e-04
3.020000000000000000e+02,1.586018752149920275e-04
3.030000000000000000e+02,1.584125588049989375e-04
3.040000000000000000e+02,1.582262479449952908e-04
3.050000000000000000e+02,1.580428541999995273e-04
3.060000000000000000e+02,1.578622928449929796e-04
3.070000000000000000e+02,1.576844833199864127e-04
3.080000000000000000e+02,1.575093478799888258e-04
3.090000000000000000e+02,1.573368118649859371e-04
3.100000000000000000e+02,1.571668041349810752e-04
3.110000000000000000e+02,1.569992559399824295e-04
3.120000000000000000e+02,1.568341011549817532e-04
3.130000000000000000e+02,1.566712766549877012e-04
3.140000000000000000e+02,1.565107213399863362e-04
3.150000000000000000e+02,1.563523763649932175e-04
3.160000000000000000e+02,1.561961854749938094e-04
3.170000000000000000e+02,1.560420941899981484e-04
3.180000000000000000e+02,1.558900499649962246e-04
3.190000000000000000e+02,1.557400024449900888e-04
3.200000000000000000e+02,1.555919027149965661e-04
3.210000000000000000e+02,1.554457035699979839e-04
3.220000000000000000e+02,1.553013598550034846e-04
3.230000000000000000e+02,1.551588276599985550e-04
3.240000000000000000e+02,1.550180645299992221e-04
3.250000000000000000e+02,1.548790297799945703e-04
3.260000000000000000e+02,1.547416838149906493e-04
3.270000000000000000e+02,1.546059883049955008e-04
3.280000000000000000e+02,1.544719064599936464e-04
3.290000000000000000e+02,1.543394024349914462e-04
3.300000000000000000e+02,1.542084414999922437e-04
3.310000000000000000e+02,1.540789902949868395e-04
3.320000000000000000e+02,1.539510163099805373e-04
3.330000000000000000e+02,1.538244880099765011e-04
3.340000000000000000e+02,1.536993750299725514e-04
3.350000000000000000e+02,1.535756476999661224e-04
3.360000000000000000e+02,1.534532772349689322e-04
3.370000000000000000e+02,1.533322359849736971e-04
3.380000000000000000e+02,1.532124969099712963e-04
3.390000000000000000e+02,1.530940337299696585e-04
3.400000000000000000e+02,1.529768211699644720e-04
3.410000000000000000e+02,1.528608344949639042e-04
3.420000000000000000e+02,1.527460496499599696e-04
3.430000000000000000e+02,1.526324434649589668e-04
3.440000000000000000e+02,1.525199932449622375e-04
3.450000000000000000e+02,1.524086768999594055e-04
3.460000000000000000e+02,1.522984731399529279e-04
3.470000000000000000e+02,1.521893611199504059e-04
3.480000000000000000e+02,1.520813205299481607e-04
3.490000000000000000e+02,1.519743317549421269e-04
3.500000000000000000e+02,1.518683755299399252e-04
3.510000000000000000e+02,1.517634330949341193e-04
3.520000000000000000e+02,1.516594863849307639e-04
3.530000000000000000e+02,1.515565176449240603e-04
3.540000000000000000e+02,1.514545095549213460e-04
3.550000000000000000e+02,1.513534454099241255e-04
3.560000000000000000e+02,1.512533087944245569e-04
3.570000000000000000e+02,1.511540836864194715e-04
3.580000000000000000e+02,1.510557546099133841e-04
3.590000000000000000e+02,1.509583063449143614e-04
3.600000000000000000e+02,1.508617240314202856e-04
3.610000000000000000e+02,1.507659933079191772e-04
3.620000000000000000e+02,1.506711000569260772e-04
3.630000000000000000e+02,1.505770304839199047e-04
3.640000000000000000e+02,1.504837712299200714e-04
3.650000000000000000e+02,1.503913091239206246e-04
3.660000000000000000e+02,1.502996313014204333e-04
3.670000000000000000e+02,1.502087253454215121e-04
3.680000000000000000e+02,1.501185790089148986e-04
3.690000000000000000e+02,1.500291803139125468e-04
3.700000000000000000e+02,1.499405176849100130e-04
3.710000000000000000e+02,1.498525797009042648e-04
3.720000000000000000e+02,1.497653551839062125e-04
3.730000000000000000e+02,1.496788333193999065e-04
3.740000000000000000e+02,1.495930034338954773e-04
3.750000000000000000e+02,1.495078550773909498e-04
3.760000000000000000e+02,1.494233781343945466e-04
3.770000000000000000e+02,1.493395626274013344e-04
3.780000000000000000e+02,1.492563987813971815e-04
3.790000000000000000e+02,1.491738771153966470e-04
3.800000000000000000e+02,1.490919882483898729e-04
3.810000000000000000e+02,1.490107229953907542e-04
3.820000000000000000e+02,1.489300724808878540e-04
3.830000000000000000e+02,1.488500279213933464e-04
3.840000000000000000e+02,1.487705807048933515e-04
3.850000000000000000e+02,1.486917224988865138e-04
3.860000000000000000e+02,1.486134450568860066e-04
3.870000000000000000e+02,1.485357402883913380e-04
3.880000000000000000e+02,1.484586003558940881e-04
3.890000000000000000e+02,1.483820175013916831e-04
3.900000000000000000e+02,1.483059841118905542e-04
3.910000000000000000e+02,1.482304928088901130e-04
3.920000000000000000e+02,1.481555362953940191e-04
3.930000000000000000e+02,1.480811074068971722e-04
3.940000000000000000e+02,1.480071991838971535e-04
3.950000000000000000e+02,1.479338047214034946e-04
3.960000000000000000e+02,1.478609172454042886e-04
3.970000000000000000e+02,1.477885302039044779e-04
3.980000000000000000e+02,1.477166370949106744e-04
3.990000000000000000e+02,1.476452315299081608e-04
