# Time [s], Temperature [C]
1.000000000000000000e+00,2.499997099999999861e+01
2.000000000000000000e+00,4.593647399999999692e+01
3.000000000000000000e+00,5.781997700000000151e+01
4.000000000000000000e+00,6.751268000000000313e+01
5.000000000000000000e+00,7.560659800000000530e+01
6.000000000000000000e+00,8.272340400000000216e+01
7.000000000000000000e+00,8.910042599999999879e+01
8.000000000000000000e+00,9.491631300000000238e+01
9.000000000000000000e+00,1.002797800000000024e+02
1.000000000000000000e+01,1.052715400000000017e+02
1.100000000000000000e+01,1.099487699999999961e+02
1.200000000000000000e+01,1.143574100000000016e+02
1.300000000000000000e+01,1.185318099999999930e+02
1.400000000000000000e+01,1.224999600000000015e+02
1.500000000000000000e+01,1.262846300000000070e+02
1.600000000000000000e+01,1.299048600000000135e+02
1.700000000000000000e+01,1.333766899999999964e+02
1.800000000000000000e+01,1.367127700000000061e+02
1.900000000000000000e+01,1.399251600000000053e+02
2.000000000000000000e+01,1.430244800000000112e+02
2.100000000000000000e+01,1.460183600000000013e+02
2.200000000000000000e+01,1.489150699999999858e+02
2.300000000000000000e+01,1.517215999999999951e+02
2.400000000000000000e+01,1.544434400000000096e+02
2.500000000000000000e+01,1.570859499999999969e+02
2.600000000000000000e+01,1.596544499999999971e+02
2.700000000000000000e+01,1.621531500000000108e+02
2.800000000000000000e+01,1.645853899999999896e+02
2.900000000000000000e+01,1.669557599999999979e+02
3.000000000000000000e+01,1.692670300000000054e+02
3.100000000000000000e+01,1.715222899999999981e+02
3.200000000000000000e+01,1.737242400000000089e+02
3.300000000000000000e+01,1.758754600000000039e+02
3.400000000000000000e+01,1.779781600000000026e+02
3.500000000000000000e+01,1.800355399999999975e+02
3.600000000000000000e+01,1.820477400000000046e+02
3.700000000000000000e+01,1.840181000000000040e+02
3.800000000000000000e+01,1.859484400000000051e+02
3.900000000000000000e+01,1.878400699999999972e+02
4.000000000000000000e+01,1.896940299999999979e+02
4.100000000000000000e+01,1.915126999999999953e+02
4.200000000000000000e+01,1.932974199999999882e+02
4.300000000000000000e+01,1.950483900000000119e+02
4.400000000000000000e+01,1.967681100000000072e+02
4.500000000000000000e+01,1.984569500000000062e+02
4.600000000000000000e+01,2.001166100000000085e+02
4.700000000000000000e+01,2.017477599999999995e+02
4.800000000000000000e+01,2.033516500000000065e+02
4.900000000000000000e+01,2.049290200000000084e+02
5.000000000000000000e+01,2.064813499999999920e+02
5.100000000000000000e+01,2.080089000000000112e+02
5.200000000000000000e+01,2.095125600000000077e+02
5.300000000000000000e+01,2.109937400000000025e+02
5.400000000000000000e+01,2.124525099999999895e+02
5.500000000000000000e+01,2.138901199999999960e+02
5.600000000000000000e+01,2.153072200000000009e+02
5.700000000000000000e+01,2.167049000000000092e+02
5.800000000000000000e+01,2.180827600000000075e+02
5.900000000000000000e+01,2.194431199999999933e+02
6.000000000000000000e+01,2.207846199999999897e+02
6.100000000000000000e+01,2.221095300000000066e+02
6.200000000000000000e+01,2.234174500000000023e+02
6.300000000000000000e+01,2.247096999999999980e+02
6.400000000000000000e+01,2.259860400000000027e+02
6.500000000000000000e+01,2.272481400000000065e+02
6.600000000000000000e+01,2.284954099999999926e+02
6.700000000000000000e+01,2.297288800000000037e+02
6.800000000000000000e+01,2.309492199999999968e+02
6.900000000000000000e+01,2.321559799999999996e+02
7.000000000000000000e+01,2.333502300000000105e+02
7.100000000000000000e+01,2.345326399999999865e+02
7.200000000000000000e+01,2.357028400000000090e+02
7.300000000000000000e+01,2.368612799999999936e+02
7.400000000000000000e+01,2.380087900000000047e+02
7.500000000000000000e+01,2.391450299999999913e+02
7.600000000000000000e+01,2.402704500000000110e+02
7.700000000000000000e+01,2.413861699999999928e+02
7.800000000000000000e+01,2.424907200000000103e+02
7.900000000000000000e+01,2.435848799999999983e+02
8.000000000000000000e+01,2.446693400000000054e+02
8.100000000000000000e+01,2.457435499999999990e+02
8.200000000000000000e+01,2.468082699999999932e+02
8.300000000000000000e+01,2.478629300000000057e+02
8.400000000000000000e+01,2.489075899999999990e+02
8.500000000000000000e+01,2.499431800000000123e+02
8.600000000000000000e+01,2.509688899999999876e+02
8.700000000000000000e+01,2.519852600000000109e+02
8.800000000000000000e+01,2.529915000000000020e+02
8.900000000000000000e+01,2.539889799999999980e+02
9.000000000000000000e+01,2.549766799999999876e+02
9.100000000000000000e+01,2.559550299999999936e+02
9.200000000000000000e+01,2.569244699999999852e+02
9.300000000000000000e+01,2.578847999999999843e+02
9.400000000000000000e+01,2.588354800000000182e+02
9.500000000000000000e+01,2.597782300000000077e+02
9.600000000000000000e+01,2.607113299999999754e+02
9.700000000000000000e+01,2.616363499999999931e+02
9.800000000000000000e+01,2.625532200000000103e+02
9.900000000000000000e+01,2.634609399999999937e+02
1.000000000000000000e+02,2.643609599999999773e+02
1.010000000000000000e+02,2.652532699999999863e+02
1.020000000000000000e+02,2.661372700000000009e+02
1.030000000000000000e+02,2.670134300000000280e+02
1.040000000000000000e+02,2.678827499999999873e+02
1.050000000000000000e+02,2.687445399999999722e+02
1.060000000000000000e+02,2.695986599999999953e+02
1.070000000000000000e+02,2.704462899999999763e+02
1.080000000000000000e+02,2.712867699999999900e+02
1.090000000000000000e+02,2.721208199999999806e+02
1.100000000000000000e+02,2.729485799999999927e+02
1.110000000000000000e+02,2.737695299999999747e+02
1.120000000000000000e+02,2.745844999999999914e+02
1.130000000000000000e+02,2.753937099999999987e+02
1.140000000000000000e+02,2.761967500000000086e+02
1.150000000000000000e+02,2.769940799999999967e+02
1.160000000000000000e+02,2.777860400000000141e+02
1.170000000000000000e+02,2.785723300000000222e+02
1.180000000000000000e+02,2.793530900000000088e+02
1.190000000000000000e+02,2.801288099999999872e+02
1.200000000000000000e+02,2.808992600000000266e+02
1.210000000000000000e+02,2.816646400000000199e+02
1.220000000000000000e+02,2.824253199999999993e+02
1.230000000000000000e+02,2.831809700000000021e+02
1.240000000000000000e+02,2.839318499999999972e+02
1.250000000000000000e+02,2.846784400000000232e+02
1.260000000000000000e+02,2.854203800000000228e+02
1.270000000000000000e+02,2.861574699999999893e+02
1.280000000000000000e+02,2.868905599999999936e+02
1.290000000000000000e+02,2.876190799999999967e+02
1.300000000000000000e+02,2.883433200000000056e+02
1.310000000000000000e+02,2.890636299999999892e+02
1.320000000000000000e+02,2.897798799999999915e+02
1.330000000000000000e+02,2.904917599999999993e+02
1.340000000000000000e+02,2.911999200000000201e+02
1.350000000000000000e+02,2.919039599999999837e+02
1.360000000000000000e+02,2.926040300000000229e+02
1.370000000000000000e+02,2.933009900000000130e+02
1.380000000000000000e+02,2.939934400000000210e+02
1.390000000000000000e+02,2.946821299999999724e+02
1.400000000000000000e+02,2.953673400000000129e+02
1.410000000000000000e+02,2.960489200000000096e+02
1.420000000000000000e+02,2.967266200000000254e+02
1.430000000000000000e+02,2.974013699999999858e+02
1.440000000000000000e+02,2.980723300000000222e+02
1.450000000000000000e+02,2.987393500000000017e+02
1.460000000000000000e+02,2.994030500000000075e+02
1.470000000000000000e+02,3.000631399999999758e+02
1.480000000000000000e+02,3.007202800000000025e+02
1.490000000000000000e+02,3.013736299999999915e+02
1.500000000000000000e+02,3.020237099999999941e+02
1.510000000000000000e+02,3.026700999999999908e+02
1.520000000000000000e+02,3.033136600000000271e+02
1.530000000000000000e+02,3.039537000000000262e+02
1.540000000000000000e+02,3.045901200000000131e+02
1.550000000000000000e+02,3.052233899999999949e+02
1.560000000000000000e+02,3.058537600000000225e+02
1.570000000000000000e+02,3.064803800000000251e+02
1.580000000000000000e+02,3.071041299999999978e+02
1.590000000000000000e+02,3.077244600000000219e+02
1.600000000000000000e+02,3.083415499999999838e+02
1.610000000000000000e+02,3.089551700000000096e+02
1.620000000000000000e+02,3.095659499999999866e+02
1.630000000000000000e+02,3.101733699999999772e+02
1.640000000000000000e+02,3.107772800000000188e+02
1.650000000000000000e+02,3.113785700000000247e+02
1.660000000000000000e+02,3.119760699999999929e+02
1.670000000000000000e+02,3.125708599999999819e+02
1.680000000000000000e+02,3.131618700000000217e+02
1.690000000000000000e+02,3.137500299999999811e+02
1.700000000000000000e+02,3.143350199999999859e+02
1.710000000000000000e+02,3.149168099999999981e+02
1.720000000000000000e+02,3.154953899999999862e+02
1.730000000000000000e+02,3.160708900000000199e+02
1.740000000000000000e+02,3.166427899999999909e+02
1.750000000000000000e+02,3.172121599999999830e+02
1.760000000000000000e+02,3.177778599999999756e+02
1.770000000000000000e+02,3.183404199999999946e+02
1.780000000000000000e+02,3.188999000000000024e+02
1.790000000000000000e+02,3.194560200000000236e+02
1.800000000000000000e+02,3.200089699999999766e+02
1.810000000000000000e+02,3.205589600000000132e+02
1.820000000000000000e+02,3.211050399999999740e+02
1.830000000000000000e+02,3.216486199999999940e+02
1.840000000000000000e+02,3.221884800000000268e+02
1.850000000000000000e+02,3.227254899999999793e+02
1.860000000000000000e+02,3.232590599999999768e+02
1.870000000000000000e+02,3.237894000000000005e+02
1.880000000000000000e+02,3.243166499999999814e+02
1.890000000000000000e+02,3.248404499999999757e+02
1.900000000000000000e+02,3.253610800000000154e+02
1.910000000000000000e+02,3.258781700000000114e+02
1.920000000000000000e+02,3.263924000000000092e+02
1.930000000000000000e+02,3.269029199999999946e+02
1.940000000000000000e+02,3.274103700000000003e+02
1.950000000000000000e+02,3.279147600000000011e+02
1.960000000000000000e+02,3.284157099999999900e+02
1.970000000000000000e+02,3.289128699999999981e+02
1.980000000000000000e+02,3.294074400000000082e+02
1.990000000000000000e+02,3.298984399999999937e+02
2.000000000000000000e+02,3.303859299999999735e+02
2.010000000000000000e+02,3.308703600000000051e+02
2.020000000000000000e+02,3.313515600000000063e+02
2.030000000000000000e+02,3.318290700000000015e+02
2.040000000000000000e+02,3.323037699999999859e+02
2.050000000000000000e+02,3.327749299999999835e+02
2.060000000000000000e+02,3.332421600000000126e+02
2.070000000000000000e+02,3.337069099999999935e+02
2.080000000000000000e+02,3.341681800000000067e+02
2.090000000000000000e+02,3.346256399999999758e+02
2.100000000000000000e+02,3.350803799999999910e+02
2.110000000000000000e+02,3.355320399999999950e+02
2.120000000000000000e+02,3.359789400000000228e+02
2.130000000000000000e+02,3.362712399999999775e+02
2.140000000000000000e+02,3.363413400000000024e+02
2.150000000000000000e+02,3.367520099999999843e+02
2.160000000000000000e+02,3.371506999999999721e+02
2.170000000000000000e+02,3.375720200000000091e+02
2.180000000000000000e+02,3.379925499999999943e+02
2.190000000000000000e+02,3.384155299999999897e+02
2.200000000000000000e+02,3.388371599999999830e+02
2.210000000000000000e+02,3.392560100000000034e+02
2.220000000000000000e+02,3.396729399999999828e+02
2.230000000000000000e+02,3.400876200000000154e+02
2.240000000000000000e+02,3.404981099999999969e+02
2.250000000000000000e+02,3.409068899999999758e+02
2.260000000000000000e+02,3.413127400000000193e+02
2.270000000000000000e+02,3.417142900000000054e+02
2.280000000000000000e+02,3.421136200000000258e+02
2.290000000000000000e+02,3.425101300000000037e+02
2.300000000000000000e+02,3.429020100000000184e+02
2.310000000000000000e+02,3.432919600000000173e+02
2.320000000000000000e+02,3.436790500000000179e+02
2.330000000000000000e+02,3.440616800000000239e+02
2.340000000000000000e+02,3.444424099999999953e+02
2.350000000000000000e+02,3.448203399999999874e+02
2.360000000000000000e+02,3.451940900000000170e+02
2.370000000000000000e+02,3.455656099999999924e+02
2.380000000000000000e+02,3.459345099999999888e+02
2.390000000000000000e+02,3.462988300000000095e+02
2.400000000000000000e+02,3.466615300000000275e+02
2.410000000000000000e+02,3.470217000000000098e+02
2.420000000000000000e+02,3.473773199999999974e+02
2.430000000000000000e+02,3.477314799999999764e+02
2.440000000000000000e+02,3.480831000000000017e+02
2.450000000000000000e+02,3.484302999999999884e+02
2.460000000000000000e+02,3.487761199999999917e+02
2.470000000000000000e+02,3.491198699999999917e+02
2.480000000000000000e+02,3.494587700000000154e+02
2.490000000000000000e+02,3.497965699999999742e+02
2.500000000000000000e+02,3.501320200000000114e+02
2.510000000000000000e+02,3.504629800000000159e+02
2.520000000000000000e+02,3.507930299999999875e+02
2.530000000000000000e+02,3.511212199999999939e+02
2.540000000000000000e+02,3.514448499999999740e+02
2.550000000000000000e+02,3.517676099999999906e+02
2.560000000000000000e+02,3.520882899999999722e+02
2.570000000000000000e+02,3.524044499999999971e+02
2.580000000000000000e+02,3.527199699999999893e+02
2.590000000000000000e+02,3.530339700000000107e+02
2.600000000000000000e+02,3.533431100000000242e+02
2.610000000000000000e+02,3.536519499999999994e+02
2.620000000000000000e+02,3.539589799999999968e+02
2.630000000000000000e+02,3.542622999999999820e+02
2.640000000000000000e+02,3.545645099999999843e+02
2.650000000000000000e+02,3.548652299999999968e+02
2.660000000000000000e+02,3.551614999999999895e+02
2.670000000000000000e+02,3.554580399999999827e+02
2.680000000000000000e+02,3.557524999999999977e+02
2.690000000000000000e+02,3.560431500000000256e+02
2.700000000000000000e+02,3.563335900000000152e+02
2.710000000000000000e+02,3.566229200000000219e+02
2.720000000000000000e+02,3.569073799999999892e+02
2.730000000000000000e+02,3.571923800000000142e+02
2.740000000000000000e+02,3.574763199999999870e+02
2.750000000000000000e+02,3.577560399999999845e+02
2.760000000000000000e+02,3.580355200000000195e+02
2.770000000000000000e+02,3.583140300000000025e+02
2.780000000000000000e+02,3.585890200000000050e+02
2.790000000000000000e+02,3.588637699999999882e+02
2.800000000000000000e+02,3.591376300000000015e+02
2.810000000000000000e+02,3.594075000000000273e+02
2.820000000000000000e+02,3.596779199999999719e+02
2.830000000000000000e+02,3.599471700000000283e+02
2.840000000000000000e+02,3.602122200000000021e+02
2.850000000000000000e+02,3.604786100000000033e+02
2.860000000000000000e+02,3.607437100000000214e+02
2.870000000000000000e+02,3.610045799999999758e+02
2.880000000000000000e+02,3.612668800000000147e+02
2.890000000000000000e+02,3.615277100000000132e+02
2.900000000000000000e+02,3.617851600000000190e+02
2.910000000000000000e+02,3.620437000000000012e+02
2.920000000000000000e+02,3.623006899999999746e+02
2.930000000000000000e+02,3.625548099999999749e+02
2.940000000000000000e+02,3.628091400000000135e+02
2.950000000000000000e+02,3.630631399999999758e+02
2.960000000000000000e+02,3.633137500000000273e+02
2.970000000000000000e+02,3.635646699999999782e+02
2.980000000000000000e+02,3.638153100000000109e+02
2.990000000000000000e+02,3.640628699999999753e+02
3.000000000000000000e+02,3.643106999999999971e+02
3.010000000000000000e+02,3.645583799999999997e+02
3.020000000000000000e+02,3.648029199999999719e+02
3.030000000000000000e+02,3.650477599999999825e+02
3.040000000000000000e+02,3.652929700000000253e+02
3.050000000000000000e+02,3.655339399999999728e+02
3.060000000000000000e+02,3.657765800000000240e+02
3.070000000000000000e+02,3.660190400000000182e+02
3.080000000000000000e+02,3.662574200000000246e+02
3.090000000000000000e+02,3.664980800000000158e+02
3.100000000000000000e+02,3.667371200000000044e+02
3.110000000000000000e+02,3.669733299999999758e+02
3.120000000000000000e+02,3.672114300000000071e+02
3.130000000000000000e+02,3.674483000000000175e+02
3.140000000000000000e+02,3.676827999999999861e+02
3.150000000000000000e+02,3.679176899999999932e+02
3.160000000000000000e+02,3.681527699999999754e+02
3.170000000000000000e+02,3.683850400000000036e+02
3.180000000000000000e+02,3.686178600000000074e+02
3.190000000000000000e+02,3.688520500000000197e+02
3.200000000000000000e+02,3.690807800000000043e+02
3.210000000000000000e+02,3.693120999999999867e+02
3.220000000000000000e+02,3.695441900000000146e+02
3.230000000000000000e+02,3.697710000000000150e+02
3.240000000000000000e+02,3.700010399999999890e+02
3.250000000000000000e+02,3.702302199999999743e+02
3.260000000000000000e+02,3.704565099999999802e+02
3.270000000000000000e+02,3.706841999999999757e+02
3.280000000000000000e+02,3.709114700000000084e+02
3.290000000000000000e+02,3.711358900000000176e+02
3.300000000000000000e+02,3.713619100000000230e+02
3.310000000000000000e+02,3.715880999999999972e+02
3.320000000000000000e+02,3.718103899999999840e+02
3.330000000000000000e+02,3.720353700000000003e+02
3.340000000000000000e+02,3.722586099999999760e+02
3.350000000000000000e+02,3.724800099999999929e+02
3.360000000000000000e+02,3.727032500000000255e+02
3.370000000000000000e+02,3.729258100000000127e+02
3.380000000000000000e+02,3.731457500000000209e+02
3.390000000000000000e+02,3.733660600000000045e+02
3.400000000000000000e+02,3.735884100000000103e+02
3.410000000000000000e+02,3.738054200000000264e+02
3.420000000000000000e+02,3.740264300000000048e+02
3.430000000000000000e+02,3.742451500000000237e+02
3.440000000000000000e+02,3.744615499999999884e+02
3.450000000000000000e+02,3.746809700000000021e+02
3.460000000000000000e+02,3.748983200000000124e+02
3.470000000000000000e+02,3.751145900000000211e+02
3.480000000000000000e+02,3.753305700000000229e+02
3.490000000000000000e+02,3.755486500000000092e+02
3.500000000000000000e+02,3.757614699999999743e+02
3.510000000000000000e+02,3.759776600000000144e+02
3.520000000000000000e+02,3.761925400000000081e+02
3.530000000000000000e+02,3.764056400000000053e+02
3.540000000000000000e+02,3.766194800000000100e+02
3.550000000000000000e+02,3.768340499999999906e+02
3.560000000000000000e+02,3.770449800000000096e+02
3.570000000000000000e+02,3.772575699999999870e+02
3.580000000000000000e+02,3.774704600000000028e+02
3.590000000000000000e+02,3.776798699999999940e+02
3.600000000000000000e+02,3.778918199999999956e+02
3.610000000000000000e+02,3.781026600000000144e+02
3.620000000000000000e+02,3.783117700000000241e+02
3.630000000000000000e+02,3.785214199999999778e+02
3.640000000000000000e+02,3.787316900000000146e+02
3.650000000000000000e+02,3.789386600000000271e+02
3.660000000000000000e+02,3.791476099999999860e+02
3.670000000000000000e+02,3.793547399999999925e+02
3.680000000000000000e+02,3.795620400000000245e+02
3.690000000000000000e+02,3.797679400000000101e+02
3.700000000000000000e+02,3.799762900000000059e+02
3.710000000000000000e+02,3.801795299999999997e+02
3.720000000000000000e+02,3.803867799999999875e+02
3.730000000000000000e+02,3.805907000000000266e+02
3.740000000000000000e+02,3.807953800000000228e+02
3.750000000000000000e+02,3.809982899999999972e+02
3.760000000000000000e+02,3.812028799999999933e+02
3.770000000000000000e+02,3.814049099999999726e+02
3.780000000000000000e+02,3.816064799999999764e+02
3.790000000000000000e+02,3.818103300000000218e+02
3.800000000000000000e+02,3.820094000000000278e+02
3.810000000000000000e+02,3.822122200000000021e+02
3.820000000000000000e+02,3.824115300000000275e+02
3.830000000000000000e+02,3.826120599999999854e+02
3.840000000000000000e+02,3.828103899999999840e+02
3.850000000000000000e+02,3.830113799999999742e+02
3.860000000000000000e+02,3.832074299999999880e+02
3.870000000000000000e+02,3.834071700000000078e+02
3.880000000000000000e+02,3.836036100000000033e+02
3.890000000000000000e+02,3.838011799999999880e+02
3.900000000000000000e+02,3.839963999999999942e+02
3.910000000000000000e+02,3.841932100000000219e+02
3.920000000000000000e+02,3.843871800000000007e+02
3.930000000000000000e+02,3.845825199999999882e+02
3.940000000000000000e+02,3.847767000000000053e+02
3.950000000000000000e+02,3.849702500000000214e+02
3.960000000000000000e+02,3.851632399999999734e+02
3.970000000000000000e+02,3.853567800000000148e+02
3.980000000000000000e+02,3.853060600000000022e+02
3.990000000000000000e+02,3.845134899999999902e+02
