# Time [s], Mass [Kg]
1.000000000000000000e+00,1.389829478398505735e-01
2.000000000000000000e+00,1.389829478397343610e-01
3.000000000000000000e+00,1.389829478395601114e-01
4.000000000000000000e+00,1.389829478392588802e-01
5.000000000000000000e+00,1.389829478387148431e-01
6.000000000000000000e+00,1.389829478377445082e-01
7.000000000000000000e+00,1.389829478360691262e-01
8.000000000000000000e+00,1.389829478332810508e-01
9.000000000000000000e+00,1.389829478288012177e-01
1.000000000000000000e+01,1.389829478218274350e-01
1.100000000000000000e+01,1.389829478112716565e-01
1.200000000000000000e+01,1.389829477956848469e-01
1.300000000000000000e+01,1.389829477731676366e-01
1.400000000000000000e+01,1.389829477412652670e-01
1.500000000000000000e+01,1.389829476968446331e-01
1.600000000000000000e+01,1.389829476359517313e-01
1.700000000000000000e+01,1.389829475536466519e-01
1.800000000000000000e+01,1.389829474438150081e-01
1.900000000000000000e+01,1.389829472989519976e-01
2.000000000000000000e+01,1.389829471099171543e-01
2.100000000000000000e+01,1.389829468656572642e-01
2.200000000000000000e+01,1.389829465528950869e-01
2.300000000000000000e+01,1.389829461557773316e-01
2.400000000000000000e+01,1.389829456554845244e-01
2.500000000000000000e+01,1.389829450297960789e-01
2.600000000000000000e+01,1.389829442526029912e-01
2.700000000000000000e+01,1.389829432933741837e-01
2.800000000000000000e+01,1.389829421165671430e-01
2.900000000000000000e+01,1.389829406809708900e-01
3.000000000000000000e+01,1.389829389389954095e-01
3.100000000000000000e+01,1.389829368358922457e-01
3.200000000000000000e+01,1.389829343088903046e-01
3.300000000000000000e+01,1.389829312862690958e-01
3.400000000000000000e+01,1.389829276863495944e-01
3.500000000000000000e+01,1.389829234163765526e-01
3.600000000000000000e+01,1.389829183713370830e-01
3.700000000000000000e+01,1.389829124326804888e-01
3.800000000000000000e+01,1.389829054668990926e-01
3.900000000000000000e+01,1.389828973240432863e-01
4.000000000000000000e+01,1.389828878361197007e-01
4.100000000000000000e+01,1.389828768153242022e-01
4.200000000000000000e+01,1.389828640522006997e-01
4.300000000000000000e+01,1.389828493136636978e-01
4.400000000000000000e+01,1.389828323408316968e-01
4.500000000000000000e+01,1.389828128467726909e-01
4.600000000000000000e+01,1.389827905140952058e-01
4.700000000000000000e+01,1.389827649923416897e-01
4.800000000000000000e+01,1.389827358952477054e-01
4.900000000000000000e+01,1.389827027978302043e-01
5.000000000000000000e+01,1.389826652332926959e-01
5.100000000000000000e+01,1.389826226897467043e-01
5.200000000000000000e+01,1.389825746067462064e-01
5.300000000000000000e+01,1.389825203716912039e-01
5.400000000000000000e+01,1.389824593159046939e-01
5.500000000000000000e+01,1.389823907105156853e-01
5.600000000000000000e+01,1.389823137624431881e-01
5.700000000000000000e+01,1.389822276096951970e-01
5.800000000000000000e+01,1.389821313164927019e-01
5.900000000000000000e+01,1.389820238690077092e-01
6.000000000000000000e+01,1.389819041697077096e-01
6.100000000000000000e+01,1.389817710315927046e-01
6.200000000000000000e+01,1.389816231740726993e-01
6.300000000000000000e+01,1.389814592160626971e-01
6.400000000000000000e+01,1.389812776691077001e-01
6.500000000000000000e+01,1.389810769340026897e-01
6.600000000000000000e+01,1.389808552923327001e-01
6.700000000000000000e+01,1.389806108982976907e-01
6.800000000000000000e+01,1.389803417772176863e-01
6.900000000000000000e+01,1.389800458147827100e-01
7.000000000000000000e+01,1.389797207470526985e-01
7.100000000000000000e+01,1.389793641629276932e-01
7.200000000000000000e+01,1.389789734900127027e-01
7.300000000000000000e+01,1.389785459820226943e-01
7.400000000000000000e+01,1.389780787284377039e-01
7.500000000000000000e+01,1.389775686352626993e-01
7.600000000000000000e+01,1.389770124086877057e-01
7.700000000000000000e+01,1.389764065770227042e-01
7.800000000000000000e+01,1.389757474634726875e-01
7.900000000000000000e+01,1.389750311640876868e-01
8.000000000000000000e+01,1.389742535893876973e-01
8.100000000000000000e+01,1.389734104252627056e-01
8.200000000000000000e+01,1.389724971025776967e-01
8.300000000000000000e+01,1.389715088697277001e-01
8.400000000000000000e+01,1.389704407348276993e-01
8.500000000000000000e+01,1.389692874222276942e-01
8.600000000000000000e+01,1.389680434928776964e-01
8.700000000000000000e+01,1.389667032578776884e-01
8.800000000000000000e+01,1.389652607148277041e-01
8.900000000000000000e+01,1.389637097398276899e-01
9.000000000000000000e+01,1.389620439579777045e-01
9.100000000000000000e+01,1.389602566493776947e-01
9.200000000000000000e+01,1.389583410457276846e-01
9.300000000000000000e+01,1.389562901365777037e-01
9.400000000000000000e+01,1.389540965305277043e-01
9.500000000000000000e+01,1.389517529002277096e-01
9.600000000000000000e+01,1.389492516966776836e-01
9.700000000000000000e+01,1.389465849461276881e-01
9.800000000000000000e+01,1.389437449019277071e-01
9.900000000000000000e+01,1.389407236271776869e-01
1.000000000000000000e+02,1.389375126996776899e-01
1.010000000000000000e+02,1.389341041476777061e-01
1.020000000000000000e+02,1.389304898489776841e-01
1.030000000000000000e+02,1.389266611088277037e-01
1.040000000000000000e+02,1.389226099749776844e-01
1.050000000000000000e+02,1.389183283881776920e-01
1.060000000000000000e+02,1.389138075893276980e-01
1.070000000000000000e+02,1.389090399304276913e-01
1.080000000000000000e+02,1.389040176959776829e-01
1.090000000000000000e+02,1.388987322862277052e-01
1.100000000000000000e+02,1.388931766597776840e-01
1.110000000000000000e+02,1.388873437343776940e-01
1.120000000000000000e+02,1.388812252879277065e-01
1.130000000000000000e+02,1.388748151884277027e-01
1.140000000000000000e+02,1.388681072655776894e-01
1.150000000000000000e+02,1.388610938621777091e-01
1.160000000000000000e+02,1.388537700263277053e-01
1.170000000000000000e+02,1.388461307376276932e-01
1.180000000000000000e+02,1.388381690393777068e-01
1.190000000000000000e+02,1.388298813756776995e-01
1.200000000000000000e+02,1.388212640523776853e-01
1.210000000000000000e+02,1.388123108813776874e-01
1.220000000000000000e+02,1.388030198483777011e-01
1.230000000000000000e+02,1.387933886880776957e-01
1.240000000000000000e+02,1.387834119748276862e-01
1.250000000000000000e+02,1.387730892973277064e-01
1.260000000000000000e+02,1.387624198403276943e-01
1.270000000000000000e+02,1.387513988653276964e-01
1.280000000000000000e+02,1.387400275548276996e-01
1.290000000000000000e+02,1.387283064973277025e-01
1.300000000000000000e+02,1.387162315083277087e-01
1.310000000000000000e+02,1.387038052858277082e-01
1.320000000000000000e+02,1.386910297143277015e-01
1.330000000000000000e+02,1.386779009903277016e-01
1.340000000000000000e+02,1.386644231983276965e-01
1.350000000000000000e+02,1.386505993718276930e-01
1.360000000000000000e+02,1.386364258968277030e-01
1.370000000000000000e+02,1.386219080853277053e-01
1.380000000000000000e+02,1.386070499513276932e-01
1.390000000000000000e+02,1.385918478783277064e-01
1.400000000000000000e+02,1.385763082278277103e-01
1.410000000000000000e+02,1.385604358168276984e-01
1.420000000000000000e+02,1.385442268518276843e-01
1.430000000000000000e+02,1.385276885738276897e-01
1.440000000000000000e+02,1.385108264373277054e-01
1.450000000000000000e+02,1.384936363188276898e-01
1.460000000000000000e+02,1.384761261763277074e-01
1.470000000000000000e+02,1.384583019498276946e-01
1.480000000000000000e+02,1.384401590643276891e-01
1.490000000000000000e+02,1.384217060473277028e-01
1.500000000000000000e+02,1.384029491928276956e-01
1.510000000000000000e+02,1.383838833853276995e-01
1.520000000000000000e+02,1.383645175953276962e-01
1.530000000000000000e+02,1.383448583608276883e-01
1.540000000000000000e+02,1.383248999663276857e-01
1.550000000000000000e+02,1.383046517153276866e-01
1.560000000000000000e+02,1.382841202988276952e-01
1.570000000000000000e+02,1.382632993698277024e-01
1.580000000000000000e+02,1.382421984783276936e-01
1.590000000000000000e+02,1.382208244003277076e-01
1.600000000000000000e+02,1.381991701468276990e-01
1.610000000000000000e+02,1.381772454423277063e-01
1.620000000000000000e+02,1.381550570933277045e-01
1.630000000000000000e+02,1.381325974768276843e-01
1.640000000000000000e+02,1.381098764323276940e-01
1.650000000000000000e+02,1.380869007568276963e-01
1.660000000000000000e+02,1.380636622158276927e-01
1.670000000000000000e+02,1.380401707158276925e-01
1.680000000000000000e+02,1.380164330153277052e-01
1.690000000000000000e+02,1.379924403013277068e-01
1.700000000000000000e+02,1.379682025063276862e-01
1.710000000000000000e+02,1.379437263263277036e-01
1.720000000000000000e+02,1.379190024108276902e-01
1.730000000000000000e+02,1.378940406898276905e-01
1.740000000000000000e+02,1.378688477828277081e-01
1.750000000000000000e+02,1.378434138463277003e-01
1.760000000000000000e+02,1.378177487813276869e-01
1.770000000000000000e+02,1.377918591208276977e-01
1.780000000000000000e+02,1.377657345758276919e-01
1.790000000000000000e+02,1.377393849953277016e-01
1.800000000000000000e+02,1.377128168183276991e-01
1.810000000000000000e+02,1.376860193593276993e-01
1.820000000000000000e+02,1.376590023978276900e-01
1.830000000000000000e+02,1.376317722748277017e-01
1.840000000000000000e+02,1.376043179568277042e-01
1.850000000000000000e+02,1.375766491353276888e-01
1.860000000000000000e+02,1.375487720488277055e-01
1.870000000000000000e+02,1.375206753648277047e-01
1.880000000000000000e+02,1.374923686753276864e-01
1.890000000000000000e+02,1.374638581158277029e-01
1.900000000000000000e+02,1.374351321003277060e-01
1.910000000000000000e+02,1.374062001083276863e-01
1.920000000000000000e+02,1.373770681718277098e-01
1.930000000000000000e+02,1.373477244963277055e-01
1.940000000000000000e+02,1.373181784363277091e-01
1.950000000000000000e+02,1.372884359193276838e-01
1.960000000000000000e+02,1.372584849853276945e-01
1.970000000000000000e+02,1.372283348553277049e-01
1.980000000000000000e+02,1.371979913523276862e-01
1.990000000000000000e+02,1.371674423908277041e-01
2.000000000000000000e+02,1.371366970478276881e-01
2.010000000000000000e+02,1.371057610408276950e-01
2.020000000000000000e+02,1.370746221968277001e-01
2.030000000000000000e+02,1.370432894423276871e-01
2.040000000000000000e+02,1.370117683908277095e-01
2.050000000000000000e+02,1.369800468168276830e-01
2.060000000000000000e+02,1.369481334888277002e-01
2.070000000000000000e+02,1.369160339168276896e-01
2.080000000000000000e+02,1.368837358568276985e-01
2.090000000000000000e+02,1.368512479123276948e-01
2.100000000000000000e+02,1.368185754898277040e-01
2.110000000000000000e+02,1.367857063578276910e-01
2.120000000000000000e+02,1.367526489503277098e-01
2.130000000000000000e+02,1.367194085713276941e-01
2.140000000000000000e+02,1.366859730303277010e-01
2.150000000000000000e+02,1.366523505858276977e-01
2.160000000000000000e+02,1.366185464393276927e-01
2.170000000000000000e+02,1.365845484688276990e-01
2.180000000000000000e+02,1.365503647548277077e-01
2.190000000000000000e+02,1.365160003988276916e-01
2.200000000000000000e+02,1.364814433723277043e-01
2.210000000000000000e+02,1.364467015743277001e-01
2.220000000000000000e+02,1.364117800068276876e-01
2.230000000000000000e+02,1.363766667578276970e-01
2.240000000000000000e+02,1.363413695438276951e-01
2.250000000000000000e+02,1.363058932688276936e-01
2.260000000000000000e+02,1.362702261593276842e-01
2.270000000000000000e+02,1.362343757483276963e-01
2.280000000000000000e+02,1.361983468438277001e-01
2.290000000000000000e+02,1.361621278303276894e-01
2.300000000000000000e+02,1.361257260563276950e-01
2.310000000000000000e+02,1.360891462363277016e-01
2.320000000000000000e+02,1.360523769323276899e-01
2.330000000000000000e+02,1.360154253103277033e-01
2.340000000000000000e+02,1.359782959943277025e-01
2.350000000000000000e+02,1.359409777408276954e-01
2.360000000000000000e+02,1.359034775348277047e-01
2.370000000000000000e+02,1.358657999128277116e-01
2.380000000000000000e+02,1.358279338423276916e-01
2.390000000000000000e+02,1.357898861308277083e-01
2.400000000000000000e+02,1.357516612308276860e-01
2.410000000000000000e+02,1.357132483348277019e-01
2.420000000000000000e+02,1.356746540768276887e-01
2.430000000000000000e+02,1.356358828303277086e-01
2.440000000000000000e+02,1.355969240273277032e-01
2.450000000000000000e+02,1.355577841323276911e-01
2.460000000000000000e+02,1.355184674438277004e-01
2.470000000000000000e+02,1.354789636463276936e-01
2.480000000000000000e+02,1.354392790408276981e-01
2.490000000000000000e+02,1.353994178563276973e-01
2.500000000000000000e+02,1.353593700418276868e-01
2.510000000000000000e+02,1.353191417418276865e-01
2.520000000000000000e+02,1.352787371213277079e-01
2.530000000000000000e+02,1.352381464048277027e-01
2.540000000000000000e+02,1.351973755868277061e-01
2.550000000000000000e+02,1.351564287743277082e-01
2.560000000000000000e+02,1.351152964778276899e-01
2.570000000000000000e+02,1.350739845498276914e-01
2.580000000000000000e+02,1.350324970458277041e-01
2.590000000000000000e+02,1.349908247713277054e-01
2.600000000000000000e+02,1.349489734438276967e-01
2.610000000000000000e+02,1.349069470738276932e-01
2.620000000000000000e+02,1.348647367708276923e-01
2.630000000000000000e+02,1.348223481263277068e-01
2.640000000000000000e+02,1.347797851123276880e-01
2.650000000000000000e+02,1.347370391498277087e-01
2.660000000000000000e+02,1.346941157138276945e-01
2.670000000000000000e+02,1.346510187443276940e-01
2.680000000000000000e+02,1.346077399803276842e-01
2.690000000000000000e+02,1.345642847888277038e-01
2.700000000000000000e+02,1.345206570833276938e-01
2.710000000000000000e+02,1.344768489263276912e-01
2.720000000000000000e+02,1.344328655868277100e-01
2.730000000000000000e+02,1.343887109593276952e-01
2.740000000000000000e+02,1.343443774333276941e-01
2.750000000000000000e+02,1.342998701863276911e-01
2.760000000000000000e+02,1.342551930988276909e-01
2.770000000000000000e+02,1.342103388918277074e-01
2.780000000000000000e+02,1.341653126603276902e-01
2.790000000000000000e+02,1.341201182768276823e-01
2.800000000000000000e+02,1.340747487958277029e-01
2.810000000000000000e+02,1.340292092373276955e-01
2.820000000000000000e+02,1.339835034698277083e-01
2.830000000000000000e+02,1.339376248813276826e-01
2.840000000000000000e+02,1.338915784243276952e-01
2.850000000000000000e+02,1.338453679668276941e-01
2.860000000000000000e+02,1.337989872298276928e-01
2.870000000000000000e+02,1.337524411043276851e-01
2.880000000000000000e+02,1.337057334613276915e-01
2.890000000000000000e+02,1.336588583528277030e-01
2.900000000000000000e+02,1.336118206123277086e-01
2.910000000000000000e+02,1.335646241148276958e-01
2.920000000000000000e+02,1.335172632393276937e-01
2.930000000000000000e+02,1.334697427673277037e-01
2.940000000000000000e+02,1.334220665798276917e-01
2.950000000000000000e+02,1.333742293773277077e-01
2.960000000000000000e+02,1.333262358913276935e-01
2.970000000000000000e+02,1.332780900083276876e-01
2.980000000000000000e+02,1.332297867443276995e-01
2.990000000000000000e+02,1.331813307828277060e-01
3.000000000000000000e+02,1.331327260143276847e-01
3.010000000000000000e+02,1.330839677623276984e-01
3.020000000000000000e+02,1.330350606628276922e-01
3.030000000000000000e+02,1.329860086078276937e-01
3.040000000000000000e+02,1.329368072183277072e-01
3.050000000000000000e+02,1.328874610818276958e-01
3.060000000000000000e+02,1.328379740878276871e-01
3.070000000000000000e+02,1.327883421443276923e-01
3.080000000000000000e+02,1.327385697893276872e-01
3.090000000000000000e+02,1.326886609058277045e-01
3.100000000000000000e+02,1.326386116773276835e-01
3.110000000000000000e+02,1.325884265898276959e-01
3.120000000000000000e+02,1.325381095143277066e-01
3.130000000000000000e+02,1.324876568958276990e-01
3.140000000000000000e+02,1.324370731648276955e-01
3.150000000000000000e+02,1.323863621743276986e-01
3.160000000000000000e+02,1.323355206178276899e-01
3.170000000000000000e+02,1.322845528663277037e-01
3.180000000000000000e+02,1.322334627473276958e-01
3.190000000000000000e+02,1.321822471883276895e-01
3.200000000000000000e+02,1.321309104953276858e-01
3.210000000000000000e+02,1.320794564623276879e-01
3.220000000000000000e+02,1.320278822363276927e-01
3.230000000000000000e+02,1.319761920533276955e-01
3.240000000000000000e+02,1.319243896668277072e-01
3.250000000000000000e+02,1.318724724283276972e-01
3.260000000000000000e+02,1.318204444983276935e-01
3.270000000000000000e+02,1.317683095823276862e-01
3.280000000000000000e+02,1.317160652203276938e-01
3.290000000000000000e+02,1.316637154913276875e-01
3.300000000000000000e+02,1.316112640453276916e-01
3.310000000000000000e+02,1.315587085958276892e-01
3.320000000000000000e+02,1.315060531343276995e-01
3.330000000000000000e+02,1.314533012478276974e-01
3.340000000000000000e+02,1.314004508083276845e-01
3.350000000000000000e+02,1.313475057138276947e-01
3.360000000000000000e+02,1.312944694798277023e-01
3.370000000000000000e+02,1.312413401223276876e-01
3.380000000000000000e+02,1.311881214418277042e-01
3.390000000000000000e+02,1.311348168768277089e-01
3.400000000000000000e+02,1.310814245733276928e-01
3.410000000000000000e+02,1.310279482278277063e-01
3.420000000000000000e+02,1.309743911948277051e-01
3.430000000000000000e+02,1.309207517373277008e-01
3.440000000000000000e+02,1.308670334443277072e-01
3.450000000000000000e+02,1.308132395808276893e-01
3.460000000000000000e+02,1.307593685143276785e-01
3.470000000000000000e+02,1.307054237223276849e-01
3.480000000000000000e+02,1.306514083748276933e-01
3.490000000000000000e+02,1.305973209313276984e-01
3.500000000000000000e+02,1.305431647548276897e-01
3.510000000000000000e+02,1.304889429158276881e-01
3.520000000000000000e+02,1.304346539553276896e-01
3.530000000000000000e+02,1.303803011193276906e-01
3.540000000000000000e+02,1.303258873753276870e-01
3.550000000000000000e+02,1.302714113358277026e-01
3.560000000000000000e+02,1.302168761278277020e-01
3.570000000000000000e+02,1.301622846138277001e-01
3.580000000000000000e+02,1.301076354688276981e-01
3.590000000000000000e+02,1.300529316998276785e-01
3.600000000000000000e+02,1.299981760618276749e-01
3.610000000000000000e+02,1.299433672838276876e-01
3.620000000000000000e+02,1.298885082513276945e-01
3.630000000000000000e+02,1.298336016108276869e-01
3.640000000000000000e+02,1.297786461388276968e-01
3.650000000000000000e+02,1.297236445998276866e-01
3.660000000000000000e+02,1.296685995303276939e-01
3.670000000000000000e+02,1.296135097473276876e-01
3.680000000000000000e+02,1.295583778958276922e-01
3.690000000000000000e+02,1.295032064028276975e-01
3.700000000000000000e+02,1.294479941203277029e-01
3.710000000000000000e+02,1.293927435748276900e-01
3.720000000000000000e+02,1.293374570843277005e-01
3.730000000000000000e+02,1.292821335308276809e-01
3.740000000000000000e+02,1.292267753243276918e-01
3.750000000000000000e+02,1.291713846753276829e-01
3.760000000000000000e+02,1.291159604918276915e-01
3.770000000000000000e+02,1.290605050688276856e-01
3.780000000000000000e+02,1.290050205108276837e-01
3.790000000000000000e+02,1.289495057488276863e-01
3.800000000000000000e+02,1.288939629653276797e-01
3.810000000000000000e+02,1.288383941608276795e-01
3.820000000000000000e+02,1.287827982858276987e-01
3.830000000000000000e+02,1.287271774138276925e-01
3.840000000000000000e+02,1.286715334443276904e-01
3.850000000000000000e+02,1.286158653443276734e-01
3.860000000000000000e+02,1.285601750818276823e-01
3.870000000000000000e+02,1.285044644583276940e-01
3.880000000000000000e+02,1.284487324563276800e-01
3.890000000000000000e+02,1.283929809413276724e-01
3.900000000000000000e+02,1.283372116193276791e-01
3.910000000000000000e+02,1.282814234868276948e-01
3.920000000000000000e+02,1.282256183103276936e-01
3.930000000000000000e+02,1.281697977038276925e-01
3.940000000000000000e+02,1.281139606768276762e-01
3.950000000000000000e+02,1.280581089008276940e-01
3.960000000000000000e+02,1.280022439003276891e-01
3.970000000000000000e+02,1.279463646963276968e-01
3.980000000000000000e+02,1.278904728698276871e-01
3.990000000000000000e+02,1.278345698603276792e-01
