# Time [s], Mass [Kg]
1.000000000000000000e+00,1.389829478400000096e-01
2.000000000000000000e+00,1.389829478399999263e-01
3.000000000000000000e+00,1.389829478399570162e-01
4.000000000000000000e+00,1.389829478375175509e-01
5.000000000000000000e+00,1.389829477912097044e-01
6.000000000000000000e+00,1.389829473304639296e-01
7.000000000000000000e+00,1.389829443462766989e-01
8.000000000000000000e+00,1.389829300996550665e-01
9.000000000000000000e+00,1.389828756226940687e-01
1.000000000000000000e+01,1.389826980273870527e-01
1.100000000000000000e+01,1.389821864482570501e-01
1.200000000000000000e+01,1.389808796701420546e-01
1.300000000000000000e+01,1.389779106457920688e-01
1.400000000000000000e+01,1.389718106905920569e-01
1.500000000000000000e+01,1.389602699611420522e-01
1.600000000000000000e+01,1.389399097001420558e-01
1.700000000000000000e+01,1.389061725501420652e-01
1.800000000000000000e+01,1.388535356721420644e-01
1.900000000000000000e+01,1.387761820831420467e-01
2.000000000000000000e+01,1.386690156161420606e-01
2.100000000000000000e+01,1.385293754461420501e-01
2.200000000000000000e+01,1.383584629261420673e-01
2.300000000000000000e+01,1.381611763111420532e-01
2.400000000000000000e+01,1.379476661261420656e-01
2.500000000000000000e+01,1.377329110911420518e-01
2.600000000000000000e+01,1.375337919361420691e-01
2.700000000000000000e+01,1.373699694861420517e-01
2.800000000000000000e+01,1.372543288586420551e-01
2.900000000000000000e+01,1.371662688566420429e-01
3.000000000000000000e+01,1.370670098371420675e-01
3.100000000000000000e+01,1.369414133871420525e-01
3.200000000000000000e+01,1.367926797921420468e-01
3.300000000000000000e+01,1.366260008721420505e-01
3.400000000000000000e+01,1.364482090521420554e-01
3.500000000000000000e+01,1.362672743421420585e-01
3.600000000000000000e+01,1.360916628771420556e-01
3.700000000000000000e+01,1.359296243271420623e-01
3.800000000000000000e+01,1.357877860471420617e-01
3.900000000000000000e+01,1.356688746771420595e-01
4.000000000000000000e+01,1.355688503006420575e-01
4.100000000000000000e+01,1.354761691451420447e-01
4.200000000000000000e+01,1.353765601661420515e-01
4.300000000000000000e+01,1.352627705861420560e-01
4.400000000000000000e+01,1.351357199961420452e-01
4.500000000000000000e+01,1.349984299211420546e-01
4.600000000000000000e+01,1.348544708811420523e-01
4.700000000000000000e+01,1.347077564411420514e-01
4.800000000000000000e+01,1.345622843311420624e-01
4.900000000000000000e+01,1.344218916611420456e-01
5.000000000000000000e+01,1.342898937611420596e-01
5.100000000000000000e+01,1.341686068811420440e-01
5.200000000000000000e+01,1.340587631711420702e-01
5.300000000000000000e+01,1.339589634931420692e-01
5.400000000000000000e+01,1.338655378526420470e-01
5.500000000000000000e+01,1.337733178406420587e-01
5.600000000000000000e+01,1.336773488581420588e-01
5.700000000000000000e+01,1.335746519451420644e-01
5.800000000000000000e+01,1.334647608301420540e-01
5.900000000000000000e+01,1.333489112151420575e-01
6.000000000000000000e+01,1.332289703951420601e-01
6.100000000000000000e+01,1.331069324951420496e-01
6.200000000000000000e+01,1.329848064851420486e-01
6.300000000000000000e+01,1.328645125101420577e-01
6.400000000000000000e+01,1.327477633301420434e-01
6.500000000000000000e+01,1.326359292001420553e-01
6.600000000000000000e+01,1.325298795301420585e-01
6.700000000000000000e+01,1.324298270256420440e-01
6.800000000000000000e+01,1.323352153396420428e-01
6.900000000000000000e+01,1.322447106536420447e-01
7.000000000000000000e+01,1.321563706196420551e-01
7.100000000000000000e+01,1.320680121506420668e-01
7.200000000000000000e+01,1.319776937556420560e-01
7.300000000000000000e+01,1.318841355306420438e-01
7.400000000000000000e+01,1.317869020531420576e-01
7.500000000000000000e+01,1.316863035051420439e-01
7.600000000000000000e+01,1.315831320751420508e-01
7.700000000000000000e+01,1.314784011151420573e-01
7.800000000000000000e+01,1.313731746451420601e-01
7.900000000000000000e+01,1.312684774801420595e-01
8.000000000000000000e+01,1.311652417701420492e-01
8.100000000000000000e+01,1.310642578356420451e-01
8.200000000000000000e+01,1.309661214166420451e-01
8.300000000000000000e+01,1.308711825546420571e-01
8.400000000000000000e+01,1.307795018601420611e-01
8.500000000000000000e+01,1.306908252336420606e-01
8.600000000000000000e+01,1.306045923451420454e-01
8.700000000000000000e+01,1.305199900561420656e-01
8.800000000000000000e+01,1.304360544051420545e-01
8.900000000000000000e+01,1.303518109566420557e-01
9.000000000000000000e+01,1.302664248881420517e-01
9.100000000000000000e+01,1.301793226491420596e-01
9.200000000000000000e+01,1.300902541311420579e-01
9.300000000000000000e+01,1.299992849666420647e-01
9.400000000000000000e+01,1.299067332451420420e-01
9.500000000000000000e+01,1.298130807876420600e-01
9.600000000000000000e+01,1.297188875091420668e-01
9.700000000000000000e+01,1.296247241341420553e-01
9.800000000000000000e+01,1.295311254476420593e-01
9.900000000000000000e+01,1.294385580631420563e-01
1.000000000000000000e+02,1.293473952451420494e-01
1.010000000000000000e+02,1.292578953756420568e-01
1.020000000000000000e+02,1.291701841181420451e-01
1.030000000000000000e+02,1.290842422191420535e-01
1.040000000000000000e+02,1.289999027796420450e-01
1.050000000000000000e+02,1.289168617276420514e-01
1.060000000000000000e+02,1.288347036846420601e-01
1.070000000000000000e+02,1.287529434696420561e-01
1.080000000000000000e+02,1.286710798436420666e-01
1.090000000000000000e+02,1.285886539726420474e-01
1.100000000000000000e+02,1.285053027571420592e-01
1.110000000000000000e+02,1.284207973071420650e-01
1.120000000000000000e+02,1.283350598081420546e-01
1.130000000000000000e+02,1.282481575071420521e-01
1.140000000000000000e+02,1.281602781046420614e-01
1.150000000000000000e+02,1.280716940346420529e-01
1.160000000000000000e+02,1.279827237191420441e-01
1.170000000000000000e+02,1.278936961031420516e-01
1.180000000000000000e+02,1.278049214811420586e-01
1.190000000000000000e+02,1.277166690096420698e-01
1.200000000000000000e+02,1.276291499946420605e-01
1.210000000000000000e+02,1.275425056541420465e-01
1.220000000000000000e+02,1.274567987206420561e-01
1.230000000000000000e+02,1.273720092681420724e-01
1.240000000000000000e+02,1.272880356496420562e-01
1.250000000000000000e+02,1.272047016036420564e-01
1.260000000000000000e+02,1.271217703191420689e-01
1.270000000000000000e+02,1.270389652511420553e-01
1.280000000000000000e+02,1.269559962571420453e-01
1.290000000000000000e+02,1.268725884006420557e-01
1.300000000000000000e+02,1.267885096961420544e-01
1.310000000000000000e+02,1.267035937691420588e-01
1.320000000000000000e+02,1.266177541276420626e-01
1.330000000000000000e+02,1.265309881851420515e-01
1.340000000000000000e+02,1.264433710521420673e-01
1.350000000000000000e+02,1.263550409871420643e-01
1.360000000000000000e+02,1.262661795356420646e-01
1.370000000000000000e+02,1.261769896086420706e-01
1.380000000000000000e+02,1.260876743481420537e-01
1.390000000000000000e+02,1.259984186956420726e-01
1.400000000000000000e+02,1.259093745691420574e-01
1.410000000000000000e+02,1.258206499126420519e-01
1.420000000000000000e+02,1.257323015391420551e-01
1.430000000000000000e+02,1.256443316651420505e-01
1.440000000000000000e+02,1.255566882286420494e-01
1.450000000000000000e+02,1.254692691826420625e-01
1.460000000000000000e+02,1.253819308766420670e-01
1.470000000000000000e+02,1.252945003666420531e-01
1.480000000000000000e+02,1.252067909691420566e-01
1.490000000000000000e+02,1.251186197191420657e-01
1.500000000000000000e+02,1.250298248676420532e-01
1.510000000000000000e+02,1.249402812751420622e-01
1.520000000000000000e+02,1.248499116441420531e-01
1.530000000000000000e+02,1.247586920866420590e-01
1.540000000000000000e+02,1.246666514036420537e-01
1.550000000000000000e+02,1.245738644296420644e-01
1.560000000000000000e+02,1.244804406641420585e-01
1.570000000000000000e+02,1.243865099846420547e-01
1.580000000000000000e+02,1.242922073766420665e-01
1.590000000000000000e+02,1.241976584091420560e-01
1.600000000000000000e+02,1.241029667891420663e-01
1.610000000000000000e+02,1.240082048261420544e-01
1.620000000000000000e+02,1.239134072326420616e-01
1.630000000000000000e+02,1.238185684376420653e-01
1.640000000000000000e+02,1.237236433946420633e-01
1.650000000000000000e+02,1.236285517771420622e-01
1.660000000000000000e+02,1.235331853311420619e-01
1.670000000000000000e+02,1.234374179001420657e-01
1.680000000000000000e+02,1.233411173441420622e-01
1.690000000000000000e+02,1.232441582401420654e-01
1.700000000000000000e+02,1.231464339681420661e-01
1.710000000000000000e+02,1.230478667016420558e-01
1.720000000000000000e+02,1.229484139961420641e-01
1.730000000000000000e+02,1.228480710931420666e-01
1.740000000000000000e+02,1.227468686581420637e-01
1.750000000000000000e+02,1.226448663781420645e-01
1.760000000000000000e+02,1.225421433881420663e-01
1.770000000000000000e+02,1.224387868781420668e-01
1.780000000000000000e+02,1.223348803781420663e-01
1.790000000000000000e+02,1.222304930781420579e-01
1.800000000000000000e+02,1.221256712931420574e-01
1.810000000000000000e+02,1.220204328031420649e-01
1.820000000000000000e+02,1.219147644381420592e-01
1.830000000000000000e+02,1.218086229881420596e-01
1.840000000000000000e+02,1.217019392481420714e-01
1.850000000000000000e+02,1.215946247231420585e-01
1.860000000000000000e+02,1.214865803331420663e-01
1.870000000000000000e+02,1.213777061981420602e-01
1.880000000000000000e+02,1.212679113981420670e-01
1.890000000000000000e+02,1.211571225531420659e-01
1.900000000000000000e+02,1.210452900881420629e-01
1.910000000000000000e+02,1.209323913181420684e-01
1.920000000000000000e+02,1.208184299581420706e-01
1.930000000000000000e+02,1.207034321581420683e-01
1.940000000000000000e+02,1.205874396381420577e-01
1.950000000000000000e+02,1.204705009931420628e-01
1.960000000000000000e+02,1.203526623931420736e-01
1.970000000000000000e+02,1.202339589381420659e-01
1.980000000000000000e+02,1.201144077881420580e-01
1.990000000000000000e+02,1.199940038431420719e-01
2.000000000000000000e+02,1.198727184231420662e-01
2.010000000000000000e+02,1.197505009731420628e-01
2.020000000000000000e+02,1.196272834881420694e-01
2.030000000000000000e+02,1.195029870231420627e-01
2.040000000000000000e+02,1.193775294131420583e-01
2.050000000000000000e+02,1.192508332081420597e-01
2.060000000000000000e+02,1.191228327281420585e-01
2.070000000000000000e+02,1.189934792531420621e-01
2.080000000000000000e+02,1.188627436531420611e-01
2.090000000000000000e+02,1.187306161031420615e-01
2.100000000000000000e+02,1.185971029481420608e-01
2.110000000000000000e+02,1.184622212781420714e-01
2.120000000000000000e+02,1.183259921381420721e-01
2.130000000000000000e+02,1.181884334481420606e-01
2.140000000000000000e+02,1.180495537331420625e-01
2.150000000000000000e+02,1.179093476331420642e-01
2.160000000000000000e+02,1.177677938031420624e-01
2.170000000000000000e+02,1.176248554681420672e-01
2.180000000000000000e+02,1.174804834581420626e-01
2.190000000000000000e+02,1.173346211831420571e-01
2.200000000000000000e+02,1.171872107431420618e-01
2.210000000000000000e+02,1.170381991931420673e-01
2.220000000000000000e+02,1.168875439981420655e-01
2.230000000000000000e+02,1.167352168481420593e-01
2.240000000000000000e+02,1.165812052781420582e-01
2.250000000000000000e+02,1.164255118981420700e-01
2.260000000000000000e+02,1.162681514931420690e-01
2.270000000000000000e+02,1.161091465931420597e-01
2.280000000000000000e+02,1.159485223431420686e-01
2.290000000000000000e+02,1.157863016631420633e-01
2.300000000000000000e+02,1.156225015431420616e-01
2.310000000000000000e+02,1.154571311181420701e-01
2.320000000000000000e+02,1.152901918431420702e-01
2.330000000000000000e+02,1.151216796331420711e-01
2.340000000000000000e+02,1.149515885531420673e-01
2.350000000000000000e+02,1.147799152981420628e-01
2.360000000000000000e+02,1.146066636531420657e-01
2.370000000000000000e+02,1.144318481031420670e-01
2.380000000000000000e+02,1.142554959481420634e-01
2.390000000000000000e+02,1.140776476531420724e-01
2.400000000000000000e+02,1.138983554031420681e-01
2.410000000000000000e+02,1.137176802631420652e-01
2.420000000000000000e+02,1.135356885681420569e-01
2.430000000000000000e+02,1.133524482831420599e-01
2.440000000000000000e+02,1.131680260581420655e-01
2.450000000000000000e+02,1.129824854831420616e-01
2.460000000000000000e+02,1.127958868431420680e-01
2.470000000000000000e+02,1.126082882931420670e-01
2.480000000000000000e+02,1.124197480881420630e-01
2.490000000000000000e+02,1.122303272931420570e-01
2.500000000000000000e+02,1.120400923081420613e-01
2.510000000000000000e+02,1.118491166681420679e-01
2.520000000000000000e+02,1.116574816931420605e-01
2.530000000000000000e+02,1.114652758881420624e-01
2.540000000000000000e+02,1.112725932331420642e-01
2.550000000000000000e+02,1.110795307731420600e-01
2.560000000000000000e+02,1.108861860431420571e-01
2.570000000000000000e+02,1.106926548281420564e-01
2.580000000000000000e+02,1.104990297131420579e-01
2.590000000000000000e+02,1.103053996031420625e-01
2.600000000000000000e+02,1.101118502031420560e-01
2.610000000000000000e+02,1.099184652381420546e-01
2.620000000000000000e+02,1.097253279931420522e-01
2.630000000000000000e+02,1.095325227281420677e-01
2.640000000000000000e+02,1.093401356231420568e-01
2.650000000000000000e+02,1.091482549931420687e-01
2.660000000000000000e+02,1.089569707631420636e-01
2.670000000000000000e+02,1.087663733881420597e-01
2.680000000000000000e+02,1.085765524731420600e-01
2.690000000000000000e+02,1.083875954681420561e-01
2.700000000000000000e+02,1.081995867431420622e-01
2.710000000000000000e+02,1.080126072531420595e-01
2.720000000000000000e+02,1.078267348031420603e-01
2.730000000000000000e+02,1.076420447981420586e-01
2.740000000000000000e+02,1.074586112881420613e-01
2.750000000000000000e+02,1.072765079931420618e-01
2.760000000000000000e+02,1.070958090781420624e-01
2.770000000000000000e+02,1.069165895431420654e-01
2.780000000000000000e+02,1.067389251931420702e-01
2.790000000000000000e+02,1.065628922981420590e-01
2.800000000000000000e+02,1.063885671331420701e-01
2.810000000000000000e+02,1.062160255831420541e-01
2.820000000000000000e+02,1.060453429981420559e-01
2.830000000000000000e+02,1.058765943931420650e-01
2.840000000000000000e+02,1.057098549831420597e-01
2.850000000000000000e+02,1.055452009531420710e-01
2.860000000000000000e+02,1.053827103031420576e-01
2.870000000000000000e+02,1.052224636281420544e-01
2.880000000000000000e+02,1.050645447231420559e-01
2.890000000000000000e+02,1.049090409731420620e-01
2.900000000000000000e+02,1.047560435531420531e-01
2.910000000000000000e+02,1.046056475481420556e-01
2.920000000000000000e+02,1.044579521331420596e-01
2.930000000000000000e+02,1.043130608731420578e-01
2.940000000000000000e+02,1.041710822131420577e-01
2.950000000000000000e+02,1.040321301831420575e-01
2.960000000000000000e+02,1.038963252031420564e-01
2.970000000000000000e+02,1.037637948981420533e-01
2.980000000000000000e+02,1.036346748681420543e-01
2.990000000000000000e+02,1.035091093231420567e-01
3.000000000000000000e+02,1.033872515731420472e-01
3.010000000000000000e+02,1.032692643731420445e-01
3.020000000000000000e+02,1.031553201731420510e-01
3.030000000000000000e+02,1.030456012831420520e-01
3.040000000000000000e+02,1.029402999081420467e-01
3.050000000000000000e+02,1.028396179591420517e-01
3.060000000000000000e+02,1.027437664466420431e-01
3.070000000000000000e+02,1.026529642606420489e-01
3.080000000000000000e+02,1.025674360401420404e-01
3.090000000000000000e+02,1.024874088081420553e-01
3.100000000000000000e+02,1.024131070201420579e-01
3.110000000000000000e+02,1.023447456066420569e-01
3.120000000000000000e+02,1.022825205326420572e-01
3.130000000000000000e+02,1.022265963661420501e-01
3.140000000000000000e+02,1.021770904146420411e-01
3.150000000000000000e+02,1.021340532501420484e-01
3.160000000000000000e+02,1.020974460371420478e-01
3.170000000000000000e+02,1.020671161586420572e-01
3.180000000000000000e+02,1.020427742301420471e-01
3.190000000000000000e+02,1.020239776096420470e-01
3.200000000000000000e+02,1.020101273846420464e-01
3.210000000000000000e+02,1.020004863810420465e-01
3.220000000000000000e+02,1.019942233898420425e-01
3.230000000000000000e+02,1.019904822364920416e-01
3.240000000000000000e+02,1.019884642449920553e-01
3.250000000000000000e+02,1.019875033259070585e-01
3.260000000000000000e+02,1.019871110755970478e-01
3.270000000000000000e+02,1.019869792333130548e-01
3.280000000000000000e+02,1.019869448778750465e-01
3.290000000000000000e+02,1.019869386157702118e-01
3.300000000000000000e+02,1.019869379754019534e-01
3.310000000000000000e+02,1.019869379595095549e-01
3.320000000000000000e+02,1.019869379595095549e-01
3.330000000000000000e+02,1.019869379595095549e-01
3.340000000000000000e+02,1.019869379595095549e-01
3.350000000000000000e+02,1.019869379595095549e-01
3.360000000000000000e+02,1.019869379595095549e-01
3.370000000000000000e+02,1.019869379595095549e-01
3.380000000000000000e+02,1.019869379595095549e-01
3.390000000000000000e+02,1.019869379595095549e-01
3.400000000000000000e+02,1.019869379595095549e-01
3.410000000000000000e+02,1.019869379595095549e-01
3.420000000000000000e+02,1.019869379595095549e-01
3.430000000000000000e+02,1.019869379595095549e-01
3.440000000000000000e+02,1.019869379595095549e-01
3.450000000000000000e+02,1.019869379595095549e-01
3.460000000000000000e+02,1.019869379595095549e-01
3.470000000000000000e+02,1.019869379595095549e-01
3.480000000000000000e+02,1.019869379595095549e-01
3.490000000000000000e+02,1.019869379595095549e-01
3.500000000000000000e+02,1.019869379595095549e-01
3.510000000000000000e+02,1.019869379595095549e-01
3.520000000000000000e+02,1.019869379595095549e-01
3.530000000000000000e+02,1.019869379595095549e-01
3.540000000000000000e+02,1.019869379595095549e-01
3.550000000000000000e+02,1.019869379595095549e-01
3.560000000000000000e+02,1.019869379595095549e-01
3.570000000000000000e+02,1.019869379595095549e-01
3.580000000000000000e+02,1.019869379595095549e-01
3.590000000000000000e+02,1.019869379595095549e-01
3.600000000000000000e+02,1.019869379595095549e-01
3.610000000000000000e+02,1.019869379595095549e-01
3.620000000000000000e+02,1.019869379595095549e-01
3.630000000000000000e+02,1.019869379595095549e-01
3.640000000000000000e+02,1.019869379595095549e-01
3.650000000000000000e+02,1.019869379595095549e-01
3.660000000000000000e+02,1.019869379595095549e-01
3.670000000000000000e+02,1.019869379595095549e-01
3.680000000000000000e+02,1.019869379595095549e-01
3.690000000000000000e+02,1.019869379595095549e-01
3.700000000000000000e+02,1.019869379595095549e-01
3.710000000000000000e+02,1.019869379595095549e-01
3.720000000000000000e+02,1.019869379595095549e-01
3.730000000000000000e+02,1.019869379595095549e-01
3.740000000000000000e+02,1.019869379595095549e-01
3.750000000000000000e+02,1.019869379595095549e-01
3.760000000000000000e+02,1.019869379595095549e-01
3.770000000000000000e+02,1.019869379595095549e-01
3.780000000000000000e+02,1.019869379595095549e-01
3.790000000000000000e+02,1.019869379595095549e-01
3.800000000000000000e+02,1.019869379595095549e-01
3.810000000000000000e+02,1.019869379595095549e-01
3.820000000000000000e+02,1.019869379595095549e-01
3.830000000000000000e+02,1.019869379595095549e-01
3.840000000000000000e+02,1.019869379595095549e-01
3.850000000000000000e+02,1.019869379595095549e-01
3.860000000000000000e+02,1.019869379595095549e-01
3.870000000000000000e+02,1.019869379595095549e-01
3.880000000000000000e+02,1.019869379595095549e-01
3.890000000000000000e+02,1.019869379595095549e-01
3.900000000000000000e+02,1.019869379595095549e-01
3.910000000000000000e+02,1.019869379595095549e-01
3.920000000000000000e+02,1.019869379595095549e-01
3.930000000000000000e+02,1.019869379595095549e-01
3.940000000000000000e+02,1.019869379595095549e-01
3.950000000000000000e+02,1.019869379595095549e-01
3.960000000000000000e+02,1.019869379595095549e-01
3.970000000000000000e+02,1.019869379595095549e-01
3.980000000000000000e+02,1.019869379595095549e-01
3.990000000000000000e+02,1.019869379595095549e-01
