# Time [s], Mass [Kg]
1.000000000000000000e+00,1.389829478400000096e-01
2.000000000000000000e+00,1.389829478400000096e-01
3.000000000000000000e+00,1.389829478400000096e-01
4.000000000000000000e+00,1.389829478400000096e-01
5.000000000000000000e+00,1.389829478400000096e-01
6.000000000000000000e+00,1.389829478400000096e-01
7.000000000000000000e+00,1.389829478400000096e-01
8.000000000000000000e+00,1.389829478399999818e-01
9.000000000000000000e+00,1.389829478399999263e-01
1.000000000000000000e+01,1.389829478399998430e-01
1.100000000000000000e+01,1.389829478399996487e-01
1.200000000000000000e+01,1.389829478399992602e-01
1.300000000000000000e+01,1.389829478399986218e-01
1.400000000000000000e+01,1.389829478399974561e-01
1.500000000000000000e+01,1.389829478399955409e-01
1.600000000000000000e+01,1.389829478399924045e-01
1.700000000000000000e+01,1.389829478399874640e-01
1.800000000000000000e+01,1.389829478399798313e-01
1.900000000000000000e+01,1.389829478399683127e-01
2.000000000000000000e+01,1.389829478399512708e-01
2.100000000000000000e+01,1.389829478399264573e-01
2.200000000000000000e+01,1.389829478398909857e-01
2.300000000000000000e+01,1.389829478398409979e-01
2.400000000000000000e+01,1.389829478397715257e-01
2.500000000000000000e+01,1.389829478396762685e-01
2.600000000000000000e+01,1.389829478395471496e-01
2.700000000000000000e+01,1.389829478393741213e-01
2.800000000000000000e+01,1.389829478391446937e-01
2.900000000000000000e+01,1.389829478388433237e-01
3.000000000000000000e+01,1.389829478384511374e-01
3.100000000000000000e+01,1.389829478379451255e-01
3.200000000000000000e+01,1.389829478372975047e-01
3.300000000000000000e+01,1.389829478364749127e-01
3.400000000000000000e+01,1.389829478354376036e-01
3.500000000000000000e+01,1.389829478341383651e-01
3.600000000000000000e+01,1.389829478325215473e-01
3.700000000000000000e+01,1.389829478305218136e-01
3.800000000000000000e+01,1.389829478280628361e-01
3.900000000000000000e+01,1.389829478250557693e-01
4.000000000000000000e+01,1.389829478213978897e-01
4.100000000000000000e+01,1.389829478169705701e-01
4.200000000000000000e+01,1.389829478116376416e-01
4.300000000000000000e+01,1.389829478052433120e-01
4.400000000000000000e+01,1.389829477976098349e-01
4.500000000000000000e+01,1.389829477885352604e-01
4.600000000000000000e+01,1.389829477777909938e-01
4.700000000000000000e+01,1.389829477651187695e-01
4.800000000000000000e+01,1.389829477502278754e-01
4.900000000000000000e+01,1.389829477327922946e-01
5.000000000000000000e+01,1.389829477124466250e-01
5.100000000000000000e+01,1.389829476887831927e-01
5.200000000000000000e+01,1.389829476613483883e-01
5.300000000000000000e+01,1.389829476296378374e-01
5.400000000000000000e+01,1.389829475930928204e-01
5.500000000000000000e+01,1.389829475510961643e-01
5.600000000000000000e+01,1.389829475029663308e-01
5.700000000000000000e+01,1.389829474479532256e-01
5.800000000000000000e+01,1.389829473852336739e-01
5.900000000000000000e+01,1.389829473139040650e-01
6.000000000000000000e+01,1.389829472329757731e-01
6.100000000000000000e+01,1.389829471413700779e-01
6.200000000000000000e+01,1.389829470379094212e-01
6.300000000000000000e+01,1.389829469213122726e-01
6.400000000000000000e+01,1.389829467901873006e-01
6.500000000000000000e+01,1.389829466430225480e-01
6.600000000000000000e+01,1.389829464781806301e-01
6.700000000000000000e+01,1.389829462938925453e-01
6.800000000000000000e+01,1.389829460882442969e-01
6.900000000000000000e+01,1.389829458591719802e-01
7.000000000000000000e+01,1.389829456044550382e-01
7.100000000000000000e+01,1.389829453217005240e-01
7.200000000000000000e+01,1.389829450083378548e-01
7.300000000000000000e+01,1.389829446616117070e-01
7.400000000000000000e+01,1.389829442785632807e-01
7.500000000000000000e+01,1.389829438560253039e-01
7.600000000000000000e+01,1.389829433906141221e-01
7.700000000000000000e+01,1.389829428787086874e-01
7.800000000000000000e+01,1.389829423164444799e-01
7.900000000000000000e+01,1.389829416997050981e-01
8.000000000000000000e+01,1.389829410240956686e-01
8.100000000000000000e+01,1.389829402849397932e-01
8.200000000000000000e+01,1.389829394772722215e-01
8.300000000000000000e+01,1.389829385958048780e-01
8.400000000000000000e+01,1.389829376349251966e-01
8.500000000000000000e+01,1.389829365886885992e-01
8.600000000000000000e+01,1.389829354507792492e-01
8.700000000000000000e+01,1.389829342145090241e-01
8.800000000000000000e+01,1.389829328728094116e-01
8.900000000000000000e+01,1.389829314181866005e-01
9.000000000000000000e+01,1.389829298427216198e-01
9.100000000000000000e+01,1.389829281380624559e-01
9.200000000000000000e+01,1.389829262953738709e-01
9.300000000000000000e+01,1.389829243053367636e-01
9.400000000000000000e+01,1.389829221581393714e-01
9.500000000000000000e+01,1.389829198434150148e-01
9.600000000000000000e+01,1.389829173502513671e-01
9.700000000000000000e+01,1.389829146671869020e-01
9.800000000000000000e+01,1.389829117821316240e-01
9.900000000000000000e+01,1.389829086823811122e-01
1.000000000000000000e+02,1.389829053546151605e-01
1.010000000000000000e+02,1.389829017848080717e-01
1.020000000000000000e+02,1.389828979582466706e-01
1.030000000000000000e+02,1.389828938595300545e-01
1.040000000000000000e+02,1.389828894724694230e-01
1.050000000000000000e+02,1.389828847801119482e-01
1.060000000000000000e+02,1.389828797647439107e-01
1.070000000000000000e+02,1.389828744077821476e-01
1.080000000000000000e+02,1.389828686897995602e-01
1.090000000000000000e+02,1.389828625905278059e-01
1.100000000000000000e+02,1.389828560887257092e-01
1.110000000000000000e+02,1.389828491622319140e-01
1.120000000000000000e+02,1.389828417879853117e-01
1.130000000000000000e+02,1.389828339418560654e-01
1.140000000000000000e+02,1.389828255987134720e-01
1.150000000000000000e+02,1.389828167324536068e-01
1.160000000000000000e+02,1.389828073158127508e-01
1.170000000000000000e+02,1.389827973204454115e-01
1.180000000000000000e+02,1.389827867169574072e-01
1.190000000000000000e+02,1.389827754746999211e-01
1.200000000000000000e+02,1.389827635618623991e-01
1.210000000000000000e+02,1.389827509455129062e-01
1.220000000000000000e+02,1.389827375913789131e-01
1.230000000000000000e+02,1.389827234639414155e-01
1.240000000000000000e+02,1.389827085264744022e-01
1.250000000000000000e+02,1.389826927407759039e-01
1.260000000000000000e+02,1.389826760673213979e-01
1.270000000000000000e+02,1.389826584653414132e-01
1.280000000000000000e+02,1.389826398924699224e-01
1.290000000000000000e+02,1.389826203049264186e-01
1.300000000000000000e+02,1.389825996576039002e-01
1.310000000000000000e+02,1.389825779036839015e-01
1.320000000000000000e+02,1.389825549948334182e-01
1.330000000000000000e+02,1.389825308812964177e-01
1.340000000000000000e+02,1.389825055114738972e-01
1.350000000000000000e+02,1.389824788321439020e-01
1.360000000000000000e+02,1.389824507885639160e-01
1.370000000000000000e+02,1.389824213240284101e-01
1.380000000000000000e+02,1.389823903800809224e-01
1.390000000000000000e+02,1.389823578966088991e-01
1.400000000000000000e+02,1.389823238113123971e-01
1.410000000000000000e+02,1.389822880600309063e-01
1.420000000000000000e+02,1.389822505769049144e-01
1.430000000000000000e+02,1.389822112936933973e-01
1.440000000000000000e+02,1.389821701401479093e-01
1.450000000000000000e+02,1.389821270441914114e-01
1.460000000000000000e+02,1.389820819311884115e-01
1.470000000000000000e+02,1.389820347243359011e-01
1.480000000000000000e+02,1.389819853448484022e-01
1.490000000000000000e+02,1.389819337111819209e-01
1.500000000000000000e+02,1.389818797394589134e-01
1.510000000000000000e+02,1.389818233436694028e-01
1.520000000000000000e+02,1.389817644348754211e-01
1.530000000000000000e+02,1.389817029216149080e-01
1.540000000000000000e+02,1.389816387100838990e-01
1.550000000000000000e+02,1.389815717032064080e-01
1.560000000000000000e+02,1.389815018012344194e-01
1.570000000000000000e+02,1.389814289020464000e-01
1.580000000000000000e+02,1.389813528999759018e-01
1.590000000000000000e+02,1.389812736864804166e-01
1.600000000000000000e+02,1.389811911504644226e-01
1.610000000000000000e+02,1.389811051770554196e-01
1.620000000000000000e+02,1.389810156482884085e-01
1.630000000000000000e+02,1.389809224434344070e-01
1.640000000000000000e+02,1.389808254377284114e-01
1.650000000000000000e+02,1.389807245030948990e-01
1.660000000000000000e+02,1.389806195084949125e-01
1.670000000000000000e+02,1.389805103186599056e-01
1.680000000000000000e+02,1.389803967947599028e-01
1.690000000000000000e+02,1.389802787947099216e-01
1.700000000000000000e+02,1.389801561717149136e-01
1.710000000000000000e+02,1.389800287752449015e-01
1.720000000000000000e+02,1.389798964515399082e-01
1.730000000000000000e+02,1.389797590417699014e-01
1.740000000000000000e+02,1.389796163831099052e-01
1.750000000000000000e+02,1.389794683092749061e-01
1.760000000000000000e+02,1.389793146486349162e-01
1.770000000000000000e+02,1.389791552252949147e-01
1.780000000000000000e+02,1.389789898596199003e-01
1.790000000000000000e+02,1.389788183663148990e-01
1.800000000000000000e+02,1.389786405555498983e-01
1.810000000000000000e+02,1.389784562335198981e-01
1.820000000000000000e+02,1.389782652005349117e-01
1.830000000000000000e+02,1.389780672520549154e-01
1.840000000000000000e+02,1.389778621791799007e-01
1.850000000000000000e+02,1.389776497664799160e-01
1.860000000000000000e+02,1.389774297934898983e-01
1.870000000000000000e+02,1.389772020354749227e-01
1.880000000000000000e+02,1.389769662607399092e-01
1.890000000000000000e+02,1.389767222322249030e-01
1.900000000000000000e+02,1.389764697083148981e-01
1.910000000000000000e+02,1.389762084401199027e-01
1.920000000000000000e+02,1.389759381730548971e-01
1.930000000000000000e+02,1.389756586476349198e-01
1.940000000000000000e+02,1.389753695967299030e-01
1.950000000000000000e+02,1.389750707471898994e-01
1.960000000000000000e+02,1.389747618206648994e-01
1.970000000000000000e+02,1.389744425309599185e-01
1.980000000000000000e+02,1.389741125854699055e-01
1.990000000000000000e+02,1.389737716858799044e-01
2.000000000000000000e+02,1.389734195251849103e-01
2.010000000000000000e+02,1.389730557897748964e-01
2.020000000000000000e+02,1.389726801605549178e-01
2.030000000000000000e+02,1.389722923092299167e-01
2.040000000000000000e+02,1.389718919005148989e-01
2.050000000000000000e+02,1.389714785932898988e-01
2.060000000000000000e+02,1.389710520369099034e-01
2.070000000000000000e+02,1.389706118733499141e-01
2.080000000000000000e+02,1.389701577382999043e-01
2.090000000000000000e+02,1.389696892575399134e-01
2.100000000000000000e+02,1.389692060490999026e-01
2.110000000000000000e+02,1.389687077243648983e-01
2.120000000000000000e+02,1.389681938846848985e-01
2.130000000000000000e+02,1.389676641231799015e-01
2.140000000000000000e+02,1.389671180256549232e-01
2.150000000000000000e+02,1.389665551668199106e-01
2.160000000000000000e+02,1.389659751129949106e-01
2.170000000000000000e+02,1.389653774235949102e-01
2.180000000000000000e+02,1.389647616463849100e-01
2.190000000000000000e+02,1.389641273203049143e-01
2.200000000000000000e+02,1.389634739769499139e-01
2.210000000000000000e+02,1.389628011360149185e-01
2.220000000000000000e+02,1.389621083079199126e-01
2.230000000000000000e+02,1.389613949951649108e-01
2.240000000000000000e+02,1.389606606880249007e-01
2.250000000000000000e+02,1.389599048670848991e-01
2.260000000000000000e+02,1.389591270045599236e-01
2.270000000000000000e+02,1.389583265605149054e-01
2.280000000000000000e+02,1.389575029847898990e-01
2.290000000000000000e+02,1.389566557179499062e-01
2.300000000000000000e+02,1.389557841871349175e-01
2.310000000000000000e+02,1.389548878091698969e-01
2.320000000000000000e+02,1.389539659922799097e-01
2.330000000000000000e+02,1.389530181307599144e-01
2.340000000000000000e+02,1.389520436081149168e-01
2.350000000000000000e+02,1.389510417986849211e-01
2.360000000000000000e+02,1.389500120628849034e-01
2.370000000000000000e+02,1.389489537497849148e-01
2.380000000000000000e+02,1.389478661985349139e-01
2.390000000000000000e+02,1.389467487342349039e-01
2.400000000000000000e+02,1.389456006702348978e-01
2.410000000000000000e+02,1.389444213094349068e-01
2.420000000000000000e+02,1.389432099410849164e-01
2.430000000000000000e+02,1.389419658421349180e-01
2.440000000000000000e+02,1.389406882777849128e-01
2.450000000000000000e+02,1.389393764981849133e-01
2.460000000000000000e+02,1.389380297412348975e-01
2.470000000000000000e+02,1.389366472341349024e-01
2.480000000000000000e+02,1.389352281887848983e-01
2.490000000000000000e+02,1.389337718042849001e-01
2.500000000000000000e+02,1.389322772682849150e-01
2.510000000000000000e+02,1.389307437534849088e-01
2.520000000000000000e+02,1.389291704192849031e-01
2.530000000000000000e+02,1.389275564126349061e-01
2.540000000000000000e+02,1.389259008658849104e-01
2.550000000000000000e+02,1.389242028976849230e-01
2.560000000000000000e+02,1.389224616133849233e-01
2.570000000000000000e+02,1.389206761048848993e-01
2.580000000000000000e+02,1.389188454497349012e-01
2.590000000000000000e+02,1.389169687104849227e-01
2.600000000000000000e+02,1.389150449348849070e-01
2.610000000000000000e+02,1.389130731566348975e-01
2.620000000000000000e+02,1.389110523958348997e-01
2.630000000000000000e+02,1.389089816578849002e-01
2.640000000000000000e+02,1.389068599335848975e-01
2.650000000000000000e+02,1.389046861991849180e-01
2.660000000000000000e+02,1.389024594174849137e-01
2.670000000000000000e+02,1.389001785361348995e-01
2.680000000000000000e+02,1.388978424866849082e-01
2.690000000000000000e+02,1.388954501883349069e-01
2.700000000000000000e+02,1.388930005448349159e-01
2.710000000000000000e+02,1.388904924426849208e-01
2.720000000000000000e+02,1.388879247583349186e-01
2.730000000000000000e+02,1.388852963521349237e-01
2.740000000000000000e+02,1.388826060648349070e-01
2.750000000000000000e+02,1.388798527259849092e-01
2.760000000000000000e+02,1.388770351494849065e-01
2.770000000000000000e+02,1.388741521314349192e-01
2.780000000000000000e+02,1.388712024578849236e-01
2.790000000000000000e+02,1.388681848988349010e-01
2.800000000000000000e+02,1.388650982047849036e-01
2.810000000000000000e+02,1.388619411186349240e-01
2.820000000000000000e+02,1.388587123668849066e-01
2.830000000000000000e+02,1.388554106543349043e-01
2.840000000000000000e+02,1.388520346805349193e-01
2.850000000000000000e+02,1.388485831283349237e-01
2.860000000000000000e+02,1.388450546571849131e-01
2.870000000000000000e+02,1.388414479253348988e-01
2.880000000000000000e+02,1.388377615736349213e-01
2.890000000000000000e+02,1.388339942161349039e-01
2.900000000000000000e+02,1.388301444652349226e-01
2.910000000000000000e+02,1.388262109167849034e-01
2.920000000000000000e+02,1.388221921418849036e-01
2.930000000000000000e+02,1.388180867125348994e-01
2.940000000000000000e+02,1.388138931837848977e-01
2.950000000000000000e+02,1.388096100834849134e-01
2.960000000000000000e+02,1.388052359447849160e-01
2.970000000000000000e+02,1.388007692834849205e-01
2.980000000000000000e+02,1.387962085848349070e-01
2.990000000000000000e+02,1.387915523437349141e-01
3.000000000000000000e+02,1.387867990376349114e-01
3.010000000000000000e+02,1.387819471106849223e-01
3.020000000000000000e+02,1.387769950230349214e-01
3.030000000000000000e+02,1.387719412167349176e-01
3.040000000000000000e+02,1.387667840956849086e-01
3.050000000000000000e+02,1.387615220805848981e-01
3.060000000000000000e+02,1.387561535751849207e-01
3.070000000000000000e+02,1.387506769471349155e-01
3.080000000000000000e+02,1.387450905855849015e-01
3.090000000000000000e+02,1.387393928622848993e-01
3.100000000000000000e+02,1.387335821092349208e-01
3.110000000000000000e+02,1.387276566867849115e-01
3.120000000000000000e+02,1.387216149375349039e-01
3.130000000000000000e+02,1.387154551595349006e-01
3.140000000000000000e+02,1.387091756861349168e-01
3.150000000000000000e+02,1.387027748327848975e-01
3.160000000000000000e+02,1.386962508661349069e-01
3.170000000000000000e+02,1.386896020978349020e-01
3.180000000000000000e+02,1.386828268207849213e-01
3.190000000000000000e+02,1.386759232720349011e-01
3.200000000000000000e+02,1.386688897362349238e-01
3.210000000000000000e+02,1.386617244809849048e-01
3.220000000000000000e+02,1.386544257195849172e-01
3.230000000000000000e+02,1.386469917203849156e-01
3.240000000000000000e+02,1.386394207341849205e-01
3.250000000000000000e+02,1.386317109518849233e-01
3.260000000000000000e+02,1.386238606297349185e-01
3.270000000000000000e+02,1.386158680058849069e-01
3.280000000000000000e+02,1.386077312516349191e-01
3.290000000000000000e+02,1.385994486137848980e-01
3.300000000000000000e+02,1.385910183208348967e-01
3.310000000000000000e+02,1.385824385281849147e-01
3.320000000000000000e+02,1.385737074802348978e-01
3.330000000000000000e+02,1.385648234019849212e-01
3.340000000000000000e+02,1.385557844356349044e-01
3.350000000000000000e+02,1.385465888171849014e-01
3.360000000000000000e+02,1.385372347650849212e-01
3.370000000000000000e+02,1.385277204157349118e-01
3.380000000000000000e+02,1.385180440101348998e-01
3.390000000000000000e+02,1.385082037709849112e-01
3.400000000000000000e+02,1.384981978308849060e-01
3.410000000000000000e+02,1.384880244408848993e-01
3.420000000000000000e+02,1.384776818333849080e-01
3.430000000000000000e+02,1.384671681403848997e-01
3.440000000000000000e+02,1.384564816263849085e-01
3.450000000000000000e+02,1.384456205368849169e-01
3.460000000000000000e+02,1.384345830083849038e-01
3.470000000000000000e+02,1.384233673278849053e-01
3.480000000000000000e+02,1.384119717608849054e-01
3.490000000000000000e+02,1.384003944508849226e-01
3.500000000000000000e+02,1.383886336988849053e-01
3.510000000000000000e+02,1.383766877868849166e-01
3.520000000000000000e+02,1.383645548748849152e-01
3.530000000000000000e+02,1.383522332943848965e-01
3.540000000000000000e+02,1.383397213563849204e-01
3.550000000000000000e+02,1.383270172388849084e-01
3.560000000000000000e+02,1.383141193093849197e-01
3.570000000000000000e+02,1.383010259138849063e-01
3.580000000000000000e+02,1.382877352518848968e-01
3.590000000000000000e+02,1.382742457298849204e-01
3.600000000000000000e+02,1.382605557318849210e-01
3.610000000000000000e+02,1.382466634838849240e-01
3.620000000000000000e+02,1.382325674413849015e-01
3.630000000000000000e+02,1.382182660343849179e-01
3.640000000000000000e+02,1.382037575178849120e-01
3.650000000000000000e+02,1.381890403858849203e-01
3.660000000000000000e+02,1.381741131093849051e-01
3.670000000000000000e+02,1.381589739828849028e-01
3.680000000000000000e+02,1.381436215558849157e-01
3.690000000000000000e+02,1.381280543533849048e-01
3.700000000000000000e+02,1.381122707098849101e-01
3.710000000000000000e+02,1.380962692363849054e-01
3.720000000000000000e+02,1.380800485173849235e-01
3.730000000000000000e+02,1.380636069303849134e-01
3.740000000000000000e+02,1.380469431503849043e-01
3.750000000000000000e+02,1.380300558243849063e-01
3.760000000000000000e+02,1.380129433773849001e-01
3.770000000000000000e+02,1.379956045568849210e-01
3.780000000000000000e+02,1.379780380788849237e-01
3.790000000000000000e+02,1.379602424183849207e-01
3.800000000000000000e+02,1.379422163833849135e-01
3.810000000000000000e+02,1.379239587508849230e-01
3.820000000000000000e+02,1.379054680548849054e-01
3.830000000000000000e+02,1.378867431808848965e-01
3.840000000000000000e+02,1.378677829818849010e-01
3.850000000000000000e+02,1.378485860508849026e-01
3.860000000000000000e+02,1.378291513553848990e-01
3.870000000000000000e+02,1.378094778273848964e-01
3.880000000000000000e+02,1.377895641203848998e-01
3.890000000000000000e+02,1.377694092848849028e-01
3.900000000000000000e+02,1.377490123338849237e-01
3.910000000000000000e+02,1.377283719848849119e-01
3.920000000000000000e+02,1.377074873778849073e-01
3.930000000000000000e+02,1.376863576123849020e-01
3.940000000000000000e+02,1.376649814708849062e-01
3.950000000000000000e+02,1.376433581673849049e-01
3.960000000000000000e+02,1.376214868768849131e-01
3.970000000000000000e+02,1.375993664548849083e-01
3.980000000000000000e+02,1.375769962073849217e-01
3.990000000000000000e+02,1.375543753983849149e-01
