# Time [s], Temperature [C]
0.000000000000000000e+00,2.500000000000000000e+01
1.000000000000000000e+00,2.500000000000000000e+01
2.000000000000000000e+00,2.500009000000000015e+01
3.000000000000000000e+00,2.500091400000000164e+01
4.000000000000000000e+00,2.500483300000000142e+01
5.000000000000000000e+00,2.501733600000000024e+01
6.000000000000000000e+00,2.504732699999999923e+01
7.000000000000000000e+00,2.510551600000000150e+01
8.000000000000000000e+00,2.520190399999999897e+01
9.000000000000000000e+00,2.534400899999999979e+01
1.000000000000000000e+01,2.553642100000000070e+01
1.100000000000000000e+01,2.578116199999999836e+01
1.200000000000000000e+01,2.607832099999999897e+01
1.300000000000000000e+01,2.642663200000000145e+01
1.400000000000000000e+01,2.682393499999999875e+01
1.500000000000000000e+01,2.726753799999999828e+01
1.600000000000000000e+01,2.775446700000000178e+01
1.700000000000000000e+01,2.828167300000000139e+01
1.800000000000000000e+01,2.884609000000000023e+01
1.900000000000000000e+01,2.944473599999999891e+01
2.000000000000000000e+01,3.007482100000000003e+01
2.100000000000000000e+01,3.073365400000000136e+01
2.200000000000000000e+01,3.141873000000000005e+01
2.300000000000000000e+01,3.212774999999999892e+01
2.400000000000000000e+01,3.285856199999999916e+01
2.500000000000000000e+01,3.360920000000000130e+01
2.600000000000000000e+01,3.437783100000000047e+01
2.700000000000000000e+01,3.516279999999999717e+01
2.800000000000000000e+01,3.596258199999999761e+01
2.900000000000000000e+01,3.677576400000000234e+01
3.000000000000000000e+01,3.760106999999999999e+01
3.100000000000000000e+01,3.843734700000000259e+01
3.200000000000000000e+01,3.928352399999999989e+01
3.300000000000000000e+01,4.013861500000000149e+01
3.400000000000000000e+01,4.100174700000000172e+01
3.500000000000000000e+01,4.187210799999999722e+01
3.600000000000000000e+01,4.274896999999999991e+01
3.700000000000000000e+01,4.363163000000000125e+01
3.800000000000000000e+01,4.451948500000000308e+01
3.900000000000000000e+01,4.541196399999999755e+01
4.000000000000000000e+01,4.630860500000000002e+01
4.100000000000000000e+01,4.720889300000000333e+01
4.200000000000000000e+01,4.811240000000000094e+01
4.300000000000000000e+01,4.901874200000000315e+01
4.400000000000000000e+01,4.992760799999999932e+01
4.500000000000000000e+01,5.083863399999999899e+01
4.600000000000000000e+01,5.175152200000000136e+01
4.700000000000000000e+01,5.266601899999999858e+01
4.800000000000000000e+01,5.358191699999999713e+01
4.900000000000000000e+01,5.449892400000000237e+01
5.000000000000000000e+01,5.541685499999999820e+01
5.100000000000000000e+01,5.633558299999999974e+01
5.200000000000000000e+01,5.725487499999999841e+01
5.300000000000000000e+01,5.817457600000000184e+01
5.400000000000000000e+01,5.909457799999999850e+01
5.500000000000000000e+01,6.001477100000000320e+01
5.600000000000000000e+01,6.093497800000000097e+01
5.700000000000000000e+01,6.185511799999999738e+01
5.800000000000000000e+01,6.277513499999999880e+01
5.900000000000000000e+01,6.369488499999999931e+01
6.000000000000000000e+01,6.461429599999999596e+01
6.100000000000000000e+01,6.553333999999999548e+01
6.200000000000000000e+01,6.645188899999999421e+01
6.300000000000000000e+01,6.736989599999999712e+01
6.400000000000000000e+01,6.828731500000000665e+01
6.500000000000000000e+01,6.920413999999999533e+01
6.600000000000000000e+01,7.012023899999999799e+01
6.700000000000000000e+01,7.103560600000000136e+01
6.800000000000000000e+01,7.195024100000000544e+01
6.900000000000000000e+01,7.286405899999999747e+01
7.000000000000000000e+01,7.377701600000000326e+01
7.100000000000000000e+01,7.468911699999999598e+01
7.200000000000000000e+01,7.560035700000000247e+01
7.300000000000000000e+01,7.651065099999999575e+01
7.400000000000000000e+01,7.741999099999999601e+01
7.500000000000000000e+01,7.832840000000000202e+01
7.600000000000000000e+01,7.923582500000000550e+01
7.700000000000000000e+01,8.014222700000000543e+01
7.800000000000000000e+01,8.104761499999999330e+01
7.900000000000000000e+01,8.195199599999999407e+01
8.000000000000000000e+01,8.285532399999999598e+01
8.100000000000000000e+01,8.375759100000000501e+01
8.200000000000000000e+01,8.465877500000000566e+01
8.300000000000000000e+01,8.555892199999999548e+01
8.400000000000000000e+01,8.645796199999999487e+01
8.500000000000000000e+01,8.735589600000000132e+01
8.600000000000000000e+01,8.825271600000000660e+01
8.700000000000000000e+01,8.914846000000000004e+01
8.800000000000000000e+01,9.004306800000000521e+01
8.900000000000000000e+01,9.093653100000000222e+01
9.000000000000000000e+01,9.182885699999999929e+01
9.100000000000000000e+01,9.272007800000000088e+01
9.200000000000000000e+01,9.361013800000000629e+01
9.300000000000000000e+01,9.449903100000000222e+01
9.400000000000000000e+01,9.538677199999999345e+01
9.500000000000000000e+01,9.627335399999999765e+01
9.600000000000000000e+01,9.715879800000000444e+01
9.700000000000000000e+01,9.804306800000000521e+01
9.800000000000000000e+01,9.892615499999999429e+01
9.900000000000000000e+01,9.980805999999999756e+01
1.000000000000000000e+02,1.006888000000000005e+02
1.010000000000000000e+02,1.015683599999999984e+02
1.020000000000000000e+02,1.024467400000000055e+02
1.030000000000000000e+02,1.033239300000000043e+02
1.040000000000000000e+02,1.041999200000000059e+02
1.050000000000000000e+02,1.050747099999999961e+02
1.060000000000000000e+02,1.059483400000000017e+02
1.070000000000000000e+02,1.068207500000000039e+02
1.080000000000000000e+02,1.076919599999999946e+02
1.090000000000000000e+02,1.085619700000000023e+02
1.100000000000000000e+02,1.094307600000000065e+02
1.110000000000000000e+02,1.102983399999999961e+02
1.120000000000000000e+02,1.111647300000000058e+02
1.130000000000000000e+02,1.120298899999999946e+02
1.140000000000000000e+02,1.128938399999999973e+02
1.150000000000000000e+02,1.137565799999999996e+02
1.160000000000000000e+02,1.146180899999999951e+02
1.170000000000000000e+02,1.154783800000000014e+02
1.180000000000000000e+02,1.163374500000000040e+02
1.190000000000000000e+02,1.171952900000000000e+02
1.200000000000000000e+02,1.180519000000000034e+02
1.210000000000000000e+02,1.189072599999999937e+02
1.220000000000000000e+02,1.197613900000000058e+02
1.230000000000000000e+02,1.206142799999999937e+02
1.240000000000000000e+02,1.214659400000000034e+02
1.250000000000000000e+02,1.223163600000000031e+02
1.260000000000000000e+02,1.231655300000000040e+02
1.270000000000000000e+02,1.240134400000000028e+02
1.280000000000000000e+02,1.248601100000000059e+02
1.290000000000000000e+02,1.257055100000000039e+02
1.300000000000000000e+02,1.265496600000000029e+02
1.310000000000000000e+02,1.273925200000000046e+02
1.320000000000000000e+02,1.282341299999999933e+02
1.330000000000000000e+02,1.290744799999999941e+02
1.340000000000000000e+02,1.299135400000000118e+02
1.350000000000000000e+02,1.307513299999999958e+02
1.360000000000000000e+02,1.315878099999999904e+02
1.370000000000000000e+02,1.324230000000000018e+02
1.380000000000000000e+02,1.332569100000000049e+02
1.390000000000000000e+02,1.340895199999999932e+02
1.400000000000000000e+02,1.349208199999999920e+02
1.410000000000000000e+02,1.357508100000000013e+02
1.420000000000000000e+02,1.365794799999999896e+02
1.430000000000000000e+02,1.374068499999999915e+02
1.440000000000000000e+02,1.382328899999999976e+02
1.450000000000000000e+02,1.390576000000000079e+02
1.460000000000000000e+02,1.398809699999999907e+02
1.470000000000000000e+02,1.407030000000000030e+02
1.480000000000000000e+02,1.415236999999999910e+02
1.490000000000000000e+02,1.423430199999999957e+02
1.500000000000000000e+02,1.431609799999999950e+02
1.510000000000000000e+02,1.439775699999999858e+02
1.520000000000000000e+02,1.447927699999999902e+02
1.530000000000000000e+02,1.456065800000000081e+02
1.540000000000000000e+02,1.464190099999999859e+02
1.550000000000000000e+02,1.472300400000000025e+02
1.560000000000000000e+02,1.480396599999999978e+02
1.570000000000000000e+02,1.488478499999999940e+02
1.580000000000000000e+02,1.496546500000000037e+02
1.590000000000000000e+02,1.504600100000000111e+02
1.600000000000000000e+02,1.512639299999999878e+02
1.610000000000000000e+02,1.520664199999999937e+02
1.620000000000000000e+02,1.528674800000000005e+02
1.630000000000000000e+02,1.536670699999999954e+02
1.640000000000000000e+02,1.544652299999999912e+02
1.650000000000000000e+02,1.552619300000000067e+02
1.660000000000000000e+02,1.560571700000000135e+02
1.670000000000000000e+02,1.568509500000000116e+02
1.680000000000000000e+02,1.576432599999999979e+02
1.690000000000000000e+02,1.584341100000000040e+02
1.700000000000000000e+02,1.592234799999999950e+02
1.710000000000000000e+02,1.600114000000000090e+02
1.720000000000000000e+02,1.607978500000000111e+02
1.730000000000000000e+02,1.615828400000000045e+02
1.740000000000000000e+02,1.623663799999999924e+02
1.750000000000000000e+02,1.631484800000000064e+02
1.760000000000000000e+02,1.639291200000000117e+02
1.770000000000000000e+02,1.647083100000000115e+02
1.780000000000000000e+02,1.654860500000000059e+02
1.790000000000000000e+02,1.662623600000000010e+02
1.800000000000000000e+02,1.670372500000000002e+02
1.810000000000000000e+02,1.678107100000000003e+02
1.820000000000000000e+02,1.685827600000000075e+02
1.830000000000000000e+02,1.693534099999999967e+02
1.840000000000000000e+02,1.701226299999999867e+02
1.850000000000000000e+02,1.708904699999999934e+02
1.860000000000000000e+02,1.716569200000000137e+02
1.870000000000000000e+02,1.724219999999999970e+02
1.880000000000000000e+02,1.731857100000000003e+02
1.890000000000000000e+02,1.739480599999999981e+02
1.900000000000000000e+02,1.747090599999999938e+02
1.910000000000000000e+02,1.754687000000000126e+02
1.920000000000000000e+02,1.762270100000000070e+02
1.930000000000000000e+02,1.769839599999999962e+02
1.940000000000000000e+02,1.777395600000000115e+02
1.950000000000000000e+02,1.784938500000000090e+02
1.960000000000000000e+02,1.792468100000000106e+02
1.970000000000000000e+02,1.799984699999999975e+02
1.980000000000000000e+02,1.807488099999999918e+02
1.990000000000000000e+02,1.814978299999999933e+02
2.000000000000000000e+02,1.822455300000000022e+02
2.010000000000000000e+02,1.829919099999999901e+02
2.020000000000000000e+02,1.837369799999999884e+02
2.030000000000000000e+02,1.844807700000000068e+02
2.040000000000000000e+02,1.852232700000000136e+02
2.050000000000000000e+02,1.859644499999999994e+02
2.060000000000000000e+02,1.867043299999999988e+02
2.070000000000000000e+02,1.874429000000000087e+02
2.080000000000000000e+02,1.881801600000000008e+02
2.090000000000000000e+02,1.889161200000000065e+02
2.100000000000000000e+02,1.896507900000000006e+02
2.110000000000000000e+02,1.903841400000000021e+02
2.120000000000000000e+02,1.911162099999999953e+02
2.130000000000000000e+02,1.918469499999999925e+02
2.140000000000000000e+02,1.925763900000000035e+02
2.150000000000000000e+02,1.933044999999999902e+02
2.160000000000000000e+02,1.940313299999999970e+02
2.170000000000000000e+02,1.947568400000000111e+02
2.180000000000000000e+02,1.954810200000000009e+02
2.190000000000000000e+02,1.962038900000000012e+02
2.200000000000000000e+02,1.969254300000000057e+02
2.210000000000000000e+02,1.976456499999999892e+02
2.220000000000000000e+02,1.983645600000000115e+02
2.230000000000000000e+02,1.990821200000000033e+02
2.240000000000000000e+02,1.997983399999999961e+02
2.250000000000000000e+02,2.005132299999999930e+02
2.260000000000000000e+02,2.012267899999999941e+02
2.270000000000000000e+02,2.019390099999999961e+02
2.280000000000000000e+02,2.026498400000000117e+02
2.290000000000000000e+02,2.033593299999999999e+02
2.300000000000000000e+02,2.040674699999999859e+02
2.310000000000000000e+02,2.047742499999999950e+02
2.320000000000000000e+02,2.054796399999999892e+02
2.330000000000000000e+02,2.061836500000000001e+02
2.340000000000000000e+02,2.068862799999999993e+02
2.350000000000000000e+02,2.075875200000000120e+02
2.360000000000000000e+02,2.082873700000000099e+02
2.370000000000000000e+02,2.089857900000000086e+02
2.380000000000000000e+02,2.096828199999999924e+02
2.390000000000000000e+02,2.103784300000000087e+02
2.400000000000000000e+02,2.110725899999999911e+02
2.410000000000000000e+02,2.117653200000000027e+02
2.420000000000000000e+02,2.124566000000000088e+02
2.430000000000000000e+02,2.131464499999999873e+02
2.440000000000000000e+02,2.138348100000000045e+02
2.450000000000000000e+02,2.145217100000000130e+02
2.460000000000000000e+02,2.152071200000000033e+02
2.470000000000000000e+02,2.158910500000000070e+02
2.480000000000000000e+02,2.165734600000000114e+02
2.490000000000000000e+02,2.172543499999999881e+02
2.500000000000000000e+02,2.179337199999999939e+02
2.510000000000000000e+02,2.186115399999999909e+02
2.520000000000000000e+02,2.192878300000000138e+02
2.530000000000000000e+02,2.199625200000000120e+02
2.540000000000000000e+02,2.206356499999999983e+02
2.550000000000000000e+02,2.213071899999999914e+02
2.560000000000000000e+02,2.219771299999999883e+02
2.570000000000000000e+02,2.226454300000000046e+02
2.580000000000000000e+02,2.233121199999999931e+02
2.590000000000000000e+02,2.239771399999999915e+02
2.600000000000000000e+02,2.246404899999999998e+02
2.610000000000000000e+02,2.253021699999999896e+02
2.620000000000000000e+02,2.259621400000000051e+02
2.630000000000000000e+02,2.266203899999999862e+02
2.640000000000000000e+02,2.272769199999999898e+02
2.650000000000000000e+02,2.279316699999999969e+02
2.660000000000000000e+02,2.285846400000000074e+02
2.670000000000000000e+02,2.292358199999999897e+02
2.680000000000000000e+02,2.298852100000000007e+02
2.690000000000000000e+02,2.305327499999999930e+02
2.700000000000000000e+02,2.311784199999999885e+02
2.710000000000000000e+02,2.318222000000000094e+02
2.720000000000000000e+02,2.324641000000000020e+02
2.730000000000000000e+02,2.331040500000000009e+02
2.740000000000000000e+02,2.337420500000000061e+02
2.750000000000000000e+02,2.343780700000000081e+02
2.760000000000000000e+02,2.350120799999999974e+02
2.770000000000000000e+02,2.356440599999999961e+02
2.780000000000000000e+02,2.362739599999999882e+02
2.790000000000000000e+02,2.369017800000000022e+02
2.800000000000000000e+02,2.375274799999999971e+02
2.810000000000000000e+02,2.381510199999999884e+02
2.820000000000000000e+02,2.387723799999999983e+02
2.830000000000000000e+02,2.393915399999999920e+02
2.840000000000000000e+02,2.400084500000000105e+02
2.850000000000000000e+02,2.406230799999999874e+02
2.860000000000000000e+02,2.412353799999999922e+02
2.870000000000000000e+02,2.418453399999999931e+02
2.880000000000000000e+02,2.424528999999999996e+02
2.890000000000000000e+02,2.430580300000000022e+02
2.900000000000000000e+02,2.436607199999999978e+02
2.910000000000000000e+02,2.442608899999999892e+02
2.920000000000000000e+02,2.448585199999999986e+02
2.930000000000000000e+02,2.454535700000000134e+02
2.940000000000000000e+02,2.460460099999999954e+02
2.950000000000000000e+02,2.466357399999999984e+02
2.960000000000000000e+02,2.472227900000000034e+02
2.970000000000000000e+02,2.478070800000000133e+02
2.980000000000000000e+02,2.483885699999999872e+02
2.990000000000000000e+02,2.489672099999999944e+02
3.000000000000000000e+02,2.495429499999999905e+02
3.010000000000000000e+02,2.501157699999999977e+02
3.020000000000000000e+02,2.506855899999999906e+02
3.030000000000000000e+02,2.512523799999999881e+02
3.040000000000000000e+02,2.518160699999999963e+02
3.050000000000000000e+02,2.523766300000000058e+02
3.060000000000000000e+02,2.529339899999999943e+02
3.070000000000000000e+02,2.534881300000000124e+02
3.080000000000000000e+02,2.540389700000000062e+02
3.090000000000000000e+02,2.545864599999999882e+02
3.100000000000000000e+02,2.551305700000000058e+02
3.110000000000000000e+02,2.556712200000000053e+02
3.120000000000000000e+02,2.562083400000000211e+02
3.130000000000000000e+02,2.567419399999999996e+02
3.140000000000000000e+02,2.572719399999999723e+02
3.150000000000000000e+02,2.577982499999999959e+02
3.160000000000000000e+02,2.583208300000000008e+02
3.170000000000000000e+02,2.588396599999999808e+02
3.180000000000000000e+02,2.593546400000000176e+02
3.190000000000000000e+02,2.598657499999999914e+02
3.200000000000000000e+02,2.603729200000000219e+02
3.210000000000000000e+02,2.608761000000000081e+02
3.220000000000000000e+02,2.613752400000000193e+02
3.230000000000000000e+02,2.618702999999999861e+02
3.240000000000000000e+02,2.623611799999999903e+02
3.250000000000000000e+02,2.628478700000000003e+02
3.260000000000000000e+02,2.633303199999999720e+02
3.270000000000000000e+02,2.638084699999999998e+02
3.280000000000000000e+02,2.642822600000000079e+02
3.290000000000000000e+02,2.647516499999999837e+02
3.300000000000000000e+02,2.652165800000000218e+02
3.310000000000000000e+02,2.656770300000000020e+02
3.320000000000000000e+02,2.661329299999999876e+02
3.330000000000000000e+02,2.665842900000000100e+02
3.340000000000000000e+02,2.670310099999999807e+02
3.350000000000000000e+02,2.674730500000000006e+02
3.360000000000000000e+02,2.679103999999999814e+02
3.370000000000000000e+02,2.683429899999999861e+02
3.380000000000000000e+02,2.687708400000000211e+02
3.390000000000000000e+02,2.691938499999999976e+02
3.400000000000000000e+02,2.696120300000000043e+02
3.410000000000000000e+02,2.700253599999999778e+02
3.420000000000000000e+02,2.704337800000000129e+02
3.430000000000000000e+02,2.708372499999999832e+02
3.440000000000000000e+02,2.712358100000000150e+02
3.450000000000000000e+02,2.716293600000000197e+02
3.460000000000000000e+02,2.720179699999999912e+02
3.470000000000000000e+02,2.724015499999999861e+02
3.480000000000000000e+02,2.727801200000000108e+02
3.490000000000000000e+02,2.731536899999999832e+02
3.500000000000000000e+02,2.735221900000000232e+02
3.510000000000000000e+02,2.738856799999999794e+02
3.520000000000000000e+02,2.742441099999999778e+02
3.530000000000000000e+02,2.745975000000000250e+02
3.540000000000000000e+02,2.749458599999999819e+02
3.550000000000000000e+02,2.752891799999999876e+02
3.560000000000000000e+02,2.756274700000000166e+02
3.570000000000000000e+02,2.759607199999999807e+02
3.580000000000000000e+02,2.762889999999999873e+02
3.590000000000000000e+02,2.766122700000000236e+02
3.600000000000000000e+02,2.769306000000000267e+02
3.610000000000000000e+02,2.772439299999999776e+02
3.620000000000000000e+02,2.775523699999999963e+02
3.630000000000000000e+02,2.778559000000000196e+02
3.640000000000000000e+02,2.781545399999999972e+02
3.650000000000000000e+02,2.784483299999999986e+02
3.660000000000000000e+02,2.787373400000000174e+02
3.670000000000000000e+02,2.790215499999999906e+02
3.680000000000000000e+02,2.793010600000000068e+02
3.690000000000000000e+02,2.795758099999999899e+02
3.700000000000000000e+02,2.798459500000000162e+02
3.710000000000000000e+02,2.801114499999999907e+02
3.720000000000000000e+02,2.803724100000000021e+02
3.730000000000000000e+02,2.806288099999999872e+02
3.740000000000000000e+02,2.808807699999999841e+02
3.750000000000000000e+02,2.811283000000000243e+02
3.760000000000000000e+02,2.813714600000000132e+02
3.770000000000000000e+02,2.816103200000000015e+02
3.780000000000000000e+02,2.818449100000000271e+02
3.790000000000000000e+02,2.820753199999999765e+02
3.800000000000000000e+02,2.823015700000000265e+02
3.810000000000000000e+02,2.825237399999999752e+02
3.820000000000000000e+02,2.827418799999999806e+02
3.830000000000000000e+02,2.829560900000000174e+02
3.840000000000000000e+02,2.831663800000000037e+02
3.850000000000000000e+02,2.833728300000000218e+02
3.860000000000000000e+02,2.835754999999999768e+02
3.870000000000000000e+02,2.837745100000000207e+02
3.880000000000000000e+02,2.839698500000000081e+02
3.890000000000000000e+02,2.841615899999999897e+02
3.900000000000000000e+02,2.843498500000000035e+02
3.910000000000000000e+02,2.845346700000000055e+02
3.920000000000000000e+02,2.847160900000000083e+02
3.930000000000000000e+02,2.848942299999999932e+02
3.940000000000000000e+02,2.850690900000000170e+02
3.950000000000000000e+02,2.852408100000000104e+02
3.960000000000000000e+02,2.854093899999999735e+02
3.970000000000000000e+02,2.855749200000000201e+02
3.980000000000000000e+02,2.857374899999999798e+02
