# Time [s], Convective Heat Transfer Coefficient [W/m2K]
1.000000000000000000e+00,0.000000000000000000e+00
2.000000000000000000e+00,0.000000000000000000e+00
3.000000000000000000e+00,0.000000000000000000e+00
4.000000000000000000e+00,3.040000000141642594e-02
5.000000000000000000e+00,5.366129469656785722e-02
6.000000000000000000e+00,8.889013924160209246e-02
7.000000000000000000e+00,1.365493352148217099e-01
8.000000000000000000e+00,1.974800060430088877e-01
9.000000000000000000e+00,2.719638983227607998e-01
1.000000000000000000e+01,3.595073808643201585e-01
1.100000000000000000e+01,4.592143261403090482e-01
1.200000000000000000e+01,5.697535408576580584e-01
1.300000000000000000e+01,6.897143660034077417e-01
1.400000000000000000e+01,8.176219126253602143e-01
1.500000000000000000e+01,9.520738566620299270e-01
1.600000000000000000e+01,1.091795969341211592e+00
1.700000000000000000e+01,1.235654362496208192e+00
1.800000000000000000e+01,1.382673002959807995e+00
1.900000000000000000e+01,1.532035569176007250e+00
2.000000000000000000e+01,1.683059946565222731e+00
2.100000000000000000e+01,1.835176560923108990e+00
2.200000000000000000e+01,1.987907025392996019e+00
2.300000000000000000e+01,2.140836977747099024e+00
2.400000000000000000e+01,2.293603181527151147e+00
2.500000000000000000e+01,2.445882046917398522e+00
2.600000000000000000e+01,2.597384740763928779e+00
2.700000000000000000e+01,2.747860649318584425e+00
2.800000000000000000e+01,2.897092047984992202e+00
2.900000000000000000e+01,3.044896515634440082e+00
3.000000000000000000e+01,3.191118547241569736e+00
3.100000000000000000e+01,3.335629638645382311e+00
3.200000000000000000e+01,3.478325728382800630e+00
3.300000000000000000e+01,3.619118897054566020e+00
3.400000000000000000e+01,3.757941224352869813e+00
3.500000000000000000e+01,3.894739179108507976e+00
3.600000000000000000e+01,4.029475628803319331e+00
3.700000000000000000e+01,4.162124710206365208e+00
3.800000000000000000e+01,4.292674575653430580e+00
3.900000000000000000e+01,4.421119187544912066e+00
4.000000000000000000e+01,4.547461981195688452e+00
4.100000000000000000e+01,4.671707217695811210e+00
4.200000000000000000e+01,4.793870897613858872e+00
4.300000000000000000e+01,4.913966079089679972e+00
4.400000000000000000e+01,5.032011841623192261e+00
4.500000000000000000e+01,5.148034591441280838e+00
4.600000000000000000e+01,5.262061298436089274e+00
4.700000000000000000e+01,5.374123251689505665e+00
4.800000000000000000e+01,5.484252798432354581e+00
4.900000000000000000e+01,5.592482164778401099e+00
5.000000000000000000e+01,5.698842493255740216e+00
5.100000000000000000e+01,5.803367318840953359e+00
5.200000000000000000e+01,5.906087464201611681e+00
5.300000000000000000e+01,6.007035412640532535e+00
5.400000000000000000e+01,6.106245779105823779e+00
5.500000000000000000e+01,6.203753766216957288e+00
5.600000000000000000e+01,6.299595512404544628e+00
5.700000000000000000e+01,6.393807394346421979e+00
5.800000000000000000e+01,6.486423712063715818e+00
5.900000000000000000e+01,6.577477990791923190e+00
6.000000000000000000e+01,6.667002215536004250e+00
6.100000000000000000e+01,6.755028530089598249e+00
6.200000000000000000e+01,6.841586186869458963e+00
6.300000000000000000e+01,6.926704980258157285e+00
6.400000000000000000e+01,7.010416766283205092e+00
6.500000000000000000e+01,7.092748869303998838e+00
6.600000000000000000e+01,7.173733400672304583e+00
6.700000000000000000e+01,7.253400002899069499e+00
6.800000000000000000e+01,7.331779551343423407e+00
6.900000000000000000e+01,7.408899720392897237e+00
7.000000000000000000e+01,7.484788616201661249e+00
7.100000000000000000e+01,7.559471425157186175e+00
7.200000000000000000e+01,7.632972877749800489e+00
7.300000000000000000e+01,7.705315688909005978e+00
7.400000000000000000e+01,7.776522849566246620e+00
7.500000000000000000e+01,7.846616821473165082e+00
7.600000000000000000e+01,7.915619940315743897e+00
7.700000000000000000e+01,7.983556432613696963e+00
7.800000000000000000e+01,8.050448454779276730e+00
7.900000000000000000e+01,8.116319274647429083e+00
8.000000000000000000e+01,8.181190728352218500e+00
8.100000000000000000e+01,8.245083843935807622e+00
8.200000000000000000e+01,8.308019577478978235e+00
8.300000000000000000e+01,8.370014638661141149e+00
8.400000000000000000e+01,8.431086407335893540e+00
8.500000000000000000e+01,8.491251096092552686e+00
8.600000000000000000e+01,8.550524148936890612e+00
8.700000000000000000e+01,8.608921396628154810e+00
8.800000000000000000e+01,8.666459340818123636e+00
8.900000000000000000e+01,8.723153571653737615e+00
9.000000000000000000e+01,8.779021104955067045e+00
9.100000000000000000e+01,8.834078644614555387e+00
9.200000000000000000e+01,8.888341123040882863e+00
9.300000000000000000e+01,8.941824006428664262e+00
9.400000000000000000e+01,8.994540227387458842e+00
9.500000000000000000e+01,9.046503051268128814e+00
9.600000000000000000e+01,9.097722806145331020e+00
9.700000000000000000e+01,9.148209844365279508e+00
9.800000000000000000e+01,9.197973711093531790e+00
9.900000000000000000e+01,9.247024693445204946e+00
1.000000000000000000e+02,9.295373917642274719e+00
1.010000000000000000e+02,9.343031430164531415e+00
1.020000000000000000e+02,9.390007847203159841e+00
1.030000000000000000e+02,9.436312750952634332e+00
1.040000000000000000e+02,9.481958127060048369e+00
1.050000000000000000e+02,9.526951804610011010e+00
1.060000000000000000e+02,9.571302891668956647e+00
1.070000000000000000e+02,9.615018046098654736e+00
1.080000000000000000e+02,9.658102841821040840e+00
1.090000000000000000e+02,9.700563060451207420e+00
1.100000000000000000e+02,9.742402215306118052e+00
1.110000000000000000e+02,9.783626783131291305e+00
1.120000000000000000e+02,9.824239530511963636e+00
1.130000000000000000e+02,9.864246281725502996e+00
1.140000000000000000e+02,9.903651617930540496e+00
1.150000000000000000e+02,9.942459636804089840e+00
1.160000000000000000e+02,9.980672325579169168e+00
1.170000000000000000e+02,1.001829208892885248e+01
1.180000000000000000e+02,1.005531733189020649e+01
1.190000000000000000e+02,1.009174674013901196e+01
1.200000000000000000e+02,1.012757652569782607e+01
1.210000000000000000e+02,1.016280130095812062e+01
1.220000000000000000e+02,1.019741547651492120e+01
1.230000000000000000e+02,1.023141325906472332e+01
1.240000000000000000e+02,1.026478820456762087e+01
1.250000000000000000e+02,1.029753289839046637e+01
1.260000000000000000e+02,1.032963941418076281e+01
1.270000000000000000e+02,1.036109931818173990e+01
1.280000000000000000e+02,1.039190258839040482e+01
1.290000000000000000e+02,1.042203797113575980e+01
1.300000000000000000e+02,1.045149278685481420e+01
1.310000000000000000e+02,1.048025412529086964e+01
1.320000000000000000e+02,1.050830840936099975e+01
1.330000000000000000e+02,1.053564350270963068e+01
1.340000000000000000e+02,1.056224854837720173e+01
1.350000000000000000e+02,1.058811360558475556e+01
1.360000000000000000e+02,1.061323158520560561e+01
1.370000000000000000e+02,1.063759651289553787e+01
1.380000000000000000e+02,1.066120410950764530e+01
1.390000000000000000e+02,1.068405164088783188e+01
1.400000000000000000e+02,1.070614063430274854e+01
1.410000000000000000e+02,1.072747454885323215e+01
1.420000000000000000e+02,1.074806248654582319e+01
1.430000000000000000e+02,1.076791656582052781e+01
1.440000000000000000e+02,1.078705459321477989e+01
1.450000000000000000e+02,1.080550017965380150e+01
1.460000000000000000e+02,1.082328106596235529e+01
1.470000000000000000e+02,1.084042828668702896e+01
1.480000000000000000e+02,1.085697833448217153e+01
1.490000000000000000e+02,1.087297014133915773e+01
1.500000000000000000e+02,1.088844290731465492e+01
1.510000000000000000e+02,1.090344272949482551e+01
1.520000000000000000e+02,1.091801782951690392e+01
1.530000000000000000e+02,1.093221689619859838e+01
1.540000000000000000e+02,1.094609331356769388e+01
1.550000000000000000e+02,1.095969908937108883e+01
1.560000000000000000e+02,1.097308684292723058e+01
1.570000000000000000e+02,1.098630923714282126e+01
1.580000000000000000e+02,1.099941657573424258e+01
1.590000000000000000e+02,1.101246205518689969e+01
1.600000000000000000e+02,1.102549287797029365e+01
1.610000000000000000e+02,1.103856194974837202e+01
1.620000000000000000e+02,1.105171324167784874e+01
1.630000000000000000e+02,1.106499823942522731e+01
1.640000000000000000e+02,1.107846592302838218e+01
1.650000000000000000e+02,1.109215878549489531e+01
1.660000000000000000e+02,1.110612807917357792e+01
1.670000000000000000e+02,1.112041569760097381e+01
1.680000000000000000e+02,1.113506682567731332e+01
1.690000000000000000e+02,1.115013269275202390e+01
1.700000000000000000e+02,1.116566350720793999e+01
1.710000000000000000e+02,1.118171573108908490e+01
1.720000000000000000e+02,1.119833719183725407e+01
1.730000000000000000e+02,1.121558735052034805e+01
1.740000000000000000e+02,1.123353400132791258e+01
1.750000000000000000e+02,1.125224538551174547e+01
1.760000000000000000e+02,1.127179607918280269e+01
1.770000000000000000e+02,1.129226787753851369e+01
1.780000000000000000e+02,1.131375630245452335e+01
1.790000000000000000e+02,1.133635096168292122e+01
1.800000000000000000e+02,1.136016378256228165e+01
1.810000000000000000e+02,1.138531080635472925e+01
1.820000000000000000e+02,1.141192189242119781e+01
1.830000000000000000e+02,1.144012853666197493e+01
1.840000000000000000e+02,1.147005197841038360e+01
1.850000000000000000e+02,1.150180847000266127e+01
1.860000000000000000e+02,1.153548332607596727e+01
1.870000000000000000e+02,1.157111099795287146e+01
1.880000000000000000e+02,1.160863460982187334e+01
1.890000000000000000e+02,1.164785125856634806e+01
1.900000000000000000e+02,1.168837125980075164e+01
1.910000000000000000e+02,1.172957053986597487e+01
1.920000000000000000e+02,1.177064717545282768e+01
1.930000000000000000e+02,1.181075428652635750e+01
1.940000000000000000e+02,1.184928628001345352e+01
1.950000000000000000e+02,1.188608234924914875e+01
1.960000000000000000e+02,1.192137452879549109e+01
1.970000000000000000e+02,1.195548200981369114e+01
1.980000000000000000e+02,1.198855461329830163e+01
1.990000000000000000e+02,1.202071805748225408e+01
2.000000000000000000e+02,1.205205899728217922e+01
2.010000000000000000e+02,1.208264468852313023e+01
2.020000000000000000e+02,1.211252994480255474e+01
2.030000000000000000e+02,1.214177410009891211e+01
2.040000000000000000e+02,1.217040878768303003e+01
2.050000000000000000e+02,1.219846899320275391e+01
2.060000000000000000e+02,1.222598540786083987e+01
2.070000000000000000e+02,1.225299211223238771e+01
2.080000000000000000e+02,1.227951060999383159e+01
2.090000000000000000e+02,1.230555939317575387e+01
2.100000000000000000e+02,1.233115956086764520e+01
2.110000000000000000e+02,1.235633286037444378e+01
2.120000000000000000e+02,1.238109130078183995e+01
2.130000000000000000e+02,1.240544983056624417e+01
2.140000000000000000e+02,1.242942583243580934e+01
2.150000000000000000e+02,1.245302678071661795e+01
2.160000000000000000e+02,1.247627382263254070e+01
2.170000000000000000e+02,1.249917343317044605e+01
2.180000000000000000e+02,1.252173426316119276e+01
2.190000000000000000e+02,1.254396978153946485e+01
2.200000000000000000e+02,1.256588425755336402e+01
2.210000000000000000e+02,1.258749213307969228e+01
2.220000000000000000e+02,1.260879775105265566e+01
2.230000000000000000e+02,1.262980903211560602e+01
2.240000000000000000e+02,1.265053493054261935e+01
2.250000000000000000e+02,1.267098228527713921e+01
2.260000000000000000e+02,1.269115578402364797e+01
2.270000000000000000e+02,1.271106415757494545e+01
2.280000000000000000e+02,1.273071549637012012e+01
2.290000000000000000e+02,1.275011042234351244e+01
2.300000000000000000e+02,1.276925885924998738e+01
2.310000000000000000e+02,1.278816400446795143e+01
2.320000000000000000e+02,1.280682956725381416e+01
2.330000000000000000e+02,1.282526367642251230e+01
2.340000000000000000e+02,1.284346732242271649e+01
2.350000000000000000e+02,1.286144719746894971e+01
2.360000000000000000e+02,1.287920721908233190e+01
2.370000000000000000e+02,1.289675180715578762e+01
2.380000000000000000e+02,1.291408377249944017e+01
2.390000000000000000e+02,1.293120741951810260e+01
2.400000000000000000e+02,1.294812727057801638e+01
2.410000000000000000e+02,1.296484708928629281e+01
2.420000000000000000e+02,1.298137037752445622e+01
2.430000000000000000e+02,1.299769947885513055e+01
2.440000000000000000e+02,1.301383787463248609e+01
2.450000000000000000e+02,1.302978858474222790e+01
2.460000000000000000e+02,1.304555348613738097e+01
2.470000000000000000e+02,1.306113668949291551e+01
2.480000000000000000e+02,1.307654239109441541e+01
2.490000000000000000e+02,1.309177097973561033e+01
2.500000000000000000e+02,1.310682616811521761e+01
2.510000000000000000e+02,1.312171073995186177e+01
2.520000000000000000e+02,1.313642744303593446e+01
2.530000000000000000e+02,1.315097574130843938e+01
2.540000000000000000e+02,1.316536461583299733e+01
2.550000000000000000e+02,1.317959123359493567e+01
2.560000000000000000e+02,1.319365835802794962e+01
2.570000000000000000e+02,1.320756939066355784e+01
2.580000000000000000e+02,1.322132736052936863e+01
2.590000000000000000e+02,1.323493111937459510e+01
2.600000000000000000e+02,1.324838605560683824e+01
2.610000000000000000e+02,1.326169264674135562e+01
2.620000000000000000e+02,1.327485262046162617e+01
2.630000000000000000e+02,1.328786794796208248e+01
2.640000000000000000e+02,1.330074070955002519e+01
2.650000000000000000e+02,1.331347454688966891e+01
2.660000000000000000e+02,1.332606865005362273e+01
2.670000000000000000e+02,1.333852648468471713e+01
2.680000000000000000e+02,1.335084846257893787e+01
2.690000000000000000e+02,1.336303773888106683e+01
2.700000000000000000e+02,1.337509534515322684e+01
2.710000000000000000e+02,1.338702282159122170e+01
2.720000000000000000e+02,1.339882208228924476e+01
2.730000000000000000e+02,1.341049521695315327e+01
2.740000000000000000e+02,1.342204306015551474e+01
2.750000000000000000e+02,1.343346688891090324e+01
2.760000000000000000e+02,1.344476738292054385e+01
2.770000000000000000e+02,1.345594870278576494e+01
2.780000000000000000e+02,1.346700981239598782e+01
2.790000000000000000e+02,1.347795328571995555e+01
2.800000000000000000e+02,1.348878045233833234e+01
2.810000000000000000e+02,1.349949262817326101e+01
2.820000000000000000e+02,1.351009073097364954e+01
2.830000000000000000e+02,1.352057726867717946e+01
2.840000000000000000e+02,1.353095236324351980e+01
2.850000000000000000e+02,1.354121766334524679e+01
2.860000000000000000e+02,1.355137410187048097e+01
2.870000000000000000e+02,1.356142400190348596e+01
2.880000000000000000e+02,1.357136820660388210e+01
2.890000000000000000e+02,1.358120767686189900e+01
2.900000000000000000e+02,1.359094387080208577e+01
2.910000000000000000e+02,1.360057772783609664e+01
2.920000000000000000e+02,1.361010967248249237e+01
2.930000000000000000e+02,1.361954233169058526e+01
2.940000000000000000e+02,1.362887654944596783e+01
2.950000000000000000e+02,1.363811316139669749e+01
2.960000000000000000e+02,1.364725205222789484e+01
2.970000000000000000e+02,1.365629712078752789e+01
2.980000000000000000e+02,1.366524647467232256e+01
2.990000000000000000e+02,1.367410348676476239e+01
3.000000000000000000e+02,1.368286738248231238e+01
3.010000000000000000e+02,1.369154075997926867e+01
3.020000000000000000e+02,1.370012358160651544e+01
3.030000000000000000e+02,1.370861661652743813e+01
3.040000000000000000e+02,1.371702243118884468e+01
3.050000000000000000e+02,1.372534059382351757e+01
3.060000000000000000e+02,1.373357141657503000e+01
3.070000000000000000e+02,1.374171787274463163e+01
3.080000000000000000e+02,1.374978056585070618e+01
3.090000000000000000e+02,1.375775947539972677e+01
3.100000000000000000e+02,1.376565556668561996e+01
3.110000000000000000e+02,1.377346998301864289e+01
3.120000000000000000e+02,1.378120404482707784e+01
3.130000000000000000e+02,1.378885801743923878e+01
3.140000000000000000e+02,1.379643370001617342e+01
3.150000000000000000e+02,1.380393017834627933e+01
3.160000000000000000e+02,1.381135040590760887e+01
3.170000000000000000e+02,1.381869339784783079e+01
3.180000000000000000e+02,1.382596135555546191e+01
3.190000000000000000e+02,1.383315371610828493e+01
3.200000000000000000e+02,1.384027260559641981e+01
3.210000000000000000e+02,1.384731855195572514e+01
3.220000000000000000e+02,1.385429189592944788e+01
3.230000000000000000e+02,1.386119346224142568e+01
3.240000000000000000e+02,1.386802461810790277e+01
3.250000000000000000e+02,1.387478562886812128e+01
3.260000000000000000e+02,1.388147627090924274e+01
3.270000000000000000e+02,1.388809971823818223e+01
3.280000000000000000e+02,1.389465470468584485e+01
3.290000000000000000e+02,1.390114245070505916e+01
3.300000000000000000e+02,1.390756398883962319e+01
3.310000000000000000e+02,1.391391980189415811e+01
3.320000000000000000e+02,1.392021042961936139e+01
3.330000000000000000e+02,1.392643755492716373e+01
3.340000000000000000e+02,1.393260026003944851e+01
3.350000000000000000e+02,1.393870046060816037e+01
3.360000000000000000e+02,1.394473837844787489e+01
3.370000000000000000e+02,1.395071423307638270e+01
3.380000000000000000e+02,1.395662950376412148e+01
3.390000000000000000e+02,1.396248374183009666e+01
3.400000000000000000e+02,1.396827853850657419e+01
3.410000000000000000e+02,1.397401505870340621e+01
3.420000000000000000e+02,1.397969242561152470e+01
3.430000000000000000e+02,1.398531257685706741e+01
3.440000000000000000e+02,1.399087493081437827e+01
3.450000000000000000e+02,1.399638069906061233e+01
3.460000000000000000e+02,1.400183108807991417e+01
3.470000000000000000e+02,1.400722521116776775e+01
3.480000000000000000e+02,1.401256492551742383e+01
3.490000000000000000e+02,1.401785011557107019e+01
3.500000000000000000e+02,1.402308185550731068e+01
3.510000000000000000e+02,1.402826067979681213e+01
3.520000000000000000e+02,1.403338593140079560e+01
3.530000000000000000e+02,1.403845968636965047e+01
3.540000000000000000e+02,1.404348187688345995e+01
3.550000000000000000e+02,1.404845308670918413e+01
3.560000000000000000e+02,1.405337377837926205e+01
3.570000000000000000e+02,1.405824470826559391e+01
3.580000000000000000e+02,1.406306603775001385e+01
3.590000000000000000e+02,1.406783893234201877e+01
3.600000000000000000e+02,1.407256348945753821e+01
3.610000000000000000e+02,1.407724051417284095e+01
3.620000000000000000e+02,1.408186980497000107e+01
3.630000000000000000e+02,1.408645245781923272e+01
3.640000000000000000e+02,1.409098856271210032e+01
3.650000000000000000e+02,1.409547867989019920e+01
3.660000000000000000e+02,1.409992342619970884e+01
3.670000000000000000e+02,1.410432306303786554e+01
3.680000000000000000e+02,1.410867832079970974e+01
3.690000000000000000e+02,1.411298922201775596e+01
3.700000000000000000e+02,1.411725631701321859e+01
3.710000000000000000e+02,1.412148103452674341e+01
3.720000000000000000e+02,1.412566280448039535e+01
3.730000000000000000e+02,1.412980234732679463e+01
3.740000000000000000e+02,1.413390014671679573e+01
3.750000000000000000e+02,1.413795586457171716e+01
3.760000000000000000e+02,1.414197138708024504e+01
3.770000000000000000e+02,1.414594608004299658e+01
3.780000000000000000e+02,1.414988071321076113e+01
3.790000000000000000e+02,1.415377570336882229e+01
3.800000000000000000e+02,1.415763152415375714e+01
3.810000000000000000e+02,1.416144777199224869e+01
3.820000000000000000e+02,1.416522637713579691e+01
3.830000000000000000e+02,1.416896634969857871e+01
3.840000000000000000e+02,1.417266874103295393e+01
3.850000000000000000e+02,1.417633401723732689e+01
3.860000000000000000e+02,1.417996188605172847e+01
3.870000000000000000e+02,1.418355374273038016e+01
3.880000000000000000e+02,1.418710905990052851e+01
3.890000000000000000e+02,1.419062847333082544e+01
3.900000000000000000e+02,1.419411284941411999e+01
3.910000000000000000e+02,1.419756148434269427e+01
3.920000000000000000e+02,1.420097582287505666e+01
3.930000000000000000e+02,1.420435597208085987e+01
3.940000000000000000e+02,1.420770163241693496e+01
3.950000000000000000e+02,1.421101418538822436e+01
3.960000000000000000e+02,1.421429298166286159e+01
3.970000000000000000e+02,1.421753887833834540e+01
3.980000000000000000e+02,1.422075180434766750e+01
