# Time [s], Mass [Kg]
1.000000000000000000e+00,1.000000000000000000e+00
2.000000000000000000e+00,1.000000000000000000e+00
3.000000000000000000e+00,1.000000000000000000e+00
4.000000000000000000e+00,1.000000000000000000e+00
5.000000000000000000e+00,1.000000000000000000e+00
6.000000000000000000e+00,9.999999400000000316e-01
7.000000000000000000e+00,9.999995799999999990e-01
8.000000000000000000e+00,9.999980899999999506e-01
9.000000000000000000e+00,9.999929100000000126e-01
1.000000000000000000e+01,9.999779500000000043e-01
1.100000000000000000e+01,9.999405099999999491e-01
1.200000000000000000e+01,9.997369600000000078e-01
1.300000000000000000e+01,9.991919400000000007e-01
1.400000000000000000e+01,9.980423999999999962e-01
1.500000000000000000e+01,9.961754699999999518e-01
1.600000000000000000e+01,9.937280400000000347e-01
1.700000000000000000e+01,9.910336100000000092e-01
1.800000000000000000e+01,9.884581000000000062e-01
1.900000000000000000e+01,9.863851700000000333e-01
2.000000000000000000e+01,9.852749100000000038e-01
2.100000000000000000e+01,9.843549700000000513e-01
2.200000000000000000e+01,9.829186800000000446e-01
2.300000000000000000e+01,9.810189000000000270e-01
2.400000000000000000e+01,9.788365999999999456e-01
2.500000000000000000e+01,9.765840799999999655e-01
2.600000000000000000e+01,9.744840900000000250e-01
2.700000000000000000e+01,9.727282499999999610e-01
2.800000000000000000e+01,9.714282199999999534e-01
2.900000000000000000e+01,9.704863999999999713e-01
3.000000000000000000e+01,9.693155300000000363e-01
3.100000000000000000e+01,9.678375099999999565e-01
3.200000000000000000e+01,9.661297199999999696e-01
3.300000000000000000e+01,9.642868599999999679e-01
3.400000000000000000e+01,9.624316699999999614e-01
3.500000000000000000e+01,9.606750600000000251e-01
3.600000000000000000e+01,9.591182499999999500e-01
3.700000000000000000e+01,9.578109999999999680e-01
3.800000000000000000e+01,9.567174899999999482e-01
3.900000000000000000e+01,9.556852599999999809e-01
4.000000000000000000e+01,9.544823799999999636e-01
4.100000000000000000e+01,9.531040200000000517e-01
4.200000000000000000e+01,9.516020400000000379e-01
4.300000000000000000e+01,9.500325899999999546e-01
4.400000000000000000e+01,9.484607000000000454e-01
4.500000000000000000e+01,9.469465000000000243e-01
4.600000000000000000e+01,9.455417400000000194e-01
4.700000000000000000e+01,9.442760300000000440e-01
4.800000000000000000e+01,9.431444399999999728e-01
4.900000000000000000e+01,9.420946799999999621e-01
5.000000000000000000e+01,9.410377699999999956e-01
5.100000000000000000e+01,9.398898500000000267e-01
5.200000000000000000e+01,9.386331999999999454e-01
5.300000000000000000e+01,9.373010400000000297e-01
5.400000000000000000e+01,9.359288199999999946e-01
5.500000000000000000e+01,9.345527900000000221e-01
5.600000000000000000e+01,9.332072700000000331e-01
5.700000000000000000e+01,9.319216599999999850e-01
5.800000000000000000e+01,9.307144299999999815e-01
5.900000000000000000e+01,9.295893899999999599e-01
6.000000000000000000e+01,9.285301000000000249e-01
6.100000000000000000e+01,9.275005499999999792e-01
6.200000000000000000e+01,9.264543100000000031e-01
6.300000000000000000e+01,9.253544799999999793e-01
6.400000000000000000e+01,9.241889699999999985e-01
6.500000000000000000e+01,9.229713699999999577e-01
6.600000000000000000e+01,9.217251499999999931e-01
6.700000000000000000e+01,9.204731000000000440e-01
6.800000000000000000e+01,9.192361799999999583e-01
6.900000000000000000e+01,9.180323500000000525e-01
7.000000000000000000e+01,9.168736899999999634e-01
7.100000000000000000e+01,9.157643300000000153e-01
7.200000000000000000e+01,9.146987199999999651e-01
7.300000000000000000e+01,9.136607100000000425e-01
7.400000000000000000e+01,9.126263900000000096e-01
7.500000000000000000e+01,9.115710900000000283e-01
7.600000000000000000e+01,9.104770399999999597e-01
7.700000000000000000e+01,9.093397899999999812e-01
7.800000000000000000e+01,9.081673000000000107e-01
7.900000000000000000e+01,9.069744899999999665e-01
8.000000000000000000e+01,9.057770400000000333e-01
8.100000000000000000e+01,9.045888199999999602e-01
8.200000000000000000e+01,9.034206900000000262e-01
8.300000000000000000e+01,9.022799099999999628e-01
8.400000000000000000e+01,9.011678100000000136e-01
8.500000000000000000e+01,9.000799699999999515e-01
8.600000000000000000e+01,8.990058300000000058e-01
8.700000000000000000e+01,8.979304999999999648e-01
8.800000000000000000e+01,8.968386699999999490e-01
8.900000000000000000e+01,8.957182799999999778e-01
9.000000000000000000e+01,8.945651100000000522e-01
9.100000000000000000e+01,8.933823699999999812e-01
9.200000000000000000e+01,8.921795500000000434e-01
9.300000000000000000e+01,8.909673700000000363e-01
9.400000000000000000e+01,8.897565600000000297e-01
9.500000000000000000e+01,8.885551099999999813e-01
9.600000000000000000e+01,8.873676700000000528e-01
9.700000000000000000e+01,8.861948800000000181e-01
9.800000000000000000e+01,8.850332499999999936e-01
9.900000000000000000e+01,8.838751900000000328e-01
1.000000000000000000e+02,8.827102199999999899e-01
1.010000000000000000e+02,8.815279599999999993e-01
1.020000000000000000e+02,8.803205499999999795e-01
1.030000000000000000e+02,8.790843499999999588e-01
1.040000000000000000e+02,8.778217400000000170e-01
1.050000000000000000e+02,8.765392300000000025e-01
1.060000000000000000e+02,8.752448000000000450e-01
1.070000000000000000e+02,8.739462500000000356e-01
1.080000000000000000e+02,8.726486599999999649e-01
1.090000000000000000e+02,8.713544600000000528e-01
1.100000000000000000e+02,8.700624700000000322e-01
1.110000000000000000e+02,8.687683299999999775e-01
1.120000000000000000e+02,8.674648999999999832e-01
1.130000000000000000e+02,8.661444799999999944e-01
1.140000000000000000e+02,8.647997400000000390e-01
1.150000000000000000e+02,8.634266299999999728e-01
1.160000000000000000e+02,8.620247800000000460e-01
1.170000000000000000e+02,8.605977299999999497e-01
1.180000000000000000e+02,8.591508900000000004e-01
1.190000000000000000e+02,8.576897999999999467e-01
1.200000000000000000e+02,8.562184600000000145e-01
1.210000000000000000e+02,8.547381200000000456e-01
1.220000000000000000e+02,8.532471700000000547e-01
1.230000000000000000e+02,8.517414300000000216e-01
1.240000000000000000e+02,8.502147199999999794e-01
1.250000000000000000e+02,8.486610700000000174e-01
1.260000000000000000e+02,8.470752799999999860e-01
1.270000000000000000e+02,8.454552300000000020e-01
1.280000000000000000e+02,8.438014999999999821e-01
1.290000000000000000e+02,8.421170700000000231e-01
1.300000000000000000e+02,8.404057600000000017e-01
1.310000000000000000e+02,8.386707300000000309e-01
1.320000000000000000e+02,8.369132299999999525e-01
1.330000000000000000e+02,8.351321200000000333e-01
1.340000000000000000e+02,8.333242499999999886e-01
1.350000000000000000e+02,8.314855700000000072e-01
1.360000000000000000e+02,8.296119600000000371e-01
1.370000000000000000e+02,8.277010299999999487e-01
1.380000000000000000e+02,8.257523199999999841e-01
1.390000000000000000e+02,8.237678999999999974e-01
1.400000000000000000e+02,8.217512399999999939e-01
1.410000000000000000e+02,8.197063199999999883e-01
1.420000000000000000e+02,8.176363100000000328e-01
1.430000000000000000e+02,8.155426999999999538e-01
1.440000000000000000e+02,8.134254800000000341e-01
1.450000000000000000e+02,8.112842999999999583e-01
1.460000000000000000e+02,8.091187499999999977e-01
1.470000000000000000e+02,8.069297100000000222e-01
1.480000000000000000e+02,8.047195700000000507e-01
1.490000000000000000e+02,8.024923200000000367e-01
1.500000000000000000e+02,8.002528500000000156e-01
1.510000000000000000e+02,7.980061200000000410e-01
1.520000000000000000e+02,7.957559800000000294e-01
1.530000000000000000e+02,7.935054900000000355e-01
1.540000000000000000e+02,7.912563099999999627e-01
1.550000000000000000e+02,7.890099900000000499e-01
1.560000000000000000e+02,7.867683800000000449e-01
1.570000000000000000e+02,7.845341000000000120e-01
1.580000000000000000e+02,7.823105500000000490e-01
1.590000000000000000e+02,7.801017199999999985e-01
1.600000000000000000e+02,7.779113100000000225e-01
1.610000000000000000e+02,7.757425300000000412e-01
1.620000000000000000e+02,7.735975999999999964e-01
1.630000000000000000e+02,7.714782399999999818e-01
1.640000000000000000e+02,7.693857600000000296e-01
1.650000000000000000e+02,7.673218800000000117e-01
1.660000000000000000e+02,7.652887099999999831e-01
1.670000000000000000e+02,7.632889200000000374e-01
1.680000000000000000e+02,7.613254799999999989e-01
1.690000000000000000e+02,7.594010199999999822e-01
1.700000000000000000e+02,7.575181100000000223e-01
1.710000000000000000e+02,7.556788300000000236e-01
1.720000000000000000e+02,7.538854499999999570e-01
1.730000000000000000e+02,7.521402799999999944e-01
1.740000000000000000e+02,7.504462600000000316e-01
1.750000000000000000e+02,7.488068300000000344e-01
1.760000000000000000e+02,7.472259999999999458e-01
1.770000000000000000e+02,7.457079300000000188e-01
1.780000000000000000e+02,7.442569700000000177e-01
1.790000000000000000e+02,7.428776599999999952e-01
1.800000000000000000e+02,7.415750599999999526e-01
1.810000000000000000e+02,7.403545999999999738e-01
1.820000000000000000e+02,7.392225300000000443e-01
1.830000000000000000e+02,7.381854700000000102e-01
1.840000000000000000e+02,7.372503900000000332e-01
1.850000000000000000e+02,7.364239099999999594e-01
1.860000000000000000e+02,7.357120499999999508e-01
1.870000000000000000e+02,7.351193999999999784e-01
1.880000000000000000e+02,7.346481099999999653e-01
1.890000000000000000e+02,7.342962600000000339e-01
1.900000000000000000e+02,7.340558200000000255e-01
1.910000000000000000e+02,7.339113400000000231e-01
1.920000000000000000e+02,7.338397500000000129e-01
1.930000000000000000e+02,7.338137599999999816e-01
1.940000000000000000e+02,7.338086999999999804e-01
1.950000000000000000e+02,7.338086999999999804e-01
1.960000000000000000e+02,7.338086999999999804e-01
1.970000000000000000e+02,7.338086999999999804e-01
1.980000000000000000e+02,7.338086999999999804e-01
1.990000000000000000e+02,7.338086999999999804e-01
2.000000000000000000e+02,7.338086999999999804e-01
2.010000000000000000e+02,7.338086999999999804e-01
2.020000000000000000e+02,7.338086999999999804e-01
2.030000000000000000e+02,7.338086999999999804e-01
2.040000000000000000e+02,7.338086999999999804e-01
2.050000000000000000e+02,7.338086999999999804e-01
2.060000000000000000e+02,7.338086999999999804e-01
2.070000000000000000e+02,7.338086999999999804e-01
2.080000000000000000e+02,7.338086999999999804e-01
2.090000000000000000e+02,7.338086999999999804e-01
2.100000000000000000e+02,7.338086999999999804e-01
2.110000000000000000e+02,7.338086999999999804e-01
2.120000000000000000e+02,7.338086999999999804e-01
2.130000000000000000e+02,7.338086999999999804e-01
2.140000000000000000e+02,7.338086999999999804e-01
2.150000000000000000e+02,7.338086999999999804e-01
2.160000000000000000e+02,7.338086999999999804e-01
2.170000000000000000e+02,7.338086999999999804e-01
2.180000000000000000e+02,7.338086999999999804e-01
2.190000000000000000e+02,7.338086999999999804e-01
2.200000000000000000e+02,7.338086999999999804e-01
2.210000000000000000e+02,7.338086999999999804e-01
2.220000000000000000e+02,7.338086999999999804e-01
2.230000000000000000e+02,7.338086999999999804e-01
2.240000000000000000e+02,7.338086999999999804e-01
2.250000000000000000e+02,7.338086999999999804e-01
2.260000000000000000e+02,7.338086999999999804e-01
2.270000000000000000e+02,7.338086999999999804e-01
2.280000000000000000e+02,7.338086999999999804e-01
2.290000000000000000e+02,7.338086999999999804e-01
2.300000000000000000e+02,7.338086999999999804e-01
2.310000000000000000e+02,7.338086999999999804e-01
2.320000000000000000e+02,7.338086999999999804e-01
2.330000000000000000e+02,7.338086999999999804e-01
2.340000000000000000e+02,7.338086999999999804e-01
2.350000000000000000e+02,7.338086999999999804e-01
2.360000000000000000e+02,7.338086999999999804e-01
2.370000000000000000e+02,7.338086999999999804e-01
2.380000000000000000e+02,7.338086999999999804e-01
2.390000000000000000e+02,7.338086999999999804e-01
2.400000000000000000e+02,7.338086999999999804e-01
2.410000000000000000e+02,7.338086999999999804e-01
2.420000000000000000e+02,7.338086999999999804e-01
2.430000000000000000e+02,7.338086999999999804e-01
2.440000000000000000e+02,7.338086999999999804e-01
2.450000000000000000e+02,7.338086999999999804e-01
2.460000000000000000e+02,7.338086999999999804e-01
2.470000000000000000e+02,7.338086999999999804e-01
2.480000000000000000e+02,7.338086999999999804e-01
2.490000000000000000e+02,7.338086999999999804e-01
2.500000000000000000e+02,7.338086999999999804e-01
2.510000000000000000e+02,7.338086999999999804e-01
2.520000000000000000e+02,7.338086999999999804e-01
2.530000000000000000e+02,7.338086999999999804e-01
2.540000000000000000e+02,7.338086999999999804e-01
2.550000000000000000e+02,7.338086999999999804e-01
2.560000000000000000e+02,7.338086999999999804e-01
2.570000000000000000e+02,7.338086999999999804e-01
2.580000000000000000e+02,7.338086999999999804e-01
2.590000000000000000e+02,7.338086999999999804e-01
2.600000000000000000e+02,7.338086999999999804e-01
2.610000000000000000e+02,7.338086999999999804e-01
2.620000000000000000e+02,7.338086999999999804e-01
2.630000000000000000e+02,7.338086999999999804e-01
2.640000000000000000e+02,7.338086999999999804e-01
2.650000000000000000e+02,7.338086999999999804e-01
2.660000000000000000e+02,7.338086999999999804e-01
2.670000000000000000e+02,7.338086999999999804e-01
2.680000000000000000e+02,7.338086999999999804e-01
2.690000000000000000e+02,7.338086999999999804e-01
2.700000000000000000e+02,7.338086999999999804e-01
2.710000000000000000e+02,7.338086999999999804e-01
2.720000000000000000e+02,7.338086999999999804e-01
2.730000000000000000e+02,7.338086999999999804e-01
2.740000000000000000e+02,7.338086999999999804e-01
2.750000000000000000e+02,7.338086999999999804e-01
2.760000000000000000e+02,7.338086999999999804e-01
2.770000000000000000e+02,7.338086999999999804e-01
2.780000000000000000e+02,7.338086999999999804e-01
2.790000000000000000e+02,7.338086999999999804e-01
2.800000000000000000e+02,7.338086999999999804e-01
2.810000000000000000e+02,7.338086999999999804e-01
2.820000000000000000e+02,7.338086999999999804e-01
2.830000000000000000e+02,7.338086999999999804e-01
2.840000000000000000e+02,7.338086999999999804e-01
2.850000000000000000e+02,7.338086999999999804e-01
2.860000000000000000e+02,7.338086999999999804e-01
2.870000000000000000e+02,7.338086999999999804e-01
2.880000000000000000e+02,7.338086999999999804e-01
2.890000000000000000e+02,7.338086999999999804e-01
2.900000000000000000e+02,7.338086999999999804e-01
2.910000000000000000e+02,7.338086999999999804e-01
2.920000000000000000e+02,7.338086999999999804e-01
2.930000000000000000e+02,7.338086999999999804e-01
2.940000000000000000e+02,7.338086999999999804e-01
2.950000000000000000e+02,7.338086999999999804e-01
2.960000000000000000e+02,7.338086999999999804e-01
2.970000000000000000e+02,7.338086999999999804e-01
2.980000000000000000e+02,7.338086999999999804e-01
2.990000000000000000e+02,7.338086999999999804e-01
3.000000000000000000e+02,7.338086999999999804e-01
3.010000000000000000e+02,7.338086999999999804e-01
3.020000000000000000e+02,7.338086999999999804e-01
3.030000000000000000e+02,7.338086999999999804e-01
3.040000000000000000e+02,7.338086999999999804e-01
3.050000000000000000e+02,7.338086999999999804e-01
3.060000000000000000e+02,7.338086999999999804e-01
3.070000000000000000e+02,7.338086999999999804e-01
3.080000000000000000e+02,7.338086999999999804e-01
3.090000000000000000e+02,7.338086999999999804e-01
3.100000000000000000e+02,7.338086999999999804e-01
3.110000000000000000e+02,7.338086999999999804e-01
3.120000000000000000e+02,7.338086999999999804e-01
3.130000000000000000e+02,7.338086999999999804e-01
3.140000000000000000e+02,7.338086999999999804e-01
3.150000000000000000e+02,7.338086999999999804e-01
3.160000000000000000e+02,7.338086999999999804e-01
3.170000000000000000e+02,7.338086999999999804e-01
3.180000000000000000e+02,7.338086999999999804e-01
3.190000000000000000e+02,7.338086999999999804e-01
3.200000000000000000e+02,7.338086999999999804e-01
3.210000000000000000e+02,7.338086999999999804e-01
3.220000000000000000e+02,7.338086999999999804e-01
3.230000000000000000e+02,7.338086999999999804e-01
3.240000000000000000e+02,7.338086999999999804e-01
3.250000000000000000e+02,7.338086999999999804e-01
3.260000000000000000e+02,7.338086999999999804e-01
3.270000000000000000e+02,7.338086999999999804e-01
3.280000000000000000e+02,7.338086999999999804e-01
3.290000000000000000e+02,7.338086999999999804e-01
3.300000000000000000e+02,7.338086999999999804e-01
3.310000000000000000e+02,7.338086999999999804e-01
3.320000000000000000e+02,7.338086999999999804e-01
3.330000000000000000e+02,7.338086999999999804e-01
3.340000000000000000e+02,7.338086999999999804e-01
3.350000000000000000e+02,7.338086999999999804e-01
3.360000000000000000e+02,7.338086999999999804e-01
3.370000000000000000e+02,7.338086999999999804e-01
3.380000000000000000e+02,7.338086999999999804e-01
3.390000000000000000e+02,7.338086999999999804e-01
3.400000000000000000e+02,7.338086999999999804e-01
3.410000000000000000e+02,7.338086999999999804e-01
3.420000000000000000e+02,7.338086999999999804e-01
3.430000000000000000e+02,7.338086999999999804e-01
3.440000000000000000e+02,7.338086999999999804e-01
3.450000000000000000e+02,7.338086999999999804e-01
3.460000000000000000e+02,7.338086999999999804e-01
3.470000000000000000e+02,7.338086999999999804e-01
3.480000000000000000e+02,7.338086999999999804e-01
3.490000000000000000e+02,7.338086999999999804e-01
3.500000000000000000e+02,7.338086999999999804e-01
3.510000000000000000e+02,7.338086999999999804e-01
3.520000000000000000e+02,7.338086999999999804e-01
3.530000000000000000e+02,7.338086999999999804e-01
3.540000000000000000e+02,7.338086999999999804e-01
3.550000000000000000e+02,7.338086999999999804e-01
3.560000000000000000e+02,7.338086999999999804e-01
3.570000000000000000e+02,7.338086999999999804e-01
3.580000000000000000e+02,7.338086999999999804e-01
3.590000000000000000e+02,7.338086999999999804e-01
3.600000000000000000e+02,7.338086999999999804e-01
3.610000000000000000e+02,7.338086999999999804e-01
3.620000000000000000e+02,7.338086999999999804e-01
3.630000000000000000e+02,7.338086999999999804e-01
3.640000000000000000e+02,7.338086999999999804e-01
3.650000000000000000e+02,7.338086999999999804e-01
3.660000000000000000e+02,7.338086999999999804e-01
3.670000000000000000e+02,7.338086999999999804e-01
3.680000000000000000e+02,7.338086999999999804e-01
3.690000000000000000e+02,7.338086999999999804e-01
3.700000000000000000e+02,7.338086999999999804e-01
3.710000000000000000e+02,7.338086999999999804e-01
3.720000000000000000e+02,7.338086999999999804e-01
3.730000000000000000e+02,7.338086999999999804e-01
3.740000000000000000e+02,7.338086999999999804e-01
3.750000000000000000e+02,7.338086999999999804e-01
3.760000000000000000e+02,7.338086999999999804e-01
3.770000000000000000e+02,7.338086999999999804e-01
3.780000000000000000e+02,7.338086999999999804e-01
3.790000000000000000e+02,7.338086999999999804e-01
3.800000000000000000e+02,7.338086999999999804e-01
3.810000000000000000e+02,7.338086999999999804e-01
3.820000000000000000e+02,7.338086999999999804e-01
3.830000000000000000e+02,7.338086999999999804e-01
3.840000000000000000e+02,7.338086999999999804e-01
3.850000000000000000e+02,7.338086999999999804e-01
3.860000000000000000e+02,7.338086999999999804e-01
3.870000000000000000e+02,7.338086999999999804e-01
3.880000000000000000e+02,7.338086999999999804e-01
3.890000000000000000e+02,7.338086999999999804e-01
3.900000000000000000e+02,7.338086999999999804e-01
3.910000000000000000e+02,7.338086999999999804e-01
3.920000000000000000e+02,7.338086999999999804e-01
3.930000000000000000e+02,7.338086999999999804e-01
3.940000000000000000e+02,7.338086999999999804e-01
3.950000000000000000e+02,7.338086999999999804e-01
3.960000000000000000e+02,7.338086999999999804e-01
3.970000000000000000e+02,7.338086999999999804e-01
3.980000000000000000e+02,7.338086999999999804e-01
3.990000000000000000e+02,7.338086999999999804e-01
