# Time [s], Convective Heat Transfer Coefficient [W/m2K]
1.000000000000000000e+00,0.000000000000000000e+00
2.000000000000000000e+00,0.000000000000000000e+00
3.000000000000000000e+00,0.000000000000000000e+00
4.000000000000000000e+00,1.915079995362458862e-02
5.000000000000000000e+00,3.748642353082986406e-02
6.000000000000000000e+00,5.983475718274645916e-02
7.000000000000000000e+00,9.034761368187844977e-02
8.000000000000000000e+00,1.289100765451444419e-01
9.000000000000000000e+00,1.760599575334635680e-01
1.000000000000000000e+01,2.313289367530153018e-01
1.100000000000000000e+01,2.941054473588986529e-01
1.200000000000000000e+01,3.636440260174493844e-01
1.300000000000000000e+01,4.390155365080443128e-01
1.400000000000000000e+01,5.193166749894995160e-01
1.500000000000000000e+01,6.036913721129498756e-01
1.600000000000000000e+01,6.913395630106425882e-01
1.700000000000000000e+01,7.815412200648252927e-01
1.800000000000000000e+01,8.736836258820886991e-01
1.900000000000000000e+01,9.672264614110744896e-01
2.000000000000000000e+01,1.061711981345551337e+00
2.100000000000000000e+01,1.156755798480313846e+00
2.200000000000000000e+01,1.252023725150685829e+00
2.300000000000000000e+01,1.347242308294930080e+00
2.400000000000000000e+01,1.442186636025553081e+00
2.500000000000000000e+01,1.536661836674170223e+00
2.600000000000000000e+01,1.630513638232525375e+00
2.700000000000000000e+01,1.723611006262061762e+00
2.800000000000000000e+01,1.815852774236704104e+00
2.900000000000000000e+01,1.907150697079911916e+00
3.000000000000000000e+01,1.997437233655637634e+00
3.100000000000000000e+01,2.086661590866037308e+00
3.200000000000000000e+01,2.174782462548937811e+00
3.300000000000000000e+01,2.261768175674767622e+00
3.400000000000000000e+01,2.347596193313018276e+00
3.500000000000000000e+01,2.432251921820123286e+00
3.600000000000000000e+01,2.515728855555508847e+00
3.700000000000000000e+01,2.598022772067728248e+00
3.800000000000000000e+01,2.679133735892063495e+00
3.900000000000000000e+01,2.759067382453184170e+00
4.000000000000000000e+01,2.837831516548072308e+00
4.100000000000000000e+01,2.915433733789140280e+00
4.200000000000000000e+01,2.991887078945331346e+00
4.300000000000000000e+01,3.067208473411662251e+00
4.400000000000000000e+01,3.141408782324735416e+00
4.500000000000000000e+01,3.214507193514074324e+00
4.600000000000000000e+01,3.286519254047617355e+00
4.700000000000000000e+01,3.357461904633026961e+00
4.800000000000000000e+01,3.427355231839959160e+00
4.900000000000000000e+01,3.496217402989388212e+00
5.000000000000000000e+01,3.564065359569549951e+00
5.100000000000000000e+01,3.630917862830477016e+00
5.200000000000000000e+01,3.696795166869438543e+00
5.300000000000000000e+01,3.761715457307557742e+00
5.400000000000000000e+01,3.825697285703461237e+00
5.500000000000000000e+01,3.888759068907939653e+00
5.600000000000000000e+01,3.950918990329213010e+00
5.700000000000000000e+01,4.012195799756632653e+00
5.800000000000000000e+01,4.072606585560515136e+00
5.900000000000000000e+01,4.132169186522458126e+00
6.000000000000000000e+01,4.190901674673086497e+00
6.100000000000000000e+01,4.248819593244628656e+00
6.200000000000000000e+01,4.305939571338159411e+00
6.300000000000000000e+01,4.362278264721607179e+00
6.400000000000000000e+01,4.417853079371695912e+00
6.500000000000000000e+01,4.472677702309877823e+00
6.600000000000000000e+01,4.526767356456014468e+00
6.700000000000000000e+01,4.580138973868070451e+00
6.800000000000000000e+01,4.632804913416207704e+00
6.900000000000000000e+01,4.684780155005729085e+00
7.000000000000000000e+01,4.736079743597331415e+00
7.100000000000000000e+01,4.786715231671438531e+00
7.200000000000000000e+01,4.836701620736463703e+00
7.300000000000000000e+01,4.886050127975992474e+00
7.400000000000000000e+01,4.934775029414461223e+00
7.500000000000000000e+01,4.982887171759424305e+00
7.600000000000000000e+01,5.030400525267724632e+00
7.700000000000000000e+01,5.077324570797270731e+00
7.800000000000000000e+01,5.123673075668400578e+00
7.900000000000000000e+01,5.169455905842498922e+00
8.000000000000000000e+01,5.214683400437655436e+00
8.100000000000000000e+01,5.259366998829121620e+00
8.200000000000000000e+01,5.303516726944413229e+00
8.300000000000000000e+01,5.347143925372030537e+00
8.400000000000000000e+01,5.390257189337642529e+00
8.500000000000000000e+01,5.432865592006066890e+00
8.600000000000000000e+01,5.474979500825864598e+00
8.700000000000000000e+01,5.516607936343578267e+00
8.800000000000000000e+01,5.557758516186456887e+00
8.900000000000000000e+01,5.598442221241474392e+00
9.000000000000000000e+01,5.638666377871963675e+00
9.100000000000000000e+01,5.678439630691356932e+00
9.200000000000000000e+01,5.717768590404492812e+00
9.300000000000000000e+01,5.756662454636352066e+00
9.400000000000000000e+01,5.795128964697794594e+00
9.500000000000000000e+01,5.833174705501634527e+00
9.600000000000000000e+01,5.870807996765093684e+00
9.700000000000000000e+01,5.908035763714828192e+00
9.800000000000000000e+01,5.944864649268895462e+00
9.900000000000000000e+01,5.981301913384633906e+00
1.000000000000000000e+02,6.017353390622290910e+00
1.010000000000000000e+02,6.053026480723307401e+00
1.020000000000000000e+02,6.088327088455364411e+00
1.030000000000000000e+02,6.123261862791102850e+00
1.040000000000000000e+02,6.157835931805762719e+00
1.050000000000000000e+02,6.192056131031514532e+00
1.060000000000000000e+02,6.225928010879381524e+00
1.070000000000000000e+02,6.259457160372413398e+00
1.080000000000000000e+02,6.292648968346503224e+00
1.090000000000000000e+02,6.325508545935506710e+00
1.100000000000000000e+02,6.358042391230844359e+00
1.110000000000000000e+02,6.390254936787020945e+00
1.120000000000000000e+02,6.422151263783018926e+00
1.130000000000000000e+02,6.453736789061444767e+00
1.140000000000000000e+02,6.485015022354452263e+00
1.150000000000000000e+02,6.515992206301427281e+00
1.160000000000000000e+02,6.546672708950794117e+00
1.170000000000000000e+02,6.577060734757337102e+00
1.180000000000000000e+02,6.607161136607810015e+00
1.190000000000000000e+02,6.636977526653724979e+00
1.200000000000000000e+02,6.666514965613288268e+00
1.210000000000000000e+02,6.695777549690959063e+00
1.220000000000000000e+02,6.724769747005489684e+00
1.230000000000000000e+02,6.753494328854844575e+00
1.240000000000000000e+02,6.781956258884322963e+00
1.250000000000000000e+02,6.810159573489020346e+00
1.260000000000000000e+02,6.838107921106368003e+00
1.270000000000000000e+02,6.865805323262665461e+00
1.280000000000000000e+02,6.893254189230425766e+00
1.290000000000000000e+02,6.920459779374098730e+00
1.300000000000000000e+02,6.947424516470625200e+00
1.310000000000000000e+02,6.974152668058401616e+00
1.320000000000000000e+02,7.000646693916571017e+00
1.330000000000000000e+02,7.026910159067666584e+00
1.340000000000000000e+02,7.052947222451976472e+00
1.350000000000000000e+02,7.078760513279973132e+00
1.360000000000000000e+02,7.104352578339991453e+00
1.370000000000000000e+02,7.129726806244947923e+00
1.380000000000000000e+02,7.154887398057632630e+00
1.390000000000000000e+02,7.179835933381657931e+00
1.400000000000000000e+02,7.204575745956099730e+00
1.410000000000000000e+02,7.229109848166537233e+00
1.420000000000000000e+02,7.253441387304414789e+00
1.430000000000000000e+02,7.277572536400891856e+00
1.440000000000000000e+02,7.301505404880014538e+00
1.450000000000000000e+02,7.325244440487980846e+00
1.460000000000000000e+02,7.348790935667861568e+00
1.470000000000000000e+02,7.372147220640207443e+00
1.480000000000000000e+02,7.395316844911659970e+00
1.490000000000000000e+02,7.418301349074065243e+00
1.500000000000000000e+02,7.441103498124368443e+00
1.510000000000000000e+02,7.463726193779299578e+00
1.520000000000000000e+02,7.486171217536003120e+00
1.530000000000000000e+02,7.508440717782811191e+00
1.540000000000000000e+02,7.530536579924112850e+00
1.550000000000000000e+02,7.552461870841084668e+00
1.560000000000000000e+02,7.574218152558501949e+00
1.570000000000000000e+02,7.595807960162240136e+00
1.580000000000000000e+02,7.617233362325991131e+00
1.590000000000000000e+02,7.638496175286669576e+00
1.600000000000000000e+02,7.659598768149982639e+00
1.610000000000000000e+02,7.680543055841299704e+00
1.620000000000000000e+02,7.701330116957721295e+00
1.630000000000000000e+02,7.721963161045956703e+00
1.640000000000000000e+02,7.742442785661239668e+00
1.650000000000000000e+02,7.762771513146950575e+00
1.660000000000000000e+02,7.782951421702850148e+00
1.670000000000000000e+02,7.802983388129383968e+00
1.680000000000000000e+02,7.822869987868559249e+00
1.690000000000000000e+02,7.842612407154928356e+00
1.700000000000000000e+02,7.862212750500392922e+00
1.710000000000000000e+02,7.881672510616009042e+00
1.720000000000000000e+02,7.900993146213194152e+00
1.730000000000000000e+02,7.920176269599977559e+00
1.740000000000000000e+02,7.939223271721474795e+00
1.750000000000000000e+02,7.958136251788269888e+00
1.760000000000000000e+02,7.976916713000032466e+00
1.770000000000000000e+02,7.995565576733781654e+00
1.780000000000000000e+02,8.014084654261798946e+00
1.790000000000000000e+02,8.032475175006450030e+00
1.800000000000000000e+02,8.050738883618215880e+00
1.810000000000000000e+02,8.068877129541368376e+00
1.820000000000000000e+02,8.086890876037323039e+00
1.830000000000000000e+02,8.104781599888358556e+00
1.840000000000000000e+02,8.122550570532016678e+00
1.850000000000000000e+02,8.140199384710607333e+00
1.860000000000000000e+02,8.157729080072060768e+00
1.870000000000000000e+02,8.175140847881776196e+00
1.880000000000000000e+02,8.192436553121090981e+00
1.890000000000000000e+02,8.209616462615580090e+00
1.900000000000000000e+02,8.226682391790852478e+00
1.910000000000000000e+02,8.243635433494755915e+00
1.920000000000000000e+02,8.260476487618447550e+00
1.930000000000000000e+02,8.277207119405273872e+00
1.940000000000000000e+02,8.293827674264802496e+00
1.950000000000000000e+02,8.310340353199121566e+00
1.960000000000000000e+02,8.326745293085210164e+00
1.970000000000000000e+02,8.343044138936658527e+00
1.980000000000000000e+02,8.359237501806104476e+00
1.990000000000000000e+02,8.375326480765078685e+00
2.000000000000000000e+02,8.391312653646870956e+00
2.010000000000000000e+02,8.407195915093806704e+00
2.020000000000000000e+02,8.422978633208227706e+00
2.030000000000000000e+02,8.438660343219956061e+00
2.040000000000000000e+02,8.454243040931402220e+00
2.050000000000000000e+02,8.469727547642829535e+00
2.060000000000000000e+02,8.485114344645968032e+00
2.070000000000000000e+02,8.500404551440812639e+00
2.080000000000000000e+02,8.515599914376231538e+00
2.090000000000000000e+02,8.530701830541802977e+00
2.100000000000000000e+02,8.545713598207543171e+00
2.110000000000000000e+02,8.560640703340162361e+00
2.120000000000000000e+02,8.575491578095974177e+00
2.130000000000000000e+02,8.590277868110165471e+00
2.140000000000000000e+02,8.605014694588064117e+00
2.150000000000000000e+02,8.619719965755018976e+00
2.160000000000000000e+02,8.634413859005009684e+00
2.170000000000000000e+02,8.649118156327455509e+00
2.180000000000000000e+02,8.663853564776488270e+00
2.190000000000000000e+02,8.678640975809710056e+00
2.200000000000000000e+02,8.693499600303582042e+00
2.210000000000000000e+02,8.708445912664116051e+00
2.220000000000000000e+02,8.723495231562917951e+00
2.230000000000000000e+02,8.738659435979203138e+00
2.240000000000000000e+02,8.753948547980147765e+00
2.250000000000000000e+02,8.769369086875844488e+00
2.260000000000000000e+02,8.784926099417395662e+00
2.270000000000000000e+02,8.800621672136307083e+00
2.280000000000000000e+02,8.816456337852857317e+00
2.290000000000000000e+02,8.832428352574847708e+00
2.300000000000000000e+02,8.848534783154955008e+00
2.310000000000000000e+02,8.864771231665487861e+00
2.320000000000000000e+02,8.881131863320995024e+00
2.330000000000000000e+02,8.897609878109948411e+00
2.340000000000000000e+02,8.914197383309076628e+00
2.350000000000000000e+02,8.930887323930692290e+00
2.360000000000000000e+02,8.947670691280270816e+00
2.370000000000000000e+02,8.964538600967724591e+00
2.380000000000000000e+02,8.981482583150210530e+00
2.390000000000000000e+02,8.998493275755784282e+00
2.400000000000000000e+02,9.015561595432011188e+00
2.410000000000000000e+02,9.032678734188600345e+00
2.420000000000000000e+02,9.049836155870719878e+00
2.430000000000000000e+02,9.067025307704218662e+00
2.440000000000000000e+02,9.084237905586432404e+00
2.450000000000000000e+02,9.101466071438601091e+00
2.460000000000000000e+02,9.118702326475506936e+00
2.470000000000000000e+02,9.135939023437673612e+00
2.480000000000000000e+02,9.153169607863485879e+00
2.490000000000000000e+02,9.170387902083970033e+00
2.500000000000000000e+02,9.187587543792011147e+00
2.510000000000000000e+02,9.204762956833935306e+00
2.520000000000000000e+02,9.221908786157660742e+00
2.530000000000000000e+02,9.239020168053846405e+00
2.540000000000000000e+02,9.256092037928945970e+00
2.550000000000000000e+02,9.273119950715804194e+00
2.560000000000000000e+02,9.290100069436451946e+00
2.570000000000000000e+02,9.307028613433564246e+00
2.580000000000000000e+02,9.323902261142015035e+00
2.590000000000000000e+02,9.340717470792558430e+00
2.600000000000000000e+02,9.357471419964758397e+00
2.610000000000000000e+02,9.374161193271342896e+00
2.620000000000000000e+02,9.390784845714238216e+00
2.630000000000000000e+02,9.407339004437998753e+00
2.640000000000000000e+02,9.423821793369663524e+00
2.650000000000000000e+02,9.440231493355978998e+00
2.660000000000000000e+02,9.456565622948405192e+00
2.670000000000000000e+02,9.472823168964026763e+00
2.680000000000000000e+02,9.489001701023829227e+00
2.690000000000000000e+02,9.505099986749552698e+00
2.700000000000000000e+02,9.521116680007528643e+00
2.710000000000000000e+02,9.537050193934192066e+00
2.720000000000000000e+02,9.552899346106567435e+00
2.730000000000000000e+02,9.568662584547841021e+00
2.740000000000000000e+02,9.584339395359041447e+00
2.750000000000000000e+02,9.599927872254378158e+00
2.760000000000000000e+02,9.615428030778016222e+00
2.770000000000000000e+02,9.630837864889178590e+00
2.780000000000000000e+02,9.646157530600085295e+00
2.790000000000000000e+02,9.661385423914062187e+00
2.800000000000000000e+02,9.676521208738124713e+00
2.810000000000000000e+02,9.691563802875760913e+00
2.820000000000000000e+02,9.706512507636359643e+00
2.830000000000000000e+02,9.721366382447980570e+00
2.840000000000000000e+02,9.736124989326620849e+00
2.850000000000000000e+02,9.750787523299399240e+00
2.860000000000000000e+02,9.765353186027112997e+00
2.870000000000000000e+02,9.779821797493740476e+00
2.880000000000000000e+02,9.794192688490774401e+00
2.890000000000000000e+02,9.808464951013771582e+00
2.900000000000000000e+02,9.822638169512922346e+00
2.910000000000000000e+02,9.836711445833993039e+00
2.920000000000000000e+02,9.850684853580997213e+00
2.930000000000000000e+02,9.864556777739927895e+00
2.940000000000000000e+02,9.878328016870584705e+00
2.950000000000000000e+02,9.891997323142053489e+00
2.960000000000000000e+02,9.905564174399895450e+00
2.970000000000000000e+02,9.919028169173319753e+00
2.980000000000000000e+02,9.932388906261845563e+00
2.990000000000000000e+02,9.945645392903800897e+00
3.000000000000000000e+02,9.958797468842547573e+00
3.010000000000000000e+02,9.971844853447093371e+00
3.020000000000000000e+02,9.984786912365818168e+00
3.030000000000000000e+02,9.997622661973043279e+00
3.040000000000000000e+02,1.001035240910799118e+01
3.050000000000000000e+02,1.002297470498368703e+01
3.060000000000000000e+02,1.003548985409427985e+01
3.070000000000000000e+02,1.004789745738659512e+01
3.080000000000000000e+02,1.006019607387893799e+01
3.090000000000000000e+02,1.007238623312612269e+01
3.100000000000000000e+02,1.008446684298378138e+01
3.110000000000000000e+02,1.009643716107219014e+01
3.120000000000000000e+02,1.010829713412252140e+01
3.130000000000000000e+02,1.012004658970047366e+01
3.140000000000000000e+02,1.013168432522526707e+01
3.150000000000000000e+02,1.014320994004383181e+01
3.160000000000000000e+02,1.015462359910203283e+01
3.170000000000000000e+02,1.016592376113604779e+01
3.180000000000000000e+02,1.017711092711355825e+01
3.190000000000000000e+02,1.018818400887654008e+01
3.200000000000000000e+02,1.019914248440420401e+01
3.210000000000000000e+02,1.020998627924929103e+01
3.220000000000000000e+02,1.022071441698723149e+01
3.230000000000000000e+02,1.023132692956573386e+01
3.240000000000000000e+02,1.024182306117357300e+01
3.250000000000000000e+02,1.025220227852435251e+01
3.260000000000000000e+02,1.026246493533100512e+01
3.270000000000000000e+02,1.027260982294553671e+01
3.280000000000000000e+02,1.028263684274518042e+01
3.290000000000000000e+02,1.029254544815234063e+01
3.300000000000000000e+02,1.030233575173446781e+01
3.310000000000000000e+02,1.031200708778196073e+01
3.320000000000000000e+02,1.032155933805372605e+01
3.330000000000000000e+02,1.033099215884408295e+01
3.340000000000000000e+02,1.034030520191339164e+01
3.350000000000000000e+02,1.034949887943016300e+01
3.360000000000000000e+02,1.035857261166149712e+01
3.370000000000000000e+02,1.036752646920589527e+01
3.380000000000000000e+02,1.037636040624019174e+01
3.390000000000000000e+02,1.038507469563593233e+01
3.400000000000000000e+02,1.039366884267319513e+01
3.410000000000000000e+02,1.040214343044729084e+01
3.420000000000000000e+02,1.041049849092169310e+01
3.430000000000000000e+02,1.041873447993466151e+01
3.440000000000000000e+02,1.042685141249814329e+01
3.450000000000000000e+02,1.043485004881936717e+01
3.460000000000000000e+02,1.044273060051265567e+01
3.470000000000000000e+02,1.045049327073233236e+01
3.480000000000000000e+02,1.045813932453783046e+01
3.490000000000000000e+02,1.046566883689892613e+01
3.500000000000000000e+02,1.047308262238093235e+01
3.510000000000000000e+02,1.048038159053426455e+01
3.520000000000000000e+02,1.048756674538771527e+01
3.530000000000000000e+02,1.049463865354696779e+01
3.540000000000000000e+02,1.050159861486716650e+01
3.550000000000000000e+02,1.050844780971602255e+01
3.560000000000000000e+02,1.051518698236744953e+01
3.570000000000000000e+02,1.052181750133554949e+01
3.580000000000000000e+02,1.052834072199771676e+01
3.590000000000000000e+02,1.053475830335586316e+01
3.600000000000000000e+02,1.054107104759732927e+01
3.610000000000000000e+02,1.054728111520966571e+01
3.620000000000000000e+02,1.055338991514538627e+01
3.630000000000000000e+02,1.055939915934031248e+01
3.640000000000000000e+02,1.056531023204983555e+01
3.650000000000000000e+02,1.057112523947481186e+01
3.660000000000000000e+02,1.057684543649135378e+01
3.670000000000000000e+02,1.058247321757151305e+01
3.680000000000000000e+02,1.058801064915780898e+01
3.690000000000000000e+02,1.059345926311219621e+01
3.700000000000000000e+02,1.059882141442780146e+01
3.710000000000000000e+02,1.060409934044417923e+01
3.720000000000000000e+02,1.060929432977309972e+01
3.730000000000000000e+02,1.061440942861272951e+01
3.740000000000000000e+02,1.061944600713242082e+01
3.750000000000000000e+02,1.062440729369787817e+01
3.760000000000000000e+02,1.062929474017540343e+01
3.770000000000000000e+02,1.063411072181719774e+01
3.780000000000000000e+02,1.063885729224660004e+01
3.790000000000000000e+02,1.064353711516303491e+01
3.800000000000000000e+02,1.064815273924629402e+01
3.810000000000000000e+02,1.065270618634001032e+01
3.820000000000000000e+02,1.065719967543407876e+01
3.830000000000000000e+02,1.066163500417174781e+01
3.840000000000000000e+02,1.066601509427567862e+01
3.850000000000000000e+02,1.067034244496191242e+01
3.860000000000000000e+02,1.067461862125468208e+01
3.870000000000000000e+02,1.067884651622363101e+01
3.880000000000000000e+02,1.068302788424482408e+01
3.890000000000000000e+02,1.068716601040886083e+01
3.900000000000000000e+02,1.069126212037405210e+01
3.910000000000000000e+02,1.069531917479849348e+01
3.920000000000000000e+02,1.069933879518569775e+01
3.930000000000000000e+02,1.070332300615306309e+01
3.940000000000000000e+02,1.070727433615578050e+01
3.950000000000000000e+02,1.071119479545263786e+01
3.960000000000000000e+02,1.071508648987268231e+01
3.970000000000000000e+02,1.071895111115759036e+01
3.980000000000000000e+02,1.072279116027622159e+01
