# Time [s], Convective Heat Transfer Coefficient [W/m2K]
1.000000000000000000e+00,0.000000000000000000e+00
2.000000000000000000e+00,0.000000000000000000e+00
3.000000000000000000e+00,0.000000000000000000e+00
4.000000000000000000e+00,2.762023300960968902e-02
5.000000000000000000e+00,4.669921575117047530e-02
6.000000000000000000e+00,7.538707009062249609e-02
7.000000000000000000e+00,1.138308602855686996e-01
8.000000000000000000e+00,1.625495383041330455e-01
9.000000000000000000e+00,2.219880544393698918e-01
1.000000000000000000e+01,2.916627569602099901e-01
1.100000000000000000e+01,3.708477943906260399e-01
1.200000000000000000e+01,4.585527933162047431e-01
1.300000000000000000e+01,5.536486035489759372e-01
1.400000000000000000e+01,6.549727054041970531e-01
1.500000000000000000e+01,7.614422745547184679e-01
1.600000000000000000e+01,8.720427025071711968e-01
1.700000000000000000e+01,9.858788418043238355e-01
1.800000000000000000e+01,1.102160832649615285e+00
1.900000000000000000e+01,1.220214459820769592e+00
2.000000000000000000e+01,1.339456203923262478e+00
2.100000000000000000e+01,1.459394592104507726e+00
2.200000000000000000e+01,1.579609261091060590e+00
2.300000000000000000e+01,1.699754308842179151e+00
2.400000000000000000e+01,1.819539229270927150e+00
2.500000000000000000e+01,1.938719740869131236e+00
2.600000000000000000e+01,2.057094596540007370e+00
2.700000000000000000e+01,2.174499531508627737e+00
2.800000000000000000e+01,2.290798646771845082e+00
2.900000000000000000e+01,2.405881695810544230e+00
3.000000000000000000e+01,2.519662202152237018e+00
3.100000000000000000e+01,2.632066604227876194e+00
3.200000000000000000e+01,2.743042507127891216e+00
3.300000000000000000e+01,2.852547341223963251e+00
3.400000000000000000e+01,2.960548250041910467e+00
3.500000000000000000e+01,3.067024306879353901e+00
3.600000000000000000e+01,3.171963061023379105e+00
3.700000000000000000e+01,3.275357682919690649e+00
3.800000000000000000e+01,3.377209493647948424e+00
3.900000000000000000e+01,3.477518806198149459e+00
4.000000000000000000e+01,3.576296427859392502e+00
4.100000000000000000e+01,3.673551885445494936e+00
4.200000000000000000e+01,3.769303492980595749e+00
4.300000000000000000e+01,3.863567812949762370e+00
4.400000000000000000e+01,3.956364802747343035e+00
4.500000000000000000e+01,4.047715113551995536e+00
4.600000000000000000e+01,4.137641715777069962e+00
4.700000000000000000e+01,4.226166551021961482e+00
4.800000000000000000e+01,4.313314544209832846e+00
4.900000000000000000e+01,4.399111082813924156e+00
5.000000000000000000e+01,4.483577975794040604e+00
5.100000000000000000e+01,4.566742091894464117e+00
5.200000000000000000e+01,4.648626987614635553e+00
5.300000000000000000e+01,4.729257337965949048e+00
5.400000000000000000e+01,4.808658716776869291e+00
5.500000000000000000e+01,4.886854685697594292e+00
5.600000000000000000e+01,4.963868185604161987e+00
5.700000000000000000e+01,5.039722228971238671e+00
5.800000000000000000e+01,5.114442092521205296e+00
5.900000000000000000e+01,5.188052146603824966e+00
6.000000000000000000e+01,5.260580067062908149e+00
6.100000000000000000e+01,5.332055605567704859e+00
6.200000000000000000e+01,5.402515696115755439e+00
6.300000000000000000e+01,5.472003205759438771e+00
6.400000000000000000e+01,5.540563438345409430e+00
6.500000000000000000e+01,5.608249709159643714e+00
6.600000000000000000e+01,5.675109822675963756e+00
6.700000000000000000e+01,5.741195861663166866e+00
6.800000000000000000e+01,5.806553012606512354e+00
6.900000000000000000e+01,5.871225142059262048e+00
7.000000000000000000e+01,5.935247528339255396e+00
7.100000000000000000e+01,5.998651702091782667e+00
7.200000000000000000e+01,6.061461312319623929e+00
7.300000000000000000e+01,6.123697954903608576e+00
7.400000000000000000e+01,6.185376122189569337e+00
7.500000000000000000e+01,6.246506694865425757e+00
7.600000000000000000e+01,6.307097770414011428e+00
7.700000000000000000e+01,6.367155024644471695e+00
7.800000000000000000e+01,6.426679880487590424e+00
7.900000000000000000e+01,6.485675195737716336e+00
8.000000000000000000e+01,6.544143647510419548e+00
8.100000000000000000e+01,6.602085964092506032e+00
8.200000000000000000e+01,6.659501213306222134e+00
8.300000000000000000e+01,6.716390564941416841e+00
8.400000000000000000e+01,6.772752512446953865e+00
8.500000000000000000e+01,6.828588352814113804e+00
8.600000000000000000e+01,6.883897999639526866e+00
8.700000000000000000e+01,6.938680811978508167e+00
8.800000000000000000e+01,6.992935388405912889e+00
8.900000000000000000e+01,7.046664330314529323e+00
9.000000000000000000e+01,7.099866270228131881e+00
9.100000000000000000e+01,7.152539587434318946e+00
9.200000000000000000e+01,7.204686476517799143e+00
9.300000000000000000e+01,7.256308666139995367e+00
9.400000000000000000e+01,7.307407225063969669e+00
9.500000000000000000e+01,7.357983897533547868e+00
9.600000000000000000e+01,7.408040837302693582e+00
9.700000000000000000e+01,7.457581205352643572e+00
9.800000000000000000e+01,7.506607851721293301e+00
9.900000000000000000e+01,7.555122919858712649e+00
1.000000000000000000e+02,7.603130113330543338e+00
1.010000000000000000e+02,7.650633593900177054e+00
1.020000000000000000e+02,7.697634590837279411e+00
1.030000000000000000e+02,7.744139380388689986e+00
1.040000000000000000e+02,7.790150496081223785e+00
1.050000000000000000e+02,7.835671328527703317e+00
1.060000000000000000e+02,7.880705695621609053e+00
1.070000000000000000e+02,7.925257442532656960e+00
1.080000000000000000e+02,7.969330805980962218e+00
1.090000000000000000e+02,8.012930754986104631e+00
1.100000000000000000e+02,8.056061686960894974e+00
1.110000000000000000e+02,8.098727634618592575e+00
1.120000000000000000e+02,8.140933519484807590e+00
1.130000000000000000e+02,8.182683706231337339e+00
1.140000000000000000e+02,8.223983760257009834e+00
1.150000000000000000e+02,8.264838330743499384e+00
1.160000000000000000e+02,8.305252212956714786e+00
1.170000000000000000e+02,8.345229331938707418e+00
1.180000000000000000e+02,8.384775779951553432e+00
1.190000000000000000e+02,8.423895096178117825e+00
1.200000000000000000e+02,8.462592306560827282e+00
1.210000000000000000e+02,8.500871426250766305e+00
1.220000000000000000e+02,8.538737591556181172e+00
1.230000000000000000e+02,8.576195100772382673e+00
1.240000000000000000e+02,8.613248397163214776e+00
1.250000000000000000e+02,8.649900498191497533e+00
1.260000000000000000e+02,8.686157864655585925e+00
1.270000000000000000e+02,8.722024565288954534e+00
1.280000000000000000e+02,8.757504969573735920e+00
1.290000000000000000e+02,8.792603281612397126e+00
1.300000000000000000e+02,8.827323396728795402e+00
1.310000000000000000e+02,8.861671000650154895e+00
1.320000000000000000e+02,8.895649951160629954e+00
1.330000000000000000e+02,8.929263522543212872e+00
1.340000000000000000e+02,8.962516467722917213e+00
1.350000000000000000e+02,8.995412505026544991e+00
1.360000000000000000e+02,9.027955218038755447e+00
1.370000000000000000e+02,9.060149344230280732e+00
1.380000000000000000e+02,9.091997619579819556e+00
1.390000000000000000e+02,9.123503661221667116e+00
1.400000000000000000e+02,9.154671658170967063e+00
1.410000000000000000e+02,9.185504687781516964e+00
1.420000000000000000e+02,9.216006682837392106e+00
1.430000000000000000e+02,9.246180897814372912e+00
1.440000000000000000e+02,9.276031563987762851e+00
1.450000000000000000e+02,9.305561425644075513e+00
1.460000000000000000e+02,9.334775011641962550e+00
1.470000000000000000e+02,9.363674842394098974e+00
1.480000000000000000e+02,9.392264942245875048e+00
1.490000000000000000e+02,9.420550003200053979e+00
1.500000000000000000e+02,9.448531301296405616e+00
1.510000000000000000e+02,9.476213836899031406e+00
1.520000000000000000e+02,9.503601561366652462e+00
1.530000000000000000e+02,9.530696119550789547e+00
1.540000000000000000e+02,9.557501144351121525e+00
1.550000000000000000e+02,9.584020035242296842e+00
1.560000000000000000e+02,9.610255712016758878e+00
1.570000000000000000e+02,9.636210376341468375e+00
1.580000000000000000e+02,9.661886785374040443e+00
1.590000000000000000e+02,9.687287738555077965e+00
1.600000000000000000e+02,9.712415208399416855e+00
1.610000000000000000e+02,9.737271349859252467e+00
1.620000000000000000e+02,9.761858004615000084e+00
1.630000000000000000e+02,9.786176709186570122e+00
1.640000000000000000e+02,9.810229189155762697e+00
1.650000000000000000e+02,9.834016265294909687e+00
1.660000000000000000e+02,9.857539200478495189e+00
1.670000000000000000e+02,9.880798490100328735e+00
1.680000000000000000e+02,9.903795431392209636e+00
1.690000000000000000e+02,9.926529966405409411e+00
1.700000000000000000e+02,9.949002604865331278e+00
1.710000000000000000e+02,9.971213586884122293e+00
1.720000000000000000e+02,9.993161950863798992e+00
1.730000000000000000e+02,1.001484871039919256e+01
1.740000000000000000e+02,1.003627262753548877e+01
1.750000000000000000e+02,1.005743361617223641e+01
1.760000000000000000e+02,1.007833110376642161e+01
1.770000000000000000e+02,1.009896369646186542e+01
1.780000000000000000e+02,1.011933113829632092e+01
1.790000000000000000e+02,1.013943246582393343e+01
1.800000000000000000e+02,1.015926658847931741e+01
1.810000000000000000e+02,1.017883206421174869e+01
1.820000000000000000e+02,1.019812789312369006e+01
1.830000000000000000e+02,1.021715216253994818e+01
1.840000000000000000e+02,1.023590329185095626e+01
1.850000000000000000e+02,1.025438047054964485e+01
1.860000000000000000e+02,1.027258109206727354e+01
1.870000000000000000e+02,1.029050354786431853e+01
1.880000000000000000e+02,1.030814588673688981e+01
1.890000000000000000e+02,1.032550592920831356e+01
1.900000000000000000e+02,1.034258236429956668e+01
1.910000000000000000e+02,1.035937266150164504e+01
1.920000000000000000e+02,1.037587602491020711e+01
1.930000000000000000e+02,1.039209054630291007e+01
1.940000000000000000e+02,1.040801419393026883e+01
1.950000000000000000e+02,1.042364567493274130e+01
1.960000000000000000e+02,1.043898420823791895e+01
1.970000000000000000e+02,1.045402844503927042e+01
1.980000000000000000e+02,1.046877743732789590e+01
1.990000000000000000e+02,1.048323063131273969e+01
2.000000000000000000e+02,1.049738786126190959e+01
2.010000000000000000e+02,1.051124870805504230e+01
2.020000000000000000e+02,1.052481408717974176e+01
2.030000000000000000e+02,1.053808496645442716e+01
2.040000000000000000e+02,1.055106299645835399e+01
2.050000000000000000e+02,1.056374892904319474e+01
2.060000000000000000e+02,1.057614472149747975e+01
2.070000000000000000e+02,1.058825352287434640e+01
2.080000000000000000e+02,1.060007799453327237e+01
2.090000000000000000e+02,1.061162312357558513e+01
2.100000000000000000e+02,1.062289308724426462e+01
2.110000000000000000e+02,1.063389178113516920e+01
2.120000000000000000e+02,1.064462437352979940e+01
2.130000000000000000e+02,1.065509781010837109e+01
2.140000000000000000e+02,1.066531771184338417e+01
2.150000000000000000e+02,1.067529106106500514e+01
2.160000000000000000e+02,1.068502485851399264e+01
2.170000000000000000e+02,1.069452745661404691e+01
2.180000000000000000e+02,1.070380630279357526e+01
2.190000000000000000e+02,1.071287060239775890e+01
2.200000000000000000e+02,1.072172947403676346e+01
2.210000000000000000e+02,1.073039114031166896e+01
2.220000000000000000e+02,1.073886608476243154e+01
2.230000000000000000e+02,1.074716379399468913e+01
2.240000000000000000e+02,1.075529448888028483e+01
2.250000000000000000e+02,1.076326841465268025e+01
2.260000000000000000e+02,1.077109523822708148e+01
2.270000000000000000e+02,1.077878566713492603e+01
2.280000000000000000e+02,1.078634963357152721e+01
2.290000000000000000e+02,1.079379780933213873e+01
2.300000000000000000e+02,1.080114120153391433e+01
2.310000000000000000e+02,1.080838924853355465e+01
2.320000000000000000e+02,1.081555153343436437e+01
2.330000000000000000e+02,1.082263938367100664e+01
2.340000000000000000e+02,1.082966286669827305e+01
2.350000000000000000e+02,1.083663119815456710e+01
2.360000000000000000e+02,1.084355394297651642e+01
2.370000000000000000e+02,1.085044081510055314e+01
2.380000000000000000e+02,1.085730197506992312e+01
2.390000000000000000e+02,1.086414574658624410e+01
2.400000000000000000e+02,1.087098110471123036e+01
2.410000000000000000e+02,1.087781668261542301e+01
2.420000000000000000e+02,1.088466146535739298e+01
2.430000000000000000e+02,1.089152389940105614e+01
2.440000000000000000e+02,1.089841199427831953e+01
2.450000000000000000e+02,1.090533312809361277e+01
2.460000000000000000e+02,1.091229670529618190e+01
2.470000000000000000e+02,1.091930992141151791e+01
2.480000000000000000e+02,1.092637963943399093e+01
2.490000000000000000e+02,1.093351552480586442e+01
2.500000000000000000e+02,1.094072357166583132e+01
2.510000000000000000e+02,1.094801188818237669e+01
2.520000000000000000e+02,1.095538814557346541e+01
2.530000000000000000e+02,1.096285880054868045e+01
2.540000000000000000e+02,1.097043231210969516e+01
2.550000000000000000e+02,1.097811640667635658e+01
2.560000000000000000e+02,1.098591973040699621e+01
2.570000000000000000e+02,1.099384757935903956e+01
2.580000000000000000e+02,1.100190840157565297e+01
2.590000000000000000e+02,1.101011261351760950e+01
2.600000000000000000e+02,1.101846718339555053e+01
2.610000000000000000e+02,1.102697912059016438e+01
2.620000000000000000e+02,1.103566047149262275e+01
2.630000000000000000e+02,1.104451676107524882e+01
2.640000000000000000e+02,1.105355968896269836e+01
2.650000000000000000e+02,1.106280162402198108e+01
2.660000000000000000e+02,1.107224747808239762e+01
2.670000000000000000e+02,1.108191230483445366e+01
2.680000000000000000e+02,1.109180512727117396e+01
2.690000000000000000e+02,1.110194114312351665e+01
2.700000000000000000e+02,1.111233066656555302e+01
2.710000000000000000e+02,1.112298758861164139e+01
2.720000000000000000e+02,1.113392603180561302e+01
2.730000000000000000e+02,1.114515949245472015e+01
2.740000000000000000e+02,1.115670319046239989e+01
2.750000000000000000e+02,1.116857085247706038e+01
2.760000000000000000e+02,1.118077968191737703e+01
2.770000000000000000e+02,1.119334909665924371e+01
2.780000000000000000e+02,1.120629603124752016e+01
2.790000000000000000e+02,1.121963430177957122e+01
2.800000000000000000e+02,1.123338956684288981e+01
2.810000000000000000e+02,1.124757695998437512e+01
2.820000000000000000e+02,1.126221228059502266e+01
2.830000000000000000e+02,1.127731445731500060e+01
2.840000000000000000e+02,1.129290016706237765e+01
2.850000000000000000e+02,1.130898064612965292e+01
2.860000000000000000e+02,1.132557069755025658e+01
2.870000000000000000e+02,1.134268507758542377e+01
2.880000000000000000e+02,1.136031825431210862e+01
2.890000000000000000e+02,1.137846695796828733e+01
2.900000000000000000e+02,1.139712699393728990e+01
2.910000000000000000e+02,1.141627466807647018e+01
2.920000000000000000e+02,1.143588081900478315e+01
2.930000000000000000e+02,1.145589068583726799e+01
2.940000000000000000e+02,1.147624758379940246e+01
2.950000000000000000e+02,1.149687677019562138e+01
2.960000000000000000e+02,1.151768915844246699e+01
2.970000000000000000e+02,1.153857528221076123e+01
2.980000000000000000e+02,1.155943442498860563e+01
2.990000000000000000e+02,1.158015300017729921e+01
3.000000000000000000e+02,1.160062564769454774e+01
3.010000000000000000e+02,1.162076632924767061e+01
3.020000000000000000e+02,1.164051313723258829e+01
3.030000000000000000e+02,1.165982138786933220e+01
3.040000000000000000e+02,1.167868347121447847e+01
3.050000000000000000e+02,1.169710162779964868e+01
3.060000000000000000e+02,1.171510109726149018e+01
3.070000000000000000e+02,1.173270817510826625e+01
3.080000000000000000e+02,1.174995555446546902e+01
3.090000000000000000e+02,1.176687159669027061e+01
3.100000000000000000e+02,1.178348083108950917e+01
3.110000000000000000e+02,1.179980292861718993e+01
3.120000000000000000e+02,1.181585328183997063e+01
3.130000000000000000e+02,1.183165218496326965e+01
3.140000000000000000e+02,1.184720917933066708e+01
3.150000000000000000e+02,1.186253434669947993e+01
3.160000000000000000e+02,1.187764220549953542e+01
3.170000000000000000e+02,1.189253692599078249e+01
3.180000000000000000e+02,1.190723046126662510e+01
3.190000000000000000e+02,1.192172491061688433e+01
3.200000000000000000e+02,1.193603326456335623e+01
3.210000000000000000e+02,1.195015771828771634e+01
3.220000000000000000e+02,1.196410599341536241e+01
3.230000000000000000e+02,1.197788458444136950e+01
3.240000000000000000e+02,1.199149584391592782e+01
3.250000000000000000e+02,1.200494590918883198e+01
3.260000000000000000e+02,1.201823931209886887e+01
3.270000000000000000e+02,1.203138093872871472e+01
3.280000000000000000e+02,1.204437376713719665e+01
3.290000000000000000e+02,1.205722162646354434e+01
3.300000000000000000e+02,1.206992742081276226e+01
3.310000000000000000e+02,1.208249594613142008e+01
3.320000000000000000e+02,1.209493035041332121e+01
3.330000000000000000e+02,1.210723263050480547e+01
3.340000000000000000e+02,1.211940428182088425e+01
3.350000000000000000e+02,1.213145059881313692e+01
3.360000000000000000e+02,1.214337325526522271e+01
3.370000000000000000e+02,1.215517438107036519e+01
3.380000000000000000e+02,1.216685608365810367e+01
3.390000000000000000e+02,1.217842242173690082e+01
3.400000000000000000e+02,1.218987450300342701e+01
3.410000000000000000e+02,1.220121247803020736e+01
3.420000000000000000e+02,1.221244127885889164e+01
3.430000000000000000e+02,1.222356054730320629e+01
3.440000000000000000e+02,1.223457414605755744e+01
3.450000000000000000e+02,1.224548223644711697e+01
3.460000000000000000e+02,1.225628816925210707e+01
3.470000000000000000e+02,1.226699052213866281e+01
3.480000000000000000e+02,1.227759416869584363e+01
3.490000000000000000e+02,1.228809859570547225e+01
3.500000000000000000e+02,1.229850762358831950e+01
3.510000000000000000e+02,1.230881986656002702e+01
3.520000000000000000e+02,1.231903810974474567e+01
3.530000000000000000e+02,1.232916511623418998e+01
3.540000000000000000e+02,1.233919909147840954e+01
3.550000000000000000e+02,1.234914270126352953e+01
3.560000000000000000e+02,1.235899736471173327e+01
3.570000000000000000e+02,1.236876533041013460e+01
3.580000000000000000e+02,1.237844798935704915e+01
3.590000000000000000e+02,1.238804290699881427e+01
3.600000000000000000e+02,1.239755367760555416e+01
3.610000000000000000e+02,1.240698075262779909e+01
3.620000000000000000e+02,1.241632586880975353e+01
3.630000000000000000e+02,1.242558930918577609e+01
3.640000000000000000e+02,1.243477248803249857e+01
3.650000000000000000e+02,1.244387612831737577e+01
3.660000000000000000e+02,1.245290147464266894e+01
3.670000000000000000e+02,1.246184938503861339e+01
3.680000000000000000e+02,1.247072063492687732e+01
3.690000000000000000e+02,1.247951591778920744e+01
3.700000000000000000e+02,1.248823607099556021e+01
3.710000000000000000e+02,1.249688229974409559e+01
3.720000000000000000e+02,1.250545490211808186e+01
3.730000000000000000e+02,1.251395551791339500e+01
3.740000000000000000e+02,1.252238361103865572e+01
3.750000000000000000e+02,1.253074118092681211e+01
3.760000000000000000e+02,1.253902850190369733e+01
3.770000000000000000e+02,1.254724636534355575e+01
3.780000000000000000e+02,1.255539503670975421e+01
3.790000000000000000e+02,1.256347611309507606e+01
3.800000000000000000e+02,1.257148984827485272e+01
3.810000000000000000e+02,1.257943649289778776e+01
3.820000000000000000e+02,1.258731762441353119e+01
3.830000000000000000e+02,1.259513303963421471e+01
3.840000000000000000e+02,1.260288386124202553e+01
3.850000000000000000e+02,1.261056951165246609e+01
3.860000000000000000e+02,1.261819235524587590e+01
3.870000000000000000e+02,1.262575268721211330e+01
3.880000000000000000e+02,1.263325072639434765e+01
3.890000000000000000e+02,1.264068668901970938e+01
3.900000000000000000e+02,1.264806247174952780e+01
3.910000000000000000e+02,1.265537703729933305e+01
3.920000000000000000e+02,1.266263241793958017e+01
3.930000000000000000e+02,1.266982735361921009e+01
3.940000000000000000e+02,1.267696437629388839e+01
3.950000000000000000e+02,1.268404273091473655e+01
3.960000000000000000e+02,1.269106399015984010e+01
3.970000000000000000e+02,1.269802783080094599e+01
3.980000000000000000e+02,1.270493443733287364e+01
