# Time [s], Convective Heat Transfer Coefficient [W/m2K]
1.000000000000000000e+00,0.000000000000000000e+00
2.000000000000000000e+00,0.000000000000000000e+00
3.000000000000000000e+00,0.000000000000000000e+00
4.000000000000000000e+00,2.762023300960968902e-02
5.000000000000000000e+00,4.924209937913938406e-02
6.000000000000000000e+00,8.147364784639722635e-02
7.000000000000000000e+00,1.250629454923099793e-01
8.000000000000000000e+00,1.806234944356519545e-01
9.000000000000000000e+00,2.483925133642666816e-01
1.000000000000000000e+01,3.280189558745292278e-01
1.100000000000000000e+01,4.185895812387668280e-01
1.200000000000000000e+01,5.189778909628484094e-01
1.300000000000000000e+01,6.278758350815664135e-01
1.400000000000000000e+01,7.439655238196293263e-01
1.500000000000000000e+01,8.659974738355401547e-01
1.600000000000000000e+01,9.928034334006100581e-01
1.700000000000000000e+01,1.123354754476930895e+00
1.800000000000000000e+01,1.256735981595115126e+00
1.900000000000000000e+01,1.392151929777181607e+00
2.000000000000000000e+01,1.528933129950389880e+00
2.100000000000000000e+01,1.666498191333161794e+00
2.200000000000000000e+01,1.804357508875789495e+00
2.300000000000000000e+01,1.942099859355463254e+00
2.400000000000000000e+01,2.079382191662663359e+00
2.500000000000000000e+01,2.215919265688105710e+00
2.600000000000000000e+01,2.351480155862771149e+00
2.700000000000000000e+01,2.485866624999208518e+00
2.800000000000000000e+01,2.618923123785253715e+00
2.900000000000000000e+01,2.750523061273117520e+00
3.000000000000000000e+01,2.880561488939832770e+00
3.100000000000000000e+01,3.008960650502641165e+00
3.200000000000000000e+01,3.135654156727955666e+00
3.300000000000000000e+01,3.260595273050736154e+00
3.400000000000000000e+01,3.383743796932704662e+00
3.500000000000000000e+01,3.505072205158034748e+00
3.600000000000000000e+01,3.624563228507491797e+00
3.700000000000000000e+01,3.742203293614135173e+00
3.800000000000000000e+01,3.857986529822790889e+00
3.900000000000000000e+01,3.971911494980578272e+00
4.000000000000000000e+01,4.083979090774191967e+00
4.100000000000000000e+01,4.194194620103496973e+00
4.200000000000000000e+01,4.302567579001161491e+00
4.300000000000000000e+01,4.409109989195165724e+00
4.400000000000000000e+01,4.513835760291424748e+00
4.500000000000000000e+01,4.616765063197679098e+00
4.600000000000000000e+01,4.717917823078006556e+00
4.700000000000000000e+01,4.817317388222814856e+00
4.800000000000000000e+01,4.914992969065046680e+00
4.900000000000000000e+01,5.010985409057640005e+00
5.000000000000000000e+01,5.105342318515127431e+00
5.100000000000000000e+01,5.198110401887412024e+00
5.200000000000000000e+01,5.289349257062120557e+00
5.300000000000000000e+01,5.379122272646666758e+00
5.400000000000000000e+01,5.467488472738786243e+00
5.500000000000000000e+01,5.554512787512621230e+00
5.600000000000000000e+01,5.640251302701517311e+00
5.700000000000000000e+01,5.724754261914583253e+00
5.800000000000000000e+01,5.808073360708765343e+00
5.900000000000000000e+01,5.890251747214134248e+00
6.000000000000000000e+01,5.971327535289146837e+00
6.100000000000000000e+01,6.051338244469785188e+00
6.200000000000000000e+01,6.130313383492924650e+00
6.300000000000000000e+01,6.208279479832001790e+00
6.400000000000000000e+01,6.285259787118793184e+00
6.500000000000000000e+01,6.361277365694851582e+00
6.600000000000000000e+01,6.436346802743344142e+00
6.700000000000000000e+01,6.510483051811388755e+00
6.800000000000000000e+01,6.583701591928575070e+00
6.900000000000000000e+01,6.656013627853630155e+00
7.000000000000000000e+01,6.727429712563179010e+00
7.100000000000000000e+01,6.797964592861845290e+00
7.200000000000000000e+01,6.867628315248862414e+00
7.300000000000000000e+01,6.936431527939147301e+00
7.400000000000000000e+01,7.004383486370635126e+00
7.500000000000000000e+01,7.071492159536195921e+00
7.600000000000000000e+01,7.137766852273810692e+00
7.700000000000000000e+01,7.203216482150994082e+00
7.800000000000000000e+01,7.267846933767559747e+00
7.900000000000000000e+01,7.331667182200009236e+00
8.000000000000000000e+01,7.394685157468322778e+00
8.100000000000000000e+01,7.456912446278648687e+00
8.200000000000000000e+01,7.518355280564755994e+00
8.300000000000000000e+01,7.579022900105728766e+00
8.400000000000000000e+01,7.638928305774679295e+00
8.500000000000000000e+01,7.698077490701610515e+00
8.600000000000000000e+01,7.756481827140729202e+00
8.700000000000000000e+01,7.814148456857781255e+00
8.800000000000000000e+01,7.871086824306292584e+00
8.900000000000000000e+01,7.927304406416693539e+00
9.000000000000000000e+01,7.982810699700640278e+00
9.100000000000000000e+01,8.037612726620295689e+00
9.200000000000000000e+01,8.091720558647489625e+00
9.300000000000000000e+01,8.145140934688576806e+00
9.400000000000000000e+01,8.197885135270867707e+00
9.500000000000000000e+01,8.249960951512221641e+00
9.600000000000000000e+01,8.301378844436831272e+00
9.700000000000000000e+01,8.352146745194007238e+00
9.800000000000000000e+01,8.402275344573309823e+00
9.900000000000000000e+01,8.451771865793585192e+00
1.000000000000000000e+02,8.500646743075044753e+00
1.010000000000000000e+02,8.548905910372585737e+00
1.020000000000000000e+02,8.596558970716127845e+00
1.030000000000000000e+02,8.643611630296975434e+00
1.040000000000000000e+02,8.690072882247186214e+00
1.050000000000000000e+02,8.735949003557630377e+00
1.060000000000000000e+02,8.781248097893172400e+00
1.070000000000000000e+02,8.825978198761912807e+00
1.080000000000000000e+02,8.870146083188547692e+00
1.090000000000000000e+02,8.913761016881206700e+00
1.100000000000000000e+02,8.956828944055056141e+00
1.110000000000000000e+02,8.999357704860587504e+00
1.120000000000000000e+02,9.041355801619713972e+00
1.130000000000000000e+02,9.082828396861138742e+00
1.140000000000000000e+02,9.123782808521333720e+00
1.150000000000000000e+02,9.164225348213733469e+00
1.160000000000000000e+02,9.204162886118162135e+00
1.170000000000000000e+02,9.243598443913107587e+00
1.180000000000000000e+02,9.282538557512161503e+00
1.190000000000000000e+02,9.320989089028797636e+00
1.200000000000000000e+02,9.358955389010272796e+00
1.210000000000000000e+02,9.396443113247231693e+00
1.220000000000000000e+02,9.433458211526472681e+00
1.230000000000000000e+02,9.470006134144396626e+00
1.240000000000000000e+02,9.506092758922749297e+00
1.250000000000000000e+02,9.541724119182156016e+00
1.260000000000000000e+02,9.576904867882111816e+00
1.270000000000000000e+02,9.611640609816054948e+00
1.280000000000000000e+02,9.645935226554007258e+00
1.290000000000000000e+02,9.679793561665361423e+00
1.300000000000000000e+02,9.713219899183133776e+00
1.310000000000000000e+02,9.746217613902038224e+00
1.320000000000000000e+02,9.778787855830554321e+00
1.330000000000000000e+02,9.810935582401882016e+00
1.340000000000000000e+02,9.842661822392184234e+00
1.350000000000000000e+02,9.873970285340906372e+00
1.360000000000000000e+02,9.904861072380775511e+00
1.370000000000000000e+02,9.935336716907785970e+00
1.380000000000000000e+02,9.965397748401574773e+00
1.390000000000000000e+02,9.995044743822800726e+00
1.400000000000000000e+02,1.002427716008951641e+01
1.410000000000000000e+02,1.005309301752185647e+01
1.420000000000000000e+02,1.008149124192523516e+01
1.430000000000000000e+02,1.010947037686145755e+01
1.440000000000000000e+02,1.013702699702833421e+01
1.450000000000000000e+02,1.016415836446232213e+01
1.460000000000000000e+02,1.019086161777186916e+01
1.470000000000000000e+02,1.021713265062635223e+01
1.480000000000000000e+02,1.024296725544056308e+01
1.490000000000000000e+02,1.026836156563832958e+01
1.500000000000000000e+02,1.029331259537703680e+01
1.510000000000000000e+02,1.031781469571708776e+01
1.520000000000000000e+02,1.034186158297452174e+01
1.530000000000000000e+02,1.036545016079122838e+01
1.540000000000000000e+02,1.038857306727074459e+01
1.550000000000000000e+02,1.041122491965990626e+01
1.560000000000000000e+02,1.043340032939900652e+01
1.570000000000000000e+02,1.045509400359131114e+01
1.580000000000000000e+02,1.047630052394054978e+01
1.590000000000000000e+02,1.049701561827951934e+01
1.600000000000000000e+02,1.051723496847291806e+01
1.610000000000000000e+02,1.053695547146453926e+01
1.620000000000000000e+02,1.055617500199008241e+01
1.630000000000000000e+02,1.057489197254130886e+01
1.640000000000000000e+02,1.059310678143218887e+01
1.650000000000000000e+02,1.061082011348244514e+01
1.660000000000000000e+02,1.062803397085701640e+01
1.670000000000000000e+02,1.064475237498638549e+01
1.680000000000000000e+02,1.066098061552679788e+01
1.690000000000000000e+02,1.067672533680034874e+01
1.700000000000000000e+02,1.069199616038593881e+01
1.710000000000000000e+02,1.070680442330336923e+01
1.720000000000000000e+02,1.072116102350519995e+01
1.730000000000000000e+02,1.073508212230491132e+01
1.740000000000000000e+02,1.074858260156159595e+01
1.750000000000000000e+02,1.076168124572920348e+01
1.760000000000000000e+02,1.077439798353490730e+01
1.770000000000000000e+02,1.078675338439899001e+01
1.780000000000000000e+02,1.079876816207644552e+01
1.790000000000000000e+02,1.081046518881058560e+01
1.800000000000000000e+02,1.082186918450245372e+01
1.810000000000000000e+02,1.083300481457155229e+01
1.820000000000000000e+02,1.084389789708124852e+01
1.830000000000000000e+02,1.085457321652729412e+01
1.840000000000000000e+02,1.086505821302150743e+01
1.850000000000000000e+02,1.087537851202516315e+01
1.860000000000000000e+02,1.088555913507144446e+01
1.870000000000000000e+02,1.089562766735357080e+01
1.880000000000000000e+02,1.090560912146653649e+01
1.890000000000000000e+02,1.091552714420825509e+01
1.900000000000000000e+02,1.092540766047311962e+01
1.910000000000000000e+02,1.093527542829503929e+01
1.920000000000000000e+02,1.094515405011127740e+01
1.930000000000000000e+02,1.095506754345742984e+01
1.940000000000000000e+02,1.096503624663399279e+01
1.950000000000000000e+02,1.097508734578162937e+01
1.960000000000000000e+02,1.098524122828891159e+01
1.970000000000000000e+02,1.099551822191960149e+01
1.980000000000000000e+02,1.100594342280118809e+01
1.990000000000000000e+02,1.101653622728539261e+01
2.000000000000000000e+02,1.102731788855044037e+01
2.010000000000000000e+02,1.103831129932005162e+01
2.020000000000000000e+02,1.104954029589855047e+01
2.030000000000000000e+02,1.106102772498471154e+01
2.040000000000000000e+02,1.107279496551554487e+01
2.050000000000000000e+02,1.108486641046211751e+01
2.060000000000000000e+02,1.109726951634651471e+01
2.070000000000000000e+02,1.111002820958253245e+01
2.080000000000000000e+02,1.112317350680883266e+01
2.090000000000000000e+02,1.113673623874331220e+01
2.100000000000000000e+02,1.115074844102570673e+01
2.110000000000000000e+02,1.116524453395367367e+01
2.120000000000000000e+02,1.118025611142904552e+01
2.130000000000000000e+02,1.119582259387585488e+01
2.140000000000000000e+02,1.121199108357913232e+01
2.150000000000000000e+02,1.122880803677778339e+01
2.160000000000000000e+02,1.124631857018484560e+01
2.170000000000000000e+02,1.126457177428026313e+01
2.180000000000000000e+02,1.128363308903003670e+01
2.190000000000000000e+02,1.130354766404180999e+01
2.200000000000000000e+02,1.132437549736045312e+01
2.210000000000000000e+02,1.134618098160213329e+01
2.220000000000000000e+02,1.136901948574062970e+01
2.230000000000000000e+02,1.139294292234877481e+01
2.240000000000000000e+02,1.141798202196327594e+01
2.250000000000000000e+02,1.144417646965413837e+01
2.260000000000000000e+02,1.147151297589385344e+01
2.270000000000000000e+02,1.149995411244116994e+01
2.280000000000000000e+02,1.152940213899429622e+01
2.290000000000000000e+02,1.155970468472725443e+01
2.300000000000000000e+02,1.159062492145966417e+01
2.310000000000000000e+02,1.162186512102003277e+01
2.320000000000000000e+02,1.165306274725631042e+01
2.330000000000000000e+02,1.168386518218060210e+01
2.340000000000000000e+02,1.171395540428752646e+01
2.350000000000000000e+02,1.174312857150662026e+01
2.360000000000000000e+02,1.177132340003648636e+01
2.370000000000000000e+02,1.179859172309288518e+01
2.380000000000000000e+02,1.182503434622945093e+01
2.390000000000000000e+02,1.185076129722203042e+01
2.400000000000000000e+02,1.187585414970117448e+01
2.410000000000000000e+02,1.190036878525155473e+01
2.420000000000000000e+02,1.192435392922457105e+01
2.430000000000000000e+02,1.194785010631032129e+01
2.440000000000000000e+02,1.197088852703917183e+01
2.450000000000000000e+02,1.199349242993966236e+01
2.460000000000000000e+02,1.201569127512133583e+01
2.470000000000000000e+02,1.203750368033275642e+01
2.480000000000000000e+02,1.205894841686467700e+01
2.490000000000000000e+02,1.208004000459245653e+01
2.500000000000000000e+02,1.210079431024908025e+01
2.510000000000000000e+02,1.212122669909659578e+01
2.520000000000000000e+02,1.214135054162614757e+01
2.530000000000000000e+02,1.216117353257486045e+01
2.540000000000000000e+02,1.218070686062565500e+01
2.550000000000000000e+02,1.219996208898368906e+01
2.560000000000000000e+02,1.221894723362116153e+01
2.570000000000000000e+02,1.223767213700097400e+01
2.580000000000000000e+02,1.225614353382611732e+01
2.590000000000000000e+02,1.227436883005063173e+01
2.600000000000000000e+02,1.229235470078367776e+01
2.610000000000000000e+02,1.231010710319132073e+01
2.620000000000000000e+02,1.232763213607224095e+01
2.630000000000000000e+02,1.234493826721997678e+01
2.640000000000000000e+02,1.236202626785147274e+01
2.650000000000000000e+02,1.237890635524075122e+01
2.660000000000000000e+02,1.239558054305187440e+01
2.670000000000000000e+02,1.241205551831722609e+01
2.680000000000000000e+02,1.242833333494928283e+01
2.690000000000000000e+02,1.244441873191337322e+01
2.700000000000000000e+02,1.246031766691732834e+01
2.710000000000000000e+02,1.247603376752408622e+01
2.720000000000000000e+02,1.249156851160824466e+01
2.730000000000000000e+02,1.250692581954341520e+01
2.740000000000000000e+02,1.252210971060964617e+01
2.750000000000000000e+02,1.253712415374471512e+01
2.760000000000000000e+02,1.255197217743782190e+01
2.770000000000000000e+02,1.256665751234462824e+01
2.780000000000000000e+02,1.258118221726123309e+01
2.790000000000000000e+02,1.259554913390684661e+01
2.800000000000000000e+02,1.260975981714046235e+01
2.810000000000000000e+02,1.262381976523112570e+01
2.820000000000000000e+02,1.263772855529595063e+01
2.830000000000000000e+02,1.265148846558899542e+01
2.840000000000000000e+02,1.266510634376647459e+01
2.850000000000000000e+02,1.267858023217119268e+01
2.860000000000000000e+02,1.269191254221590093e+01
2.870000000000000000e+02,1.270510797806250558e+01
2.880000000000000000e+02,1.271816511856441068e+01
2.890000000000000000e+02,1.273108976939267656e+01
2.900000000000000000e+02,1.274387960957323784e+01
2.910000000000000000e+02,1.275654189735608490e+01
2.920000000000000000e+02,1.276907262719625891e+01
2.930000000000000000e+02,1.278147828014801135e+01
2.940000000000000000e+02,1.279375941648801174e+01
2.950000000000000000e+02,1.280591558697186372e+01
2.960000000000000000e+02,1.281794954599975966e+01
2.970000000000000000e+02,1.282986323929577921e+01
2.980000000000000000e+02,1.284165873457614993e+01
2.990000000000000000e+02,1.285333914186744408e+01
3.000000000000000000e+02,1.286490344124838536e+01
3.010000000000000000e+02,1.287635301551940792e+01
3.020000000000000000e+02,1.288768930308077820e+01
3.030000000000000000e+02,1.289891471227663544e+01
3.040000000000000000e+02,1.291003015501678952e+01
3.050000000000000000e+02,1.292103660241115826e+01
3.060000000000000000e+02,1.293193676432738037e+01
3.070000000000000000e+02,1.294272983396373355e+01
3.080000000000000000e+02,1.295342023792486152e+01
3.090000000000000000e+02,1.296400707597609703e+01
3.100000000000000000e+02,1.297449056228699504e+01
3.110000000000000000e+02,1.298487361321673461e+01
3.120000000000000000e+02,1.299515634982639689e+01
3.130000000000000000e+02,1.300534048035344981e+01
3.140000000000000000e+02,1.301542686933527015e+01
3.150000000000000000e+02,1.302541671723399475e+01
3.160000000000000000e+02,1.303531190244762961e+01
3.170000000000000000e+02,1.304511305029538626e+01
3.180000000000000000e+02,1.305482071022642288e+01
3.190000000000000000e+02,1.306443528786054387e+01
3.200000000000000000e+02,1.307396047034132813e+01
3.210000000000000000e+02,1.308339335510498991e+01
3.220000000000000000e+02,1.309273883796602433e+01
3.230000000000000000e+02,1.310199571465164325e+01
3.240000000000000000e+02,1.311116509995389734e+01
3.250000000000000000e+02,1.312024823543809937e+01
3.260000000000000000e+02,1.312924628497052915e+01
3.270000000000000000e+02,1.313816033538353523e+01
3.280000000000000000e+02,1.314699004259588300e+01
3.290000000000000000e+02,1.315573729359493704e+01
3.300000000000000000e+02,1.316440200378133696e+01
3.310000000000000000e+02,1.317298658232582298e+01
3.320000000000000000e+02,1.318149133476056711e+01
3.330000000000000000e+02,1.318991609154062417e+01
3.340000000000000000e+02,1.319826202550026117e+01
3.350000000000000000e+02,1.320653063667046645e+01
3.360000000000000000e+02,1.321472220859586422e+01
3.370000000000000000e+02,1.322283869486628483e+01
3.380000000000000000e+02,1.323087909495508541e+01
3.390000000000000000e+02,1.323884448141354220e+01
3.400000000000000000e+02,1.324673685333981155e+01
3.410000000000000000e+02,1.325455553292225552e+01
3.420000000000000000e+02,1.326230283832672185e+01
3.430000000000000000e+02,1.326997901407250779e+01
3.440000000000000000e+02,1.327758390314531312e+01
3.450000000000000000e+02,1.328511781151942728e+01
3.460000000000000000e+02,1.329258289680250904e+01
3.470000000000000000e+02,1.329997938587280970e+01
3.480000000000000000e+02,1.330730842819251158e+01
3.490000000000000000e+02,1.331457010983015898e+01
3.500000000000000000e+02,1.332176345930554895e+01
3.510000000000000000e+02,1.332889198803064446e+01
3.520000000000000000e+02,1.333595622876172015e+01
3.530000000000000000e+02,1.334295447480258545e+01
3.540000000000000000e+02,1.334988876884719389e+01
3.550000000000000000e+02,1.335676061852330143e+01
3.560000000000000000e+02,1.336356863953987784e+01
3.570000000000000000e+02,1.337031492222047291e+01
3.580000000000000000e+02,1.337699938813874923e+01
3.590000000000000000e+02,1.338362326470801555e+01
3.600000000000000000e+02,1.339018640194576193e+01
3.610000000000000000e+02,1.339668936646106978e+01
3.620000000000000000e+02,1.340313350315634899e+01
3.630000000000000000e+02,1.340951904365689096e+01
3.640000000000000000e+02,1.341584686771868284e+01
3.650000000000000000e+02,1.342211681078453545e+01
3.660000000000000000e+02,1.342832981117853386e+01
3.670000000000000000e+02,1.343448712673395562e+01
3.680000000000000000e+02,1.344058819502475188e+01
3.690000000000000000e+02,1.344663355500829205e+01
3.700000000000000000e+02,1.345262490675877132e+01
3.710000000000000000e+02,1.345856084102097938e+01
3.720000000000000000e+02,1.346444350365811182e+01
3.730000000000000000e+02,1.347027335449408092e+01
3.740000000000000000e+02,1.347605091509361941e+01
3.750000000000000000e+02,1.348177560925304874e+01
3.760000000000000000e+02,1.348744834166045337e+01
3.770000000000000000e+02,1.349307033434422642e+01
3.780000000000000000e+02,1.349864100539043754e+01
3.790000000000000000e+02,1.350416202043502700e+01
3.800000000000000000e+02,1.350963311448347959e+01
3.810000000000000000e+02,1.351505479144729094e+01
3.820000000000000000e+02,1.352042761666535675e+01
3.830000000000000000e+02,1.352575157683250850e+01
3.840000000000000000e+02,1.353102806431936322e+01
3.850000000000000000e+02,1.353625718848795501e+01
3.860000000000000000e+02,1.354143899361542935e+01
3.870000000000000000e+02,1.354657441599161061e+01
3.880000000000000000e+02,1.355166394199341262e+01
3.890000000000000000e+02,1.355670760981760914e+01
3.900000000000000000e+02,1.356170602952085780e+01
3.910000000000000000e+02,1.356665955412057833e+01
3.920000000000000000e+02,1.357156840767154193e+01
3.930000000000000000e+02,1.357643370189924248e+01
3.940000000000000000e+02,1.358125489448858403e+01
3.950000000000000000e+02,1.358603321963061283e+01
3.960000000000000000e+02,1.359076870315053220e+01
3.970000000000000000e+02,1.359546219336773376e+01
3.980000000000000000e+02,1.360011270016872764e+01
