# Time [s], Convective Heat Transfer Coefficient [W/m2K]
1.000000000000000000e+00,0.000000000000000000e+00
2.000000000000000000e+00,0.000000000000000000e+00
3.000000000000000000e+00,0.000000000000000000e+00
4.000000000000000000e+00,2.762023300960968902e-02
5.000000000000000000e+00,5.110202618333640340e-02
6.000000000000000000e+00,8.353714283346275193e-02
7.000000000000000000e+00,1.275575242773482887e-01
8.000000000000000000e+00,1.837966853187263105e-01
9.000000000000000000e+00,2.521673707981507695e-01
1.000000000000000000e+01,3.323566859928276385e-01
1.100000000000000000e+01,4.234173975323883288e-01
1.200000000000000000e+01,5.242057111241454903e-01
1.300000000000000000e+01,6.334122283937697606e-01
1.400000000000000000e+01,7.497388833472656833e-01
1.500000000000000000e+01,8.719226176036317666e-01
1.600000000000000000e+01,9.988202703104962499e-01
1.700000000000000000e+01,1.129396337006145279e+00
1.800000000000000000e+01,1.262750699298938795e+00
1.900000000000000000e+01,1.398094041444228441e+00
2.000000000000000000e+01,1.534756333579391896e+00
2.100000000000000000e+01,1.672161196579841302e+00
2.200000000000000000e+01,1.809821986780212111e+00
2.300000000000000000e+01,1.947330540369098584e+00
2.400000000000000000e+01,2.084347746956400460e+00
2.500000000000000000e+01,2.220591533596510292e+00
2.600000000000000000e+01,2.355833383985511897e+00
2.700000000000000000e+01,2.489882160043402681e+00
2.800000000000000000e+01,2.622585925207144175e+00
2.900000000000000000e+01,2.753822003044509081e+00
3.000000000000000000e+01,2.883489942973436637e+00
3.100000000000000000e+01,3.011515775110006565e+00
3.200000000000000000e+01,3.137834826857758941e+00
3.300000000000000000e+01,3.262402451683509064e+00
3.400000000000000000e+01,3.385181988296646072e+00
3.500000000000000000e+01,3.506147334933189086e+00
3.600000000000000000e+01,3.625281978611652800e+00
3.700000000000000000e+01,3.742574480353161981e+00
3.800000000000000000e+01,3.858025224287411348e+00
3.900000000000000000e+01,3.971640048781034160e+00
4.000000000000000000e+01,4.083432629716075901e+00
4.100000000000000000e+01,4.193433944737970265e+00
4.200000000000000000e+01,4.301674142903321396e+00
4.300000000000000000e+01,4.408196693561504453e+00
4.400000000000000000e+01,4.513050174041636886e+00
4.500000000000000000e+01,4.616288414463668666e+00
4.600000000000000000e+01,4.717962156602476753e+00
4.700000000000000000e+01,4.818121564050399819e+00
4.800000000000000000e+01,4.916817115860732557e+00
4.900000000000000000e+01,5.014095252306055350e+00
5.000000000000000000e+01,5.109996229535349599e+00
5.100000000000000000e+01,5.204556275885923178e+00
5.200000000000000000e+01,5.297810124265498466e+00
5.300000000000000000e+01,5.389782861072600184e+00
5.400000000000000000e+01,5.480504054749470555e+00
5.500000000000000000e+01,5.569995174409144489e+00
5.600000000000000000e+01,5.658276023967695245e+00
5.700000000000000000e+01,5.745366876500086484e+00
5.800000000000000000e+01,5.831287145010645823e+00
5.900000000000000000e+01,5.916050407408091516e+00
6.000000000000000000e+01,5.999674606386670384e+00
6.100000000000000000e+01,6.082174310670429129e+00
6.200000000000000000e+01,6.163560331253038704e+00
6.300000000000000000e+01,6.243847718501889688e+00
6.400000000000000000e+01,6.323047401396243217e+00
6.500000000000000000e+01,6.401170133793248063e+00
6.600000000000000000e+01,6.478232113854380358e+00
6.700000000000000000e+01,6.554245740784794272e+00
6.800000000000000000e+01,6.629224864527581751e+00
6.900000000000000000e+01,6.703181737326473488e+00
7.000000000000000000e+01,6.776130428786848903e+00
7.100000000000000000e+01,6.848083848108640126e+00
7.200000000000000000e+01,6.919055292172489047e+00
7.300000000000000000e+01,6.989058132269873269e+00
7.400000000000000000e+01,7.058103660305245164e+00
7.500000000000000000e+01,7.126204254355830159e+00
7.600000000000000000e+01,7.193373702278304194e+00
7.700000000000000000e+01,7.259623495087923040e+00
7.800000000000000000e+01,7.324967373097895695e+00
7.900000000000000000e+01,7.389419608830426256e+00
8.000000000000000000e+01,7.452992837179468921e+00
8.100000000000000000e+01,7.515701285156008993e+00
8.200000000000000000e+01,7.577558385303449384e+00
8.300000000000000000e+01,7.638578432304045762e+00
8.400000000000000000e+01,7.698773937538030410e+00
8.500000000000000000e+01,7.758157117825023263e+00
8.600000000000000000e+01,7.816740483227712311e+00
8.700000000000000000e+01,7.874534164639394263e+00
8.800000000000000000e+01,7.931551287690083107e+00
8.900000000000000000e+01,7.987803351630818227e+00
9.000000000000000000e+01,8.043301965468977244e+00
9.100000000000000000e+01,8.098059014330720728e+00
9.200000000000000000e+01,8.152084875930171393e+00
9.300000000000000000e+01,8.205393035823288272e+00
9.400000000000000000e+01,8.257995423549795433e+00
9.500000000000000000e+01,8.309903357021889647e+00
9.600000000000000000e+01,8.361128248828880061e+00
9.700000000000000000e+01,8.411679945338182307e+00
9.800000000000000000e+01,8.461570251970726986e+00
9.900000000000000000e+01,8.510808132439795060e+00
1.000000000000000000e+02,8.559403865155147173e+00
1.010000000000000000e+02,8.607366125156842074e+00
1.020000000000000000e+02,8.654704260042860753e+00
1.030000000000000000e+02,8.701426552856352359e+00
1.040000000000000000e+02,8.747542879199109223e+00
1.050000000000000000e+02,8.793060234280595466e+00
1.060000000000000000e+02,8.837990074015335651e+00
1.070000000000000000e+02,8.882339783427543267e+00
1.080000000000000000e+02,8.926118315129897951e+00
1.090000000000000000e+02,8.969334368142019898e+00
1.100000000000000000e+02,9.011995680898678529e+00
1.110000000000000000e+02,9.054111505076352984e+00
1.120000000000000000e+02,9.095687868438577794e+00
1.130000000000000000e+02,9.136732349261853514e+00
1.140000000000000000e+02,9.177251784417927993e+00
1.150000000000000000e+02,9.217251200727796245e+00
1.160000000000000000e+02,9.256737718328119868e+00
1.170000000000000000e+02,9.295717347221971849e+00
1.180000000000000000e+02,9.334196915539864747e+00
1.190000000000000000e+02,9.372183371040794242e+00
1.200000000000000000e+02,9.409684174614140417e+00
1.210000000000000000e+02,9.446704658544796018e+00
1.220000000000000000e+02,9.483252926773040770e+00
1.230000000000000000e+02,9.519335100440480701e+00
1.240000000000000000e+02,9.554957574260795283e+00
1.250000000000000000e+02,9.590128026345787760e+00
1.260000000000000000e+02,9.624851203847923031e+00
1.270000000000000000e+02,9.659133044538112500e+00
1.280000000000000000e+02,9.692977023002788073e+00
1.290000000000000000e+02,9.726387577806844931e+00
1.300000000000000000e+02,9.759368850147525976e+00
1.310000000000000000e+02,9.791924084182964449e+00
1.320000000000000000e+02,9.824056020964587077e+00
1.330000000000000000e+02,9.855767155874071150e+00
1.340000000000000000e+02,9.887059267372949378e+00
1.350000000000000000e+02,9.917933320162577004e+00
1.360000000000000000e+02,9.948390790590648791e+00
1.370000000000000000e+02,9.978432944863854459e+00
1.380000000000000000e+02,1.000805850719033252e+01
1.390000000000000000e+02,1.003726745108701124e+01
1.400000000000000000e+02,1.006605772653361974e+01
1.410000000000000000e+02,1.009442703846389477e+01
1.420000000000000000e+02,1.012237307917451368e+01
1.430000000000000000e+02,1.014989273025995686e+01
1.440000000000000000e+02,1.017698321138466788e+01
1.450000000000000000e+02,1.020364139325901220e+01
1.460000000000000000e+02,1.022986268461083093e+01
1.470000000000000000e+02,1.025564273470877374e+01
1.480000000000000000e+02,1.028097753345532439e+01
1.490000000000000000e+02,1.030586361899362480e+01
1.500000000000000000e+02,1.033029422106238826e+01
1.510000000000000000e+02,1.035426468366107500e+01
1.520000000000000000e+02,1.037776936718298693e+01
1.530000000000000000e+02,1.040080253082736839e+01
1.540000000000000000e+02,1.042335800565985338e+01
1.550000000000000000e+02,1.044542984133309993e+01
1.560000000000000000e+02,1.046701304302456315e+01
1.570000000000000000e+02,1.048810205599774292e+01
1.580000000000000000e+02,1.050869278495329162e+01
1.590000000000000000e+02,1.052878192644619482e+01
1.600000000000000000e+02,1.054836579199215585e+01
1.610000000000000000e+02,1.056744282658065259e+01
1.620000000000000000e+02,1.058601231317121183e+01
1.630000000000000000e+02,1.060407362701845457e+01
1.640000000000000000e+02,1.062162913749797610e+01
1.650000000000000000e+02,1.063868177954573113e+01
1.660000000000000000e+02,1.065523463338091581e+01
1.670000000000000000e+02,1.067129554960080107e+01
1.680000000000000000e+02,1.068687164905244380e+01
1.690000000000000000e+02,1.070197291615459712e+01
1.700000000000000000e+02,1.071661216495151514e+01
1.710000000000000000e+02,1.073080348429370190e+01
1.720000000000000000e+02,1.074456101430817689e+01
1.730000000000000000e+02,1.075790290081325828e+01
1.740000000000000000e+02,1.077084802834399468e+01
1.750000000000000000e+02,1.078341622540268396e+01
1.760000000000000000e+02,1.079562846713784552e+01
1.770000000000000000e+02,1.080750877940464427e+01
1.780000000000000000e+02,1.081908071837735008e+01
1.790000000000000000e+02,1.083036878588241159e+01
1.800000000000000000e+02,1.084139853143621934e+01
1.810000000000000000e+02,1.085219585753676874e+01
1.820000000000000000e+02,1.086278623341993210e+01
1.830000000000000000e+02,1.087319827348257029e+01
1.840000000000000000e+02,1.088345709472451794e+01
1.850000000000000000e+02,1.089358820436064157e+01
1.860000000000000000e+02,1.090361966836305996e+01
1.870000000000000000e+02,1.091357639264193402e+01
1.880000000000000000e+02,1.092348290251291765e+01
1.890000000000000000e+02,1.093336374024989155e+01
1.900000000000000000e+02,1.094324424822332631e+01
1.910000000000000000e+02,1.095314636620900117e+01
1.920000000000000000e+02,1.096309567381840822e+01
1.930000000000000000e+02,1.097311270316357223e+01
1.940000000000000000e+02,1.098322103639402769e+01
1.950000000000000000e+02,1.099344378715257342e+01
1.960000000000000000e+02,1.100380166660655412e+01
1.970000000000000000e+02,1.101431666738388770e+01
1.980000000000000000e+02,1.102501214158233367e+01
1.990000000000000000e+02,1.103590797442101845e+01
2.000000000000000000e+02,1.104702684541950219e+01
2.010000000000000000e+02,1.105839045837689838e+01
2.020000000000000000e+02,1.107002221610334480e+01
2.030000000000000000e+02,1.108194633366102622e+01
2.040000000000000000e+02,1.109418914841083215e+01
2.050000000000000000e+02,1.110677367301650165e+01
2.060000000000000000e+02,1.111972899003094462e+01
2.070000000000000000e+02,1.113308279692960134e+01
2.080000000000000000e+02,1.114686809094235187e+01
2.090000000000000000e+02,1.116111499820374853e+01
2.100000000000000000e+02,1.117586427971830076e+01
2.110000000000000000e+02,1.119114921319203759e+01
2.120000000000000000e+02,1.120700917304650623e+01
2.130000000000000000e+02,1.122348801916876404e+01
2.140000000000000000e+02,1.124063111212546673e+01
2.150000000000000000e+02,1.125849327083573037e+01
2.160000000000000000e+02,1.127712290933123640e+01
2.170000000000000000e+02,1.129657839782437811e+01
2.180000000000000000e+02,1.131691272995917075e+01
2.190000000000000000e+02,1.133819092142428175e+01
2.200000000000000000e+02,1.136046882167529581e+01
2.210000000000000000e+02,1.138379426541433226e+01
2.220000000000000000e+02,1.140822134543353172e+01
2.230000000000000000e+02,1.143377489374170075e+01
2.240000000000000000e+02,1.146047502027702514e+01
2.250000000000000000e+02,1.148829086982689418e+01
2.260000000000000000e+02,1.151716726745006447e+01
2.270000000000000000e+02,1.154697667560043506e+01
2.280000000000000000e+02,1.157752941673309621e+01
2.290000000000000000e+02,1.160855512736311290e+01
2.300000000000000000e+02,1.163973799135168719e+01
2.310000000000000000e+02,1.167070301467063587e+01
2.320000000000000000e+02,1.170111353567692625e+01
2.330000000000000000e+02,1.173069940402405997e+01
2.340000000000000000e+02,1.175933127774098352e+01
2.350000000000000000e+02,1.178699807011198253e+01
2.360000000000000000e+02,1.181378646618501982e+01
2.370000000000000000e+02,1.183980736640572928e+01
2.380000000000000000e+02,1.186515415303445309e+01
2.390000000000000000e+02,1.188990110343509343e+01
2.400000000000000000e+02,1.191409421682843117e+01
2.410000000000000000e+02,1.193778140805567745e+01
2.420000000000000000e+02,1.196099646857226162e+01
2.430000000000000000e+02,1.198376703039615876e+01
2.440000000000000000e+02,1.200611973764224594e+01
2.450000000000000000e+02,1.202807599300320796e+01
2.460000000000000000e+02,1.204965666230395449e+01
2.470000000000000000e+02,1.207087880152242576e+01
2.480000000000000000e+02,1.209175877554587153e+01
2.490000000000000000e+02,1.211230980459313677e+01
2.500000000000000000e+02,1.213254528469453497e+01
2.510000000000000000e+02,1.215247680898594851e+01
2.520000000000000000e+02,1.217211515052488302e+01
2.530000000000000000e+02,1.219147303651666192e+01
2.540000000000000000e+02,1.221055687816057400e+01
2.550000000000000000e+02,1.222937579544036879e+01
2.560000000000000000e+02,1.224793603793054686e+01
2.570000000000000000e+02,1.226624881090502051e+01
2.580000000000000000e+02,1.228432151644993020e+01
2.590000000000000000e+02,1.230215889513441319e+01
2.600000000000000000e+02,1.231976730830539069e+01
2.610000000000000000e+02,1.233715179410187091e+01
2.620000000000000000e+02,1.235431938563308130e+01
2.630000000000000000e+02,1.237127556674201223e+01
2.640000000000000000e+02,1.238802521028153869e+01
2.650000000000000000e+02,1.240457091408435275e+01
2.660000000000000000e+02,1.242092206136361199e+01
2.670000000000000000e+02,1.243707921914962355e+01
2.680000000000000000e+02,1.245304572737941129e+01
2.690000000000000000e+02,1.246882939562710924e+01
2.700000000000000000e+02,1.248443058139668516e+01
2.710000000000000000e+02,1.249985479562116453e+01
2.720000000000000000e+02,1.251510606298340811e+01
2.730000000000000000e+02,1.253018552446533818e+01
2.740000000000000000e+02,1.254509623287446018e+01
2.750000000000000000e+02,1.255984246275149374e+01
2.760000000000000000e+02,1.257442903054392325e+01
2.770000000000000000e+02,1.258885648810205460e+01
2.780000000000000000e+02,1.260312861540211138e+01
2.790000000000000000e+02,1.261724723721858332e+01
2.800000000000000000e+02,1.263121349278346983e+01
2.810000000000000000e+02,1.264503318792616859e+01
2.820000000000000000e+02,1.265870863613492503e+01
2.830000000000000000e+02,1.267223796800633373e+01
2.840000000000000000e+02,1.268562710548325967e+01
2.850000000000000000e+02,1.269887763019172588e+01
2.860000000000000000e+02,1.271198921984631625e+01
2.870000000000000000e+02,1.272496783702507273e+01
2.880000000000000000e+02,1.273781087553855862e+01
2.890000000000000000e+02,1.275052481574376451e+01
2.900000000000000000e+02,1.276310946866507479e+01
2.910000000000000000e+02,1.277556650526537219e+01
2.920000000000000000e+02,1.278789879420049935e+01
2.930000000000000000e+02,1.280010660398715316e+01
2.940000000000000000e+02,1.281219112227238277e+01
2.950000000000000000e+02,1.282415466081429045e+01
2.960000000000000000e+02,1.283599872699869771e+01
2.970000000000000000e+02,1.284772757744087635e+01
2.980000000000000000e+02,1.285933991095698303e+01
2.990000000000000000e+02,1.287083690384420898e+01
3.000000000000000000e+02,1.288222127075599310e+01
3.010000000000000000e+02,1.289349358981560201e+01
3.020000000000000000e+02,1.290465562529614552e+01
3.030000000000000000e+02,1.291570849303004742e+01
3.040000000000000000e+02,1.292665357685620897e+01
3.050000000000000000e+02,1.293749259646035732e+01
3.060000000000000000e+02,1.294822655745633178e+01
3.070000000000000000e+02,1.295885770926944680e+01
3.080000000000000000e+02,1.296938515075988541e+01
3.090000000000000000e+02,1.297981117869294998e+01
3.100000000000000000e+02,1.299013793234356484e+01
3.110000000000000000e+02,1.300036580200243996e+01
3.120000000000000000e+02,1.301049579412844892e+01
3.130000000000000000e+02,1.302052821472391031e+01
3.140000000000000000e+02,1.303046570828350958e+01
3.150000000000000000e+02,1.304030780190553784e+01
3.160000000000000000e+02,1.305005574043262229e+01
3.170000000000000000e+02,1.305971254231427281e+01
3.180000000000000000e+02,1.306927681871603397e+01
3.190000000000000000e+02,1.307875067580896555e+01
3.200000000000000000e+02,1.308813538431780010e+01
3.210000000000000000e+02,1.309743199985863704e+01
3.220000000000000000e+02,1.310663986543047876e+01
3.230000000000000000e+02,1.311576118273018388e+01
3.240000000000000000e+02,1.312479732279356348e+01
3.250000000000000000e+02,1.313374808541774286e+01
3.260000000000000000e+02,1.314261516624797999e+01
3.270000000000000000e+02,1.315139923381050124e+01
3.280000000000000000e+02,1.316010142349933254e+01
3.290000000000000000e+02,1.316872205203394230e+01
3.300000000000000000e+02,1.317726271276107752e+01
3.310000000000000000e+02,1.318572290104710198e+01
3.320000000000000000e+02,1.319410493653888139e+01
3.330000000000000000e+02,1.320240870695256419e+01
3.340000000000000000e+02,1.321063564089703846e+01
3.350000000000000000e+02,1.321878662158757223e+01
3.360000000000000000e+02,1.322686172267699156e+01
3.370000000000000000e+02,1.323486175032120116e+01
3.380000000000000000e+02,1.324278817204693048e+01
3.390000000000000000e+02,1.325064037940727069e+01
3.400000000000000000e+02,1.325842076134127545e+01
3.410000000000000000e+02,1.326612943199156547e+01
3.420000000000000000e+02,1.327376637006233118e+01
3.430000000000000000e+02,1.328133287958211461e+01
3.440000000000000000e+02,1.328883012408162045e+01
3.450000000000000000e+02,1.329625873021578641e+01
3.460000000000000000e+02,1.330361846013582294e+01
3.470000000000000000e+02,1.331091079294708557e+01
3.480000000000000000e+02,1.331813594551499591e+01
3.490000000000000000e+02,1.332529531863581695e+01
3.500000000000000000e+02,1.333238786868931669e+01
3.510000000000000000e+02,1.333941630455643512e+01
3.520000000000000000e+02,1.334638043045483080e+01
3.530000000000000000e+02,1.335328031237669677e+01
3.540000000000000000e+02,1.336011745721492261e+01
3.550000000000000000e+02,1.336689283997837840e+01
3.560000000000000000e+02,1.337360546667986583e+01
3.570000000000000000e+02,1.338025741887602216e+01
3.580000000000000000e+02,1.338684822083326509e+01
3.590000000000000000e+02,1.339337948543769663e+01
3.600000000000000000e+02,1.339985112279771329e+01
3.610000000000000000e+02,1.340626362813617156e+01
3.620000000000000000e+02,1.341261801393782349e+01
3.630000000000000000e+02,1.341891476741322364e+01
3.640000000000000000e+02,1.342515404786476552e+01
3.650000000000000000e+02,1.343133646689963889e+01
3.660000000000000000e+02,1.343746295671819624e+01
3.670000000000000000e+02,1.344353405622775632e+01
3.680000000000000000e+02,1.344954991287139379e+01
3.690000000000000000e+02,1.345551144820948331e+01
3.700000000000000000e+02,1.346141886874799098e+01
3.710000000000000000e+02,1.346727257271756706e+01
3.720000000000000000e+02,1.347307398759990527e+01
3.730000000000000000e+02,1.347882285959746795e+01
3.740000000000000000e+02,1.348451925656063288e+01
3.750000000000000000e+02,1.349016453148530559e+01
3.760000000000000000e+02,1.349575836072488677e+01
3.770000000000000000e+02,1.350130253984242046e+01
3.780000000000000000e+02,1.350679590585538392e+01
3.790000000000000000e+02,1.351224024779172694e+01
3.800000000000000000e+02,1.351763516977804258e+01
3.810000000000000000e+02,1.352298130042126267e+01
3.820000000000000000e+02,1.352827990499417865e+01
3.830000000000000000e+02,1.353353019867249962e+01
3.840000000000000000e+02,1.353873363335690883e+01
3.850000000000000000e+02,1.354389018783599852e+01
3.860000000000000000e+02,1.354900035020776805e+01
3.870000000000000000e+02,1.355406435134341514e+01
3.880000000000000000e+02,1.355908331196625660e+01
3.890000000000000000e+02,1.356405701251490825e+01
3.900000000000000000e+02,1.356898599619261425e+01
3.910000000000000000e+02,1.357387061320655164e+01
3.920000000000000000e+02,1.357871184683365584e+01
3.930000000000000000e+02,1.358350934446409930e+01
3.940000000000000000e+02,1.358826395828856093e+01
3.950000000000000000e+02,1.359297622058158872e+01
3.960000000000000000e+02,1.359764545849014539e+01
3.970000000000000000e+02,1.360227321465422001e+01
3.980000000000000000e+02,1.360686001518891430e+01
