# Time [s], Temperature [C]
0.000000000000000000e+00,2.500000000000000000e+01
1.000000000000000000e+00,2.499997099999999861e+01
2.000000000000000000e+00,4.736337699999999984e+01
3.000000000000000000e+00,5.949894700000000114e+01
4.000000000000000000e+00,6.941290999999999656e+01
5.000000000000000000e+00,7.763244600000000162e+01
6.000000000000000000e+00,8.484621400000000335e+01
7.000000000000000000e+00,9.129556999999999789e+01
8.000000000000000000e+00,9.716806800000000521e+01
9.000000000000000000e+00,1.025786200000000008e+02
1.000000000000000000e+01,1.076085400000000050e+02
1.100000000000000000e+01,1.123176299999999941e+02
1.200000000000000000e+01,1.167533899999999960e+02
1.300000000000000000e+01,1.209509599999999949e+02
1.400000000000000000e+01,1.249389999999999930e+02
1.500000000000000000e+01,1.287404899999999941e+02
1.600000000000000000e+01,1.323745000000000118e+02
1.700000000000000000e+01,1.358588100000000054e+02
1.800000000000000000e+01,1.392056000000000040e+02
1.900000000000000000e+01,1.424279799999999909e+02
2.000000000000000000e+01,1.455347099999999898e+02
2.100000000000000000e+01,1.485359200000000044e+02
2.200000000000000000e+01,1.514376200000000097e+02
2.300000000000000000e+01,1.542493699999999990e+02
2.400000000000000000e+01,1.569742599999999868e+02
2.500000000000000000e+01,1.596195700000000102e+02
2.600000000000000000e+01,1.621912800000000061e+02
2.700000000000000000e+01,1.646918499999999881e+02
2.800000000000000000e+01,1.671254099999999880e+02
2.900000000000000000e+01,1.694963700000000131e+02
3.000000000000000000e+01,1.718075699999999983e+02
3.100000000000000000e+01,1.740622700000000123e+02
3.200000000000000000e+01,1.762642099999999914e+02
3.300000000000000000e+01,1.784148600000000044e+02
3.400000000000000000e+01,1.805165900000000079e+02
3.500000000000000000e+01,1.825719799999999964e+02
3.600000000000000000e+01,1.845825299999999913e+02
3.700000000000000000e+01,1.865509900000000130e+02
3.800000000000000000e+01,1.884793400000000076e+02
3.900000000000000000e+01,1.903681200000000047e+02
4.000000000000000000e+01,1.922197700000000111e+02
4.100000000000000000e+01,1.940351300000000094e+02
4.200000000000000000e+01,1.958161299999999869e+02
4.300000000000000000e+01,1.975636000000000081e+02
4.400000000000000000e+01,1.992787299999999959e+02
4.500000000000000000e+01,2.009638199999999983e+02
4.600000000000000000e+01,2.026182900000000018e+02
4.700000000000000000e+01,2.042448699999999917e+02
4.800000000000000000e+01,2.058433799999999962e+02
4.900000000000000000e+01,2.074150999999999954e+02
5.000000000000000000e+01,2.089612099999999941e+02
5.100000000000000000e+01,2.104818400000000054e+02
5.200000000000000000e+01,2.119782399999999996e+02
5.300000000000000000e+01,2.134515700000000038e+02
5.400000000000000000e+01,2.149017000000000053e+02
5.500000000000000000e+01,2.163302199999999971e+02
5.600000000000000000e+01,2.177373000000000047e+02
5.700000000000000000e+01,2.191248199999999997e+02
5.800000000000000000e+01,2.204910600000000045e+02
5.900000000000000000e+01,2.218385000000000105e+02
6.000000000000000000e+01,2.231669500000000141e+02
6.100000000000000000e+01,2.244771700000000010e+02
6.200000000000000000e+01,2.257702299999999980e+02
6.300000000000000000e+01,2.270455300000000136e+02
6.400000000000000000e+01,2.283040200000000084e+02
6.500000000000000000e+01,2.295471300000000099e+02
6.600000000000000000e+01,2.307745199999999954e+02
6.700000000000000000e+01,2.319857000000000085e+02
6.800000000000000000e+01,2.331829400000000021e+02
6.900000000000000000e+01,2.343656900000000007e+02
7.000000000000000000e+01,2.355343300000000113e+02
7.100000000000000000e+01,2.366896099999999876e+02
7.200000000000000000e+01,2.378312400000000082e+02
7.300000000000000000e+01,2.389599499999999921e+02
7.400000000000000000e+01,2.400765100000000132e+02
7.500000000000000000e+01,2.411806599999999889e+02
7.600000000000000000e+01,2.422733299999999872e+02
7.700000000000000000e+01,2.433541700000000105e+02
7.800000000000000000e+01,2.444236300000000028e+02
7.900000000000000000e+01,2.454820300000000088e+02
8.000000000000000000e+01,2.465313299999999970e+02
8.100000000000000000e+01,2.475689399999999978e+02
8.200000000000000000e+01,2.485963399999999979e+02
8.300000000000000000e+01,2.496148699999999963e+02
8.400000000000000000e+01,2.506236600000000010e+02
8.500000000000000000e+01,2.516229700000000093e+02
8.600000000000000000e+01,2.526127899999999897e+02
8.700000000000000000e+01,2.535948300000000017e+02
8.800000000000000000e+01,2.545672000000000139e+02
8.900000000000000000e+01,2.555324099999999987e+02
9.000000000000000000e+01,2.564881899999999746e+02
9.100000000000000000e+01,2.574369800000000055e+02
9.200000000000000000e+01,2.583774099999999976e+02
9.300000000000000000e+01,2.593102999999999838e+02
9.400000000000000000e+01,2.602356599999999958e+02
9.500000000000000000e+01,2.611546000000000163e+02
9.600000000000000000e+01,2.620653399999999920e+02
9.700000000000000000e+01,2.629700900000000274e+02
9.800000000000000000e+01,2.638684700000000021e+02
9.900000000000000000e+01,2.647589399999999955e+02
1.000000000000000000e+02,2.656438299999999799e+02
1.010000000000000000e+02,2.665221300000000042e+02
1.020000000000000000e+02,2.673944999999999936e+02
1.030000000000000000e+02,2.682608299999999986e+02
1.040000000000000000e+02,2.691212800000000129e+02
1.050000000000000000e+02,2.699755200000000173e+02
1.060000000000000000e+02,2.708243100000000254e+02
1.070000000000000000e+02,2.716678200000000061e+02
1.080000000000000000e+02,2.725056500000000028e+02
1.090000000000000000e+02,2.733376499999999965e+02
1.100000000000000000e+02,2.741651899999999955e+02
1.110000000000000000e+02,2.749867600000000039e+02
1.120000000000000000e+02,2.758036500000000046e+02
1.130000000000000000e+02,2.766158399999999915e+02
1.140000000000000000e+02,2.774227599999999825e+02
1.150000000000000000e+02,2.782240899999999897e+02
1.160000000000000000e+02,2.790214199999999778e+02
1.170000000000000000e+02,2.798139600000000087e+02
1.180000000000000000e+02,2.806018700000000194e+02
1.190000000000000000e+02,2.813852499999999850e+02
1.200000000000000000e+02,2.821638800000000060e+02
1.210000000000000000e+02,2.829381700000000137e+02
1.220000000000000000e+02,2.837082199999999830e+02
1.230000000000000000e+02,2.844737499999999955e+02
1.240000000000000000e+02,2.852349500000000262e+02
1.250000000000000000e+02,2.859926800000000071e+02
1.260000000000000000e+02,2.867453300000000240e+02
1.270000000000000000e+02,2.874938399999999774e+02
1.280000000000000000e+02,2.882385600000000068e+02
1.290000000000000000e+02,2.889791000000000167e+02
1.300000000000000000e+02,2.897156699999999887e+02
1.310000000000000000e+02,2.904485500000000116e+02
1.320000000000000000e+02,2.911774599999999964e+02
1.330000000000000000e+02,2.919028299999999945e+02
1.340000000000000000e+02,2.926240500000000111e+02
1.350000000000000000e+02,2.933415200000000027e+02
1.360000000000000000e+02,2.940552999999999884e+02
1.370000000000000000e+02,2.947661400000000071e+02
1.380000000000000000e+02,2.954732700000000136e+02
1.390000000000000000e+02,2.961762400000000071e+02
1.400000000000000000e+02,2.968760399999999890e+02
1.410000000000000000e+02,2.975722000000000094e+02
1.420000000000000000e+02,2.982649200000000178e+02
1.430000000000000000e+02,2.989547999999999774e+02
1.440000000000000000e+02,2.996413000000000011e+02
1.450000000000000000e+02,3.003241600000000062e+02
1.460000000000000000e+02,3.010041499999999814e+02
1.470000000000000000e+02,3.016802400000000262e+02
1.480000000000000000e+02,3.023533899999999903e+02
1.490000000000000000e+02,3.030240800000000263e+02
1.500000000000000000e+02,3.036915000000000191e+02
1.510000000000000000e+02,3.043553200000000061e+02
1.520000000000000000e+02,3.050161699999999882e+02
1.530000000000000000e+02,3.056743799999999851e+02
1.540000000000000000e+02,3.063295899999999961e+02
1.550000000000000000e+02,3.069816000000000145e+02
1.560000000000000000e+02,3.076310700000000224e+02
1.570000000000000000e+02,3.082772199999999998e+02
1.580000000000000000e+02,3.089213899999999740e+02
1.590000000000000000e+02,3.095617700000000241e+02
1.600000000000000000e+02,3.101994000000000256e+02
1.610000000000000000e+02,3.108351400000000240e+02
1.620000000000000000e+02,3.114673799999999915e+02
1.630000000000000000e+02,3.120967999999999734e+02
1.640000000000000000e+02,3.127242100000000278e+02
1.650000000000000000e+02,3.133481800000000135e+02
1.660000000000000000e+02,3.139701200000000085e+02
1.670000000000000000e+02,3.145892299999999864e+02
1.680000000000000000e+02,3.152058400000000233e+02
1.690000000000000000e+02,3.158193099999999731e+02
1.700000000000000000e+02,3.164306900000000269e+02
1.710000000000000000e+02,3.170396099999999819e+02
1.720000000000000000e+02,3.176454200000000014e+02
1.730000000000000000e+02,3.182493600000000242e+02
1.740000000000000000e+02,3.188502500000000168e+02
1.750000000000000000e+02,3.194491300000000251e+02
1.760000000000000000e+02,3.200448900000000094e+02
1.770000000000000000e+02,3.206387599999999907e+02
1.780000000000000000e+02,3.212302599999999870e+02
1.790000000000000000e+02,3.218187300000000164e+02
1.800000000000000000e+02,3.224045399999999972e+02
1.810000000000000000e+02,3.229891099999999824e+02
1.820000000000000000e+02,3.235697000000000116e+02
1.830000000000000000e+02,3.241492600000000266e+02
1.840000000000000000e+02,3.247260699999999929e+02
1.850000000000000000e+02,3.252999300000000176e+02
1.860000000000000000e+02,3.258720099999999888e+02
1.870000000000000000e+02,3.264418900000000008e+02
1.880000000000000000e+02,3.270085399999999822e+02
1.890000000000000000e+02,3.275729400000000169e+02
1.900000000000000000e+02,3.281361999999999739e+02
1.910000000000000000e+02,3.286951300000000060e+02
1.920000000000000000e+02,3.292534800000000246e+02
1.930000000000000000e+02,3.298091699999999946e+02
1.940000000000000000e+02,3.303616299999999910e+02
1.950000000000000000e+02,3.309126299999999787e+02
1.960000000000000000e+02,3.314613299999999754e+02
1.970000000000000000e+02,3.320067099999999982e+02
1.980000000000000000e+02,3.325509900000000130e+02
1.990000000000000000e+02,3.330929899999999861e+02
2.000000000000000000e+02,3.336314399999999978e+02
2.010000000000000000e+02,3.341688500000000204e+02
2.020000000000000000e+02,3.347035500000000070e+02
2.030000000000000000e+02,3.352353499999999826e+02
2.040000000000000000e+02,3.357655300000000125e+02
2.050000000000000000e+02,3.362937000000000012e+02
2.060000000000000000e+02,3.368179900000000089e+02
2.070000000000000000e+02,3.373415800000000218e+02
2.080000000000000000e+02,3.378630699999999933e+02
2.090000000000000000e+02,3.383803700000000276e+02
2.100000000000000000e+02,3.388971300000000042e+02
2.110000000000000000e+02,3.394112900000000081e+02
2.120000000000000000e+02,3.399219100000000253e+02
2.130000000000000000e+02,3.404318499999999972e+02
2.140000000000000000e+02,3.409392399999999839e+02
2.150000000000000000e+02,3.414430800000000090e+02
2.160000000000000000e+02,3.419462599999999952e+02
2.170000000000000000e+02,3.424472400000000221e+02
2.180000000000000000e+02,3.429434499999999844e+02
2.190000000000000000e+02,3.434393900000000031e+02
2.200000000000000000e+02,3.439338700000000131e+02
2.210000000000000000e+02,3.444233399999999961e+02
2.220000000000000000e+02,3.449119600000000219e+02
2.230000000000000000e+02,3.453997200000000021e+02
2.240000000000000000e+02,3.458822000000000116e+02
2.250000000000000000e+02,3.463647799999999961e+02
2.260000000000000000e+02,3.468448799999999892e+02
2.270000000000000000e+02,3.473201900000000251e+02
2.280000000000000000e+02,3.477957499999999982e+02
2.290000000000000000e+02,3.482694399999999746e+02
2.300000000000000000e+02,3.487375200000000177e+02
2.310000000000000000e+02,3.492061800000000176e+02
2.320000000000000000e+02,3.496731300000000147e+02
2.330000000000000000e+02,3.501338499999999954e+02
2.340000000000000000e+02,3.505955200000000218e+02
2.350000000000000000e+02,3.510559400000000210e+02
2.360000000000000000e+02,3.515092200000000275e+02
2.370000000000000000e+02,3.519639300000000048e+02
2.380000000000000000e+02,3.524170199999999795e+02
2.390000000000000000e+02,3.528636500000000069e+02
2.400000000000000000e+02,3.533114899999999921e+02
2.410000000000000000e+02,3.537576300000000060e+02
2.420000000000000000e+02,3.541966600000000085e+02
2.430000000000000000e+02,3.546374200000000201e+02
2.440000000000000000e+02,3.550770600000000172e+02
2.450000000000000000e+02,3.555089699999999766e+02
2.460000000000000000e+02,3.559419899999999757e+02
2.470000000000000000e+02,3.563747900000000186e+02
2.480000000000000000e+02,3.567994400000000041e+02
2.490000000000000000e+02,3.572262600000000248e+02
2.500000000000000000e+02,3.576519499999999994e+02
2.510000000000000000e+02,3.580692099999999982e+02
2.520000000000000000e+02,3.584886500000000069e+02
2.530000000000000000e+02,3.589072899999999890e+02
2.540000000000000000e+02,3.593170200000000136e+02
2.550000000000000000e+02,3.597298000000000116e+02
2.560000000000000000e+02,3.601416300000000206e+02
2.570000000000000000e+02,3.605441000000000145e+02
2.580000000000000000e+02,3.609497700000000009e+02
2.590000000000000000e+02,3.613545199999999795e+02
2.600000000000000000e+02,3.617491499999999860e+02
2.610000000000000000e+02,3.621478299999999990e+02
2.620000000000000000e+02,3.625457499999999982e+02
2.630000000000000000e+02,3.629334099999999808e+02
2.640000000000000000e+02,3.633251300000000015e+02
2.650000000000000000e+02,3.637160299999999893e+02
2.660000000000000000e+02,3.640962499999999977e+02
2.670000000000000000e+02,3.644809900000000198e+02
2.680000000000000000e+02,3.648651699999999778e+02
2.690000000000000000e+02,3.652380400000000122e+02
2.700000000000000000e+02,3.656158399999999915e+02
2.710000000000000000e+02,3.659931000000000267e+02
2.720000000000000000e+02,3.663584900000000175e+02
2.730000000000000000e+02,3.667292499999999791e+02
2.740000000000000000e+02,3.670996700000000033e+02
2.750000000000000000e+02,3.674578900000000203e+02
2.760000000000000000e+02,3.678219000000000278e+02
2.770000000000000000e+02,3.681855499999999779e+02
2.780000000000000000e+02,3.685364999999999895e+02
2.790000000000000000e+02,3.688937399999999798e+02
2.800000000000000000e+02,3.692511600000000271e+02
2.810000000000000000e+02,3.695946700000000078e+02
2.820000000000000000e+02,3.699451599999999871e+02
2.830000000000000000e+02,3.702954100000000039e+02
2.840000000000000000e+02,3.706319599999999923e+02
2.850000000000000000e+02,3.709757399999999734e+02
2.860000000000000000e+02,3.713194899999999734e+02
2.870000000000000000e+02,3.716489300000000071e+02
2.880000000000000000e+02,3.719865399999999909e+02
2.890000000000000000e+02,3.723235500000000116e+02
2.900000000000000000e+02,3.726466699999999719e+02
2.910000000000000000e+02,3.729775099999999952e+02
2.920000000000000000e+02,3.733084999999999809e+02
2.930000000000000000e+02,3.736241800000000239e+02
2.940000000000000000e+02,3.739489699999999743e+02
2.950000000000000000e+02,3.742733499999999935e+02
2.960000000000000000e+02,3.745822800000000257e+02
2.970000000000000000e+02,3.749003000000000156e+02
2.980000000000000000e+02,3.752187799999999811e+02
2.990000000000000000e+02,3.755215499999999906e+02
3.000000000000000000e+02,3.758340099999999779e+02
3.010000000000000000e+02,3.761462099999999964e+02
3.020000000000000000e+02,3.764420499999999947e+02
3.030000000000000000e+02,3.767480199999999968e+02
3.040000000000000000e+02,3.770551800000000071e+02
3.050000000000000000e+02,3.773448799999999892e+02
3.060000000000000000e+02,3.776450500000000261e+02
3.070000000000000000e+02,3.779458300000000008e+02
3.080000000000000000e+02,3.782296099999999797e+02
3.090000000000000000e+02,3.785235599999999749e+02
3.100000000000000000e+02,3.788193400000000111e+02
3.110000000000000000e+02,3.790967400000000112e+02
3.120000000000000000e+02,3.793861999999999739e+02
3.130000000000000000e+02,3.796755699999999933e+02
3.140000000000000000e+02,3.799469599999999900e+02
3.150000000000000000e+02,3.802307999999999879e+02
3.160000000000000000e+02,3.805158099999999877e+02
3.170000000000000000e+02,3.807812500000000000e+02
3.180000000000000000e+02,3.810595700000000079e+02
3.190000000000000000e+02,3.813400300000000129e+02
3.200000000000000000e+02,3.815999800000000164e+02
3.210000000000000000e+02,3.818730800000000158e+02
3.220000000000000000e+02,3.821474900000000048e+02
3.230000000000000000e+02,3.824038400000000024e+02
3.240000000000000000e+02,3.826716299999999933e+02
3.250000000000000000e+02,3.829412199999999871e+02
3.260000000000000000e+02,3.831916200000000003e+02
3.270000000000000000e+02,3.834553799999999910e+02
3.280000000000000000e+02,3.837204899999999839e+02
3.290000000000000000e+02,3.839660000000000082e+02
3.300000000000000000e+02,3.842250700000000165e+02
3.310000000000000000e+02,3.844857200000000148e+02
3.320000000000000000e+02,3.847267499999999814e+02
3.330000000000000000e+02,3.849814499999999953e+02
3.340000000000000000e+02,3.852382799999999747e+02
3.350000000000000000e+02,3.854736599999999953e+02
3.360000000000000000e+02,3.857249100000000226e+02
3.370000000000000000e+02,3.859775700000000143e+02
3.380000000000000000e+02,3.862085599999999772e+02
3.390000000000000000e+02,3.864556600000000230e+02
3.400000000000000000e+02,3.867044999999999959e+02
3.410000000000000000e+02,3.869314299999999776e+02
3.420000000000000000e+02,3.871754199999999742e+02
3.430000000000000000e+02,3.874191900000000146e+02
3.440000000000000000e+02,3.876427899999999909e+02
3.450000000000000000e+02,3.878830899999999815e+02
3.460000000000000000e+02,3.881233500000000163e+02
3.470000000000000000e+02,3.883431699999999864e+02
3.480000000000000000e+02,3.885798599999999965e+02
3.490000000000000000e+02,3.888166200000000003e+02
3.500000000000000000e+02,3.890337499999999977e+02
3.510000000000000000e+02,3.892658400000000256e+02
3.520000000000000000e+02,3.895006399999999758e+02
3.530000000000000000e+02,3.897138400000000047e+02
3.540000000000000000e+02,3.899427200000000084e+02
3.550000000000000000e+02,3.901741000000000099e+02
3.560000000000000000e+02,3.903841600000000085e+02
3.570000000000000000e+02,3.906107499999999959e+02
3.580000000000000000e+02,3.908385599999999727e+02
3.590000000000000000e+02,3.910456800000000044e+02
3.600000000000000000e+02,3.912691300000000183e+02
3.610000000000000000e+02,3.914940500000000156e+02
3.620000000000000000e+02,3.916991600000000062e+02
3.630000000000000000e+02,3.919192800000000148e+02
3.640000000000000000e+02,3.921422099999999773e+02
3.650000000000000000e+02,3.923432300000000055e+02
3.660000000000000000e+02,3.925623800000000188e+02
3.670000000000000000e+02,3.927807300000000055e+02
3.680000000000000000e+02,3.929810800000000199e+02
3.690000000000000000e+02,3.931967200000000275e+02
3.700000000000000000e+02,3.934137299999999868e+02
3.710000000000000000e+02,3.936118200000000229e+02
3.720000000000000000e+02,3.938233000000000175e+02
3.730000000000000000e+02,3.940395500000000197e+02
3.740000000000000000e+02,3.942336399999999799e+02
3.750000000000000000e+02,3.944457100000000196e+02
3.760000000000000000e+02,3.946570100000000139e+02
3.770000000000000000e+02,3.948515899999999874e+02
3.780000000000000000e+02,3.950586900000000128e+02
3.790000000000000000e+02,3.952695299999999747e+02
3.800000000000000000e+02,3.954605700000000184e+02
3.810000000000000000e+02,3.956675700000000120e+02
3.820000000000000000e+02,3.958753399999999942e+02
3.830000000000000000e+02,3.960656999999999925e+02
3.840000000000000000e+02,3.962694700000000125e+02
3.850000000000000000e+02,3.964753699999999981e+02
3.860000000000000000e+02,3.966648599999999760e+02
3.870000000000000000e+02,3.968660899999999856e+02
3.880000000000000000e+02,3.970719300000000089e+02
3.890000000000000000e+02,3.972571100000000115e+02
3.900000000000000000e+02,3.974593499999999722e+02
3.910000000000000000e+02,3.976602800000000002e+02
3.920000000000000000e+02,3.978460099999999784e+02
3.930000000000000000e+02,3.980441000000000145e+02
3.940000000000000000e+02,3.982451800000000048e+02
3.950000000000000000e+02,3.984285300000000234e+02
3.960000000000000000e+02,3.986262500000000273e+02
3.970000000000000000e+02,3.988244599999999878e+02
3.980000000000000000e+02,3.990076300000000060e+02
