# Time [s], Convective Heat Transfer Coefficient [W/m2K]
0.000000000000000000e+00,0.000000000000000000e+00
1.000000000000000000e+00,0.000000000000000000e+00
2.000000000000000000e+00,0.000000000000000000e+00
3.000000000000000000e+00,0.000000000000000000e+00
4.000000000000000000e+00,0.000000000000000000e+00
5.000000000000000000e+00,1.915079995362458862e-02
6.000000000000000000e+00,3.574028725257893252e-02
7.000000000000000000e+00,5.780487740346602205e-02
8.000000000000000000e+00,8.784074779022797708e-02
9.000000000000000000e+00,1.257329383420519586e-01
1.000000000000000000e+01,1.723177856750365000e-01
1.100000000000000000e+01,2.271183731105515802e-01
1.200000000000000000e+01,2.895419518789969504e-01
1.300000000000000000e+01,3.588540760900989501e-01
1.400000000000000000e+01,4.341142485008209206e-01
1.500000000000000000e+01,5.144178717970310233e-01
1.600000000000000000e+01,5.988996346642178059e-01
1.700000000000000000e+01,6.867238872595609056e-01
1.800000000000000000e+01,7.771896091292359587e-01
1.900000000000000000e+01,8.696486225696303807e-01
2.000000000000000000e+01,9.635626278517168686e-01
2.100000000000000000e+01,1.058460956000359277e+00
2.200000000000000000e+01,1.153950403166075445e+00
2.300000000000000000e+01,1.249691715416664017e+00
2.400000000000000000e+01,1.345405601268046869e+00
2.500000000000000000e+01,1.440860547771872557e+00
2.600000000000000000e+01,1.535858816016294259e+00
2.700000000000000000e+01,1.630242801295258337e+00
2.800000000000000000e+01,1.723880087797611704e+00
2.900000000000000000e+01,1.816665752448451521e+00
3.000000000000000000e+01,1.908509501064236114e+00
3.100000000000000000e+01,1.999342236518649729e+00
3.200000000000000000e+01,2.089111674494080084e+00
3.300000000000000000e+01,2.177775090992227103e+00
3.400000000000000000e+01,2.265299230816786746e+00
3.500000000000000000e+01,2.351662206289706347e+00
3.600000000000000000e+01,2.436849573193846652e+00
3.700000000000000000e+01,2.520851475161010491e+00
3.800000000000000000e+01,2.603662941167330214e+00
3.900000000000000000e+01,2.685285124881151120e+00
4.000000000000000000e+01,2.765723595848396776e+00
4.100000000000000000e+01,2.844988569080886709e+00
4.200000000000000000e+01,2.923083517087072813e+00
4.300000000000000000e+01,3.000024787080532995e+00
4.400000000000000000e+01,3.075822643014102908e+00
4.500000000000000000e+01,3.150494449378057560e+00
4.600000000000000000e+01,3.224052380269068152e+00
4.700000000000000000e+01,3.296517688361376486e+00
4.800000000000000000e+01,3.367905621629639690e+00
4.900000000000000000e+01,3.438236561117482992e+00
5.000000000000000000e+01,3.507528309520035581e+00
5.100000000000000000e+01,3.575800931245035397e+00
5.200000000000000000e+01,3.643071288397874863e+00
5.300000000000000000e+01,3.709357848544033054e+00
5.400000000000000000e+01,3.774679261212474657e+00
5.500000000000000000e+01,3.839054973326986531e+00
5.600000000000000000e+01,3.902504274295566233e+00
5.700000000000000000e+01,3.965043815915945569e+00
5.800000000000000000e+01,4.026691585001612950e+00
5.900000000000000000e+01,4.087467378491317582e+00
6.000000000000000000e+01,4.147388779280430704e+00
6.100000000000000000e+01,4.206471780936984040e+00
6.200000000000000000e+01,4.264733311884413069e+00
6.300000000000000000e+01,4.322194053856681428e+00
6.400000000000000000e+01,4.378865079329306909e+00
6.500000000000000000e+01,4.434763465887241907e+00
6.600000000000000000e+01,4.489908552181572254e+00
6.700000000000000000e+01,4.544311195253173175e+00
6.800000000000000000e+01,4.597988227003527939e+00
6.900000000000000000e+01,4.650956112348925586e+00
7.000000000000000000e+01,4.703225825137769434e+00
7.100000000000000000e+01,4.754814803577048110e+00
7.200000000000000000e+01,4.805733316203257388e+00
7.300000000000000000e+01,4.855997985927565708e+00
7.400000000000000000e+01,4.905617896526427657e+00
7.500000000000000000e+01,4.954610194895667341e+00
7.600000000000000000e+01,5.002983815376341070e+00
7.700000000000000000e+01,5.050754235330866315e+00
7.800000000000000000e+01,5.097931010194064250e+00
7.900000000000000000e+01,5.144525992611825416e+00
8.000000000000000000e+01,5.190551118175942946e+00
8.100000000000000000e+01,5.236015612690325227e+00
8.200000000000000000e+01,5.280933894110892979e+00
8.300000000000000000e+01,5.325313367951704180e+00
8.400000000000000000e+01,5.369163235441624771e+00
8.500000000000000000e+01,5.412496699301556191e+00
8.600000000000000000e+01,5.455322777328261097e+00
8.700000000000000000e+01,5.497647859191935105e+00
8.800000000000000000e+01,5.539483871772723056e+00
8.900000000000000000e+01,5.580840685456686323e+00
9.000000000000000000e+01,5.621725482967040222e+00
9.100000000000000000e+01,5.662146379771905380e+00
9.200000000000000000e+01,5.702113614969126942e+00
9.300000000000000000e+01,5.741634502321974587e+00
9.400000000000000000e+01,5.780717864674405071e+00
9.500000000000000000e+01,5.819369161180499184e+00
9.600000000000000000e+01,5.857598585700988458e+00
9.700000000000000000e+01,5.895412745078220773e+00
9.800000000000000000e+01,5.932818243558006799e+00
9.900000000000000000e+01,5.969823093611295484e+00
1.000000000000000000e+02,6.006432183647673284e+00
1.010000000000000000e+02,6.042654453217839006e+00
1.020000000000000000e+02,6.078496664984117004e+00
1.030000000000000000e+02,6.113964314033808911e+00
1.040000000000000000e+02,6.149064609738892351e+00
1.050000000000000000e+02,6.183801664457742930e+00
1.060000000000000000e+02,6.218183688196369019e+00
1.070000000000000000e+02,6.252216625886158674e+00
1.080000000000000000e+02,6.285905405168700000e+00
1.090000000000000000e+02,6.319255924591225870e+00
1.100000000000000000e+02,6.352273784378306587e+00
1.110000000000000000e+02,6.384962665108819380e+00
1.120000000000000000e+02,6.417329739872402072e+00
1.130000000000000000e+02,6.449380631649584750e+00
1.140000000000000000e+02,6.481119434343776575e+00
1.150000000000000000e+02,6.512551215587699893e+00
1.160000000000000000e+02,6.543680576067765209e+00
1.170000000000000000e+02,6.574511130026943206e+00
1.180000000000000000e+02,6.605049307443628059e+00
1.190000000000000000e+02,6.635299971639224914e+00
1.200000000000000000e+02,6.665266227157220058e+00
1.210000000000000000e+02,6.694953415513367645e+00
1.220000000000000000e+02,6.724365392939187558e+00
1.230000000000000000e+02,6.753504851758886929e+00
1.240000000000000000e+02,6.782377950576728765e+00
1.250000000000000000e+02,6.810988364875298018e+00
1.260000000000000000e+02,6.839339142736663213e+00
1.270000000000000000e+02,6.867434964602241010e+00
1.280000000000000000e+02,6.895278876795910783e+00
1.290000000000000000e+02,6.922874067010516441e+00
1.300000000000000000e+02,6.950225555194877280e+00
1.310000000000000000e+02,6.977336275452501013e+00
1.320000000000000000e+02,7.004209304344449549e+00
1.330000000000000000e+02,7.030848802892387006e+00
1.340000000000000000e+02,7.057256450752003474e+00
1.350000000000000000e+02,7.083437371010831818e+00
1.360000000000000000e+02,7.109394214410217572e+00
1.370000000000000000e+02,7.135130238562198635e+00
1.380000000000000000e+02,7.160647916749031339e+00
1.390000000000000000e+02,7.185949419296410845e+00
1.400000000000000000e+02,7.211039775936792573e+00
1.410000000000000000e+02,7.235921188379996316e+00
1.420000000000000000e+02,7.260596458172026146e+00
1.430000000000000000e+02,7.285066981593047331e+00
1.440000000000000000e+02,7.309337178689676584e+00
1.450000000000000000e+02,7.333410040689494203e+00
1.460000000000000000e+02,7.357286960913496543e+00
1.470000000000000000e+02,7.380969935131373560e+00
1.480000000000000000e+02,7.404463464029030106e+00
1.490000000000000000e+02,7.427769170525833076e+00
1.500000000000000000e+02,7.450889474459724049e+00
1.510000000000000000e+02,7.473825682114994429e+00
1.520000000000000000e+02,7.496582394509888836e+00
1.530000000000000000e+02,7.519160161921357499e+00
1.540000000000000000e+02,7.541561367927601900e+00
1.550000000000000000e+02,7.563789356953072307e+00
1.560000000000000000e+02,7.585845762183033969e+00
1.570000000000000000e+02,7.607732577863286494e+00
1.580000000000000000e+02,7.629450741422715510e+00
1.590000000000000000e+02,7.651004562848326529e+00
1.600000000000000000e+02,7.672394869498450731e+00
1.610000000000000000e+02,7.693623255966760333e+00
1.620000000000000000e+02,7.714693046519886188e+00
1.630000000000000000e+02,7.735604944829347573e+00
1.640000000000000000e+02,7.756360996155634346e+00
1.650000000000000000e+02,7.776964164684505576e+00
1.660000000000000000e+02,7.797415036644538056e+00
1.670000000000000000e+02,7.817715330120907247e+00
1.680000000000000000e+02,7.837868056461391397e+00
1.690000000000000000e+02,7.857873885515260781e+00
1.700000000000000000e+02,7.877735166297477498e+00
1.710000000000000000e+02,7.897452882072713898e+00
1.720000000000000000e+02,7.917028738805201193e+00
1.730000000000000000e+02,7.936465890908926291e+00
1.740000000000000000e+02,7.955764097760164688e+00
1.750000000000000000e+02,7.974925695588614083e+00
1.760000000000000000e+02,7.993952421875160752e+00
1.770000000000000000e+02,8.012844518203650068e+00
1.780000000000000000e+02,8.031604939193909942e+00
1.790000000000000000e+02,8.050234773913908626e+00
1.800000000000000000e+02,8.068735266932124617e+00
1.810000000000000000e+02,8.087107814877024126e+00
1.820000000000000000e+02,8.105353963141293860e+00
1.830000000000000000e+02,8.123475047946710603e+00
1.840000000000000000e+02,8.141471847941115669e+00
1.850000000000000000e+02,8.159346882367083609e+00
1.860000000000000000e+02,8.177100171677093243e+00
1.870000000000000000e+02,8.194733998189985158e+00
1.880000000000000000e+02,8.212248692010243545e+00
1.890000000000000000e+02,8.229646820778297567e+00
1.900000000000000000e+02,8.246928151381361261e+00
1.910000000000000000e+02,8.264095193362402725e+00
1.920000000000000000e+02,8.281148021416534277e+00
1.930000000000000000e+02,8.298088575464962702e+00
1.940000000000000000e+02,8.314916897947735919e+00
1.950000000000000000e+02,8.331635893920498859e+00
1.960000000000000000e+02,8.348244723437737491e+00
1.970000000000000000e+02,8.364746404435214444e+00
1.980000000000000000e+02,8.381140071244042034e+00
1.990000000000000000e+02,8.397428354447438181e+00
2.000000000000000000e+02,8.413611525679110414e+00
2.010000000000000000e+02,8.429690837659553182e+00
2.020000000000000000e+02,8.445667028615710947e+00
2.030000000000000000e+02,8.461540822558001551e+00
2.040000000000000000e+02,8.477314558494468244e+00
2.050000000000000000e+02,8.492987129756098597e+00
2.060000000000000000e+02,8.508561161920921379e+00
2.070000000000000000e+02,8.524036983850157512e+00
2.080000000000000000e+02,8.539414916782213538e+00
2.090000000000000000e+02,8.554697513844077505e+00
2.100000000000000000e+02,8.569884101286685762e+00
2.110000000000000000e+02,8.584976871032871770e+00
2.120000000000000000e+02,8.599975290921616278e+00
2.130000000000000000e+02,8.614880568493212820e+00
2.140000000000000000e+02,8.629694363515616473e+00
2.150000000000000000e+02,8.644416587284343478e+00
2.160000000000000000e+02,8.659048086449873338e+00
2.170000000000000000e+02,8.673590471686642545e+00
2.180000000000000000e+02,8.688043778821098684e+00
2.190000000000000000e+02,8.702408659005543612e+00
2.200000000000000000e+02,8.716686676740302175e+00
2.210000000000000000e+02,8.730877530912831475e+00
2.220000000000000000e+02,8.744982452600012834e+00
2.230000000000000000e+02,8.759002807251089706e+00
2.240000000000000000e+02,8.772938115434708806e+00
2.250000000000000000e+02,8.786789872487288378e+00
2.260000000000000000e+02,8.800558343526565963e+00
2.270000000000000000e+02,8.814244993498784098e+00
2.280000000000000000e+02,8.827849464497235843e+00
2.290000000000000000e+02,8.841372898312192419e+00
2.300000000000000000e+02,8.854816122036469395e+00
2.310000000000000000e+02,8.868179652924160550e+00
2.320000000000000000e+02,8.881463851501502305e+00
2.330000000000000000e+02,8.894669663738195453e+00
2.340000000000000000e+02,8.907797284707486440e+00
2.350000000000000000e+02,8.920847787698834352e+00
2.360000000000000000e+02,8.933821204787344428e+00
2.370000000000000000e+02,8.946718296885801891e+00
2.380000000000000000e+02,8.959540105816964584e+00
2.390000000000000000e+02,8.972287077916753617e+00
2.400000000000000000e+02,8.984959652543681230e+00
2.410000000000000000e+02,8.997557828414114667e+00
2.420000000000000000e+02,9.010082755903656704e+00
2.430000000000000000e+02,9.022534851767034070e+00
2.440000000000000000e+02,9.034914096107952375e+00
2.450000000000000000e+02,9.047221611497651139e+00
2.460000000000000000e+02,9.059457508107485069e+00
2.470000000000000000e+02,9.071623031075827015e+00
2.480000000000000000e+02,9.083718275520533680e+00
2.490000000000000000e+02,9.095743616782691277e+00
2.500000000000000000e+02,9.107699565619132187e+00
2.510000000000000000e+02,9.119586625708070216e+00
2.520000000000000000e+02,9.131405013000886584e+00
2.530000000000000000e+02,9.143155359599667520e+00
2.540000000000000000e+02,9.154837870425540203e+00
2.550000000000000000e+02,9.166453164588745040e+00
2.560000000000000000e+02,9.178001992249786412e+00
2.570000000000000000e+02,9.189484262691628658e+00
2.580000000000000000e+02,9.200900437579417002e+00
2.590000000000000000e+02,9.212251248258571223e+00
2.600000000000000000e+02,9.223536866898612629e+00
2.610000000000000000e+02,9.234757736934813721e+00
2.620000000000000000e+02,9.245914158998727927e+00
2.630000000000000000e+02,9.257006429266157355e+00
2.640000000000000000e+02,9.268035112088186978e+00
2.650000000000000000e+02,9.279000764922912481e+00
2.660000000000000000e+02,9.289903531542371695e+00
2.670000000000000000e+02,9.300743688191143832e+00
2.680000000000000000e+02,9.311521642054449543e+00
2.690000000000000000e+02,9.322238064469148711e+00
2.700000000000000000e+02,9.332892812793847526e+00
2.710000000000000000e+02,9.343486548751332776e+00
2.720000000000000000e+02,9.354019391480639101e+00
2.730000000000000000e+02,9.364491991558052675e+00
2.740000000000000000e+02,9.374903926801618326e+00
2.750000000000000000e+02,9.385256106308998980e+00
2.760000000000000000e+02,9.395548766726287582e+00
2.770000000000000000e+02,9.405782273550046924e+00
2.780000000000000000e+02,9.415956327553038463e+00
2.790000000000000000e+02,9.426071948176925730e+00
2.800000000000000000e+02,9.436128961541454530e+00
2.810000000000000000e+02,9.446127718634688364e+00
2.820000000000000000e+02,9.456069089769217229e+00
2.830000000000000000e+02,9.465952891489482823e+00
2.840000000000000000e+02,9.475779070904422952e+00
2.850000000000000000e+02,9.485548745131948678e+00
2.860000000000000000e+02,9.495261462761906301e+00
2.870000000000000000e+02,9.504917293041815540e+00
2.880000000000000000e+02,9.514516820571770950e+00
2.890000000000000000e+02,9.524060365826775509e+00
2.900000000000000000e+02,9.533548245421645362e+00
2.910000000000000000e+02,9.542980772170350789e+00
2.920000000000000000e+02,9.552357485412056093e+00
2.930000000000000000e+02,9.561679591303434478e+00
2.940000000000000000e+02,9.570946496281479199e+00
2.950000000000000000e+02,9.580158375371146562e+00
2.960000000000000000e+02,9.589316546688433363e+00
2.970000000000000000e+02,9.598420411163466781e+00
2.980000000000000000e+02,9.607469880307172971e+00
2.990000000000000000e+02,9.616465371372001414e+00
3.000000000000000000e+02,9.625407676290137715e+00
3.010000000000000000e+02,9.634296444859359099e+00
3.020000000000000000e+02,9.643131957655999287e+00
3.030000000000000000e+02,9.651914240666499722e+00
3.040000000000000000e+02,9.660644071035608960e+00
3.050000000000000000e+02,9.669321092266041973e+00
3.060000000000000000e+02,9.677945699091907272e+00
3.070000000000000000e+02,9.686517533677205805e+00
3.080000000000000000e+02,9.695037360362299239e+00
3.090000000000000000e+02,9.703505439633437035e+00
3.100000000000000000e+02,9.711921284334060545e+00
3.110000000000000000e+02,9.720285524527120913e+00
3.120000000000000000e+02,9.728598413708917647e+00
3.130000000000000000e+02,9.736859832053067265e+00
3.140000000000000000e+02,9.745070398954949198e+00
3.150000000000000000e+02,9.753229867068290204e+00
3.160000000000000000e+02,9.761338358095370538e+00
3.170000000000000000e+02,9.769395869108040031e+00
3.180000000000000000e+02,9.777403130729608094e+00
3.190000000000000000e+02,9.785359278378171766e+00
3.200000000000000000e+02,9.793265648893790143e+00
3.210000000000000000e+02,9.801121254030121577e+00
3.220000000000000000e+02,9.808927300676456795e+00
3.230000000000000000e+02,9.816683043343241266e+00
3.240000000000000000e+02,9.824388710353137100e+00
3.250000000000000000e+02,9.832045132907365925e+00
3.260000000000000000e+02,9.839651564122197769e+00
3.270000000000000000e+02,9.847209071393962176e+00
3.280000000000000000e+02,9.854717026930615020e+00
3.290000000000000000e+02,9.862175527755512761e+00
3.300000000000000000e+02,9.869585270032622759e+00
3.310000000000000000e+02,9.876945384691136809e+00
3.320000000000000000e+02,9.884256923772182901e+00
3.330000000000000000e+02,9.891519735556274284e+00
3.340000000000000000e+02,9.898733548628332102e+00
3.350000000000000000e+02,9.905898688493749660e+00
3.360000000000000000e+02,9.913015715894680113e+00
3.370000000000000000e+02,9.920084354572317409e+00
3.380000000000000000e+02,9.927104566299398414e+00
3.390000000000000000e+02,9.934076430562061688e+00
3.400000000000000000e+02,9.941000499093640030e+00
3.410000000000000000e+02,9.947876491421490996e+00
3.420000000000000000e+02,9.954704245640035865e+00
3.430000000000000000e+02,9.961484543345550335e+00
3.440000000000000000e+02,9.968216864896485063e+00
3.450000000000000000e+02,9.974901986495735784e+00
3.460000000000000000e+02,9.981539386666437252e+00
3.470000000000000000e+02,9.988129366969523915e+00
3.480000000000000000e+02,9.994672109087574086e+00
3.490000000000000000e+02,1.000116720749283239e+01
3.500000000000000000e+02,1.000761577711990036e+01
3.510000000000000000e+02,1.001401694162682965e+01
3.520000000000000000e+02,1.002037111048374207e+01
3.530000000000000000e+02,1.002667880642612452e+01
3.540000000000000000e+02,1.003293915297155259e+01
3.550000000000000000e+02,1.003915348373611138e+01
3.560000000000000000e+02,1.004532080454178633e+01
3.570000000000000000e+02,1.005144174711162464e+01
3.580000000000000000e+02,1.005751659183545321e+01
3.590000000000000000e+02,1.006354503875020967e+01
3.600000000000000000e+02,1.006952759639835193e+01
3.610000000000000000e+02,1.007546350139707769e+01
3.620000000000000000e+02,1.008135418126468252e+01
3.630000000000000000e+02,1.008719863985572474e+01
3.640000000000000000e+02,1.009299703370122359e+01
3.650000000000000000e+02,1.009875032101047054e+01
3.660000000000000000e+02,1.010445819340878515e+01
3.670000000000000000e+02,1.011012011382245568e+01
3.680000000000000000e+02,1.011573691927635821e+01
3.690000000000000000e+02,1.012130852786299506e+01
3.700000000000000000e+02,1.012683519943204224e+01
3.710000000000000000e+02,1.013231696361744483e+01
3.720000000000000000e+02,1.013775350718933055e+01
3.730000000000000000e+02,1.014314576878899032e+01
3.740000000000000000e+02,1.014849263617490571e+01
3.750000000000000000e+02,1.015379583926714169e+01
3.760000000000000000e+02,1.015905437759514740e+01
3.770000000000000000e+02,1.016426838688198586e+01
3.780000000000000000e+02,1.016943834084110421e+01
3.790000000000000000e+02,1.017456448409244452e+01
3.800000000000000000e+02,1.017964672037642515e+01
3.810000000000000000e+02,1.018468506567006493e+01
3.820000000000000000e+02,1.018968021133985147e+01
3.830000000000000000e+02,1.019463160609627650e+01
3.840000000000000000e+02,1.019953982504642731e+01
3.850000000000000000e+02,1.020440476559734577e+01
3.860000000000000000e+02,1.020922677381337529e+01
3.870000000000000000e+02,1.021400585686244078e+01
3.880000000000000000e+02,1.021874213302070089e+01
3.890000000000000000e+02,1.022343583116061616e+01
3.900000000000000000e+02,1.022808717835743231e+01
3.910000000000000000e+02,1.023269617631928874e+01
3.920000000000000000e+02,1.023726316089313215e+01
3.930000000000000000e+02,1.024178868898815864e+01
3.940000000000000000e+02,1.024627208812292167e+01
3.950000000000000000e+02,1.025071413549134469e+01
3.960000000000000000e+02,1.025511460290153920e+01
3.970000000000000000e+02,1.025947392931389146e+01
