# Time [s], Temperature [C]
1.000000000000000000e+00,2.499997099999999861e+01
2.000000000000000000e+00,4.592836799999999897e+01
3.000000000000000000e+00,5.781251100000000065e+01
4.000000000000000000e+00,6.750511899999999343e+01
5.000000000000000000e+00,7.559929700000000707e+01
6.000000000000000000e+00,8.271633900000000494e+01
7.000000000000000000e+00,8.909358199999999783e+01
8.000000000000000000e+00,9.490966000000000236e+01
9.000000000000000000e+00,1.002733000000000061e+02
1.000000000000000000e+01,1.052652400000000057e+02
1.100000000000000000e+01,1.099425700000000035e+02
1.200000000000000000e+01,1.143513300000000044e+02
1.300000000000000000e+01,1.185258500000000055e+02
1.400000000000000000e+01,1.224941000000000031e+02
1.500000000000000000e+01,1.262788699999999977e+02
1.600000000000000000e+01,1.298992000000000075e+02
1.700000000000000000e+01,1.333711199999999906e+02
1.800000000000000000e+01,1.367072599999999909e+02
1.900000000000000000e+01,1.399197200000000123e+02
2.000000000000000000e+01,1.430190699999999993e+02
2.100000000000000000e+01,1.460130499999999927e+02
2.200000000000000000e+01,1.489098799999999869e+02
2.300000000000000000e+01,1.517165400000000091e+02
2.400000000000000000e+01,1.544383500000000140e+02
2.500000000000000000e+01,1.570809299999999951e+02
2.600000000000000000e+01,1.596495799999999861e+02
2.700000000000000000e+01,1.621484399999999937e+02
2.800000000000000000e+01,1.645808299999999917e+02
2.900000000000000000e+01,1.669513200000000097e+02
3.000000000000000000e+01,1.692627300000000048e+02
3.100000000000000000e+01,1.715181599999999946e+02
3.200000000000000000e+01,1.737202499999999930e+02
3.300000000000000000e+01,1.758715699999999913e+02
3.400000000000000000e+01,1.779742899999999963e+02
3.500000000000000000e+01,1.800317100000000039e+02
3.600000000000000000e+01,1.820443400000000054e+02
3.700000000000000000e+01,1.840144500000000107e+02
3.800000000000000000e+01,1.859449500000000057e+02
3.900000000000000000e+01,1.878366499999999917e+02
4.000000000000000000e+01,1.896906600000000083e+02
4.100000000000000000e+01,1.915093099999999993e+02
4.200000000000000000e+01,1.932940399999999954e+02
4.300000000000000000e+01,1.950449500000000000e+02
4.400000000000000000e+01,1.967645899999999983e+02
4.500000000000000000e+01,1.984533099999999877e+02
4.600000000000000000e+01,2.001127799999999866e+02
4.700000000000000000e+01,2.017436700000000087e+02
4.800000000000000000e+01,2.033472600000000057e+02
4.900000000000000000e+01,2.049242199999999912e+02
5.000000000000000000e+01,2.064760899999999992e+02
5.100000000000000000e+01,2.080030399999999986e+02
5.200000000000000000e+01,2.095060100000000034e+02
5.300000000000000000e+01,2.109864000000000033e+02
5.400000000000000000e+01,2.124442600000000141e+02
5.500000000000000000e+01,2.138808300000000031e+02
5.600000000000000000e+01,2.152967099999999903e+02
5.700000000000000000e+01,2.166930399999999963e+02
5.800000000000000000e+01,2.180694599999999923e+02
5.900000000000000000e+01,2.194282399999999882e+02
6.000000000000000000e+01,2.207679400000000101e+02
6.100000000000000000e+01,2.220909100000000080e+02
6.200000000000000000e+01,2.233967600000000004e+02
6.300000000000000000e+01,2.246868100000000084e+02
6.400000000000000000e+01,2.259607799999999997e+02
6.500000000000000000e+01,2.272203800000000058e+02
6.600000000000000000e+01,2.284653000000000134e+02
6.700000000000000000e+01,2.296957099999999912e+02
6.800000000000000000e+01,2.309128599999999949e+02
6.900000000000000000e+01,2.321169099999999901e+02
7.000000000000000000e+01,2.333082599999999900e+02
7.100000000000000000e+01,2.344876099999999894e+02
7.200000000000000000e+01,2.356548200000000008e+02
7.300000000000000000e+01,2.368104399999999998e+02
7.400000000000000000e+01,2.379551700000000096e+02
7.500000000000000000e+01,2.390887800000000141e+02
7.600000000000000000e+01,2.402119899999999859e+02
7.700000000000000000e+01,2.413251799999999889e+02
7.800000000000000000e+01,2.424277600000000064e+02
7.900000000000000000e+01,2.435201999999999884e+02
8.000000000000000000e+01,2.446032999999999902e+02
8.100000000000000000e+01,2.456767999999999859e+02
8.200000000000000000e+01,2.467406499999999880e+02
8.300000000000000000e+01,2.477951700000000130e+02
8.400000000000000000e+01,2.488402900000000102e+02
8.500000000000000000e+01,2.498762199999999893e+02
8.600000000000000000e+01,2.509030500000000075e+02
8.700000000000000000e+01,2.519208999999999889e+02
8.800000000000000000e+01,2.529289599999999893e+02
8.900000000000000000e+01,2.539285099999999886e+02
9.000000000000000000e+01,2.549187000000000012e+02
9.100000000000000000e+01,2.558999200000000087e+02
9.200000000000000000e+01,2.568724399999999832e+02
9.300000000000000000e+01,2.578358799999999746e+02
9.400000000000000000e+01,2.587903699999999958e+02
9.500000000000000000e+01,2.597369100000000230e+02
9.600000000000000000e+01,2.606741299999999910e+02
9.700000000000000000e+01,2.616027500000000146e+02
9.800000000000000000e+01,2.625236800000000130e+02
9.900000000000000000e+01,2.634355800000000158e+02
1.000000000000000000e+02,2.643391700000000242e+02
1.010000000000000000e+02,2.652354100000000017e+02
1.020000000000000000e+02,2.661231999999999971e+02
1.030000000000000000e+02,2.670031399999999735e+02
1.040000000000000000e+02,2.678761600000000271e+02
1.050000000000000000e+02,2.687414200000000051e+02
1.060000000000000000e+02,2.695989700000000084e+02
1.070000000000000000e+02,2.704499799999999823e+02
1.080000000000000000e+02,2.712939099999999826e+02
1.090000000000000000e+02,2.721306500000000028e+02
1.100000000000000000e+02,2.729614300000000071e+02
1.110000000000000000e+02,2.737851299999999810e+02
1.120000000000000000e+02,2.746026299999999765e+02
1.130000000000000000e+02,2.754143399999999815e+02
1.140000000000000000e+02,2.762198500000000081e+02
1.150000000000000000e+02,2.770194399999999746e+02
1.160000000000000000e+02,2.778136299999999892e+02
1.170000000000000000e+02,2.786019299999999816e+02
1.180000000000000000e+02,2.793846100000000092e+02
1.190000000000000000e+02,2.801622600000000034e+02
1.200000000000000000e+02,2.809344800000000077e+02
1.210000000000000000e+02,2.817015999999999849e+02
1.220000000000000000e+02,2.824639000000000237e+02
1.230000000000000000e+02,2.832207300000000032e+02
1.240000000000000000e+02,2.839733299999999758e+02
1.250000000000000000e+02,2.847212499999999977e+02
1.260000000000000000e+02,2.854645399999999995e+02
1.270000000000000000e+02,2.862029699999999934e+02
1.280000000000000000e+02,2.869372900000000186e+02
1.290000000000000000e+02,2.876670199999999795e+02
1.300000000000000000e+02,2.883924299999999903e+02
1.310000000000000000e+02,2.891138300000000072e+02
1.320000000000000000e+02,2.898309600000000046e+02
1.330000000000000000e+02,2.905442199999999957e+02
1.340000000000000000e+02,2.912533000000000243e+02
1.350000000000000000e+02,2.919583099999999831e+02
1.360000000000000000e+02,2.926592999999999734e+02
1.370000000000000000e+02,2.933568099999999959e+02
1.380000000000000000e+02,2.940504799999999932e+02
1.390000000000000000e+02,2.947401699999999778e+02
1.400000000000000000e+02,2.954262699999999882e+02
1.410000000000000000e+02,2.961087999999999738e+02
1.420000000000000000e+02,2.967872899999999845e+02
1.430000000000000000e+02,2.974625199999999836e+02
1.440000000000000000e+02,2.981344300000000089e+02
1.450000000000000000e+02,2.988027000000000157e+02
1.460000000000000000e+02,2.994671900000000164e+02
1.470000000000000000e+02,3.001281700000000114e+02
1.480000000000000000e+02,3.007858899999999949e+02
1.490000000000000000e+02,3.014402799999999729e+02
1.500000000000000000e+02,3.020910000000000082e+02
1.510000000000000000e+02,3.027385300000000257e+02
1.520000000000000000e+02,3.033824200000000246e+02
1.530000000000000000e+02,3.040234399999999937e+02
1.540000000000000000e+02,3.046609799999999950e+02
1.550000000000000000e+02,3.052949499999999716e+02
1.560000000000000000e+02,3.059262400000000071e+02
1.570000000000000000e+02,3.065537400000000048e+02
1.580000000000000000e+02,3.071782799999999725e+02
1.590000000000000000e+02,3.077994699999999852e+02
1.600000000000000000e+02,3.084172399999999925e+02
1.610000000000000000e+02,3.090317999999999756e+02
1.620000000000000000e+02,3.096432500000000232e+02
1.630000000000000000e+02,3.102516200000000026e+02
1.640000000000000000e+02,3.108562000000000012e+02
1.650000000000000000e+02,3.114582800000000020e+02
1.660000000000000000e+02,3.120566400000000158e+02
1.670000000000000000e+02,3.126518599999999992e+02
1.680000000000000000e+02,3.132438999999999965e+02
1.690000000000000000e+02,3.138329800000000205e+02
1.700000000000000000e+02,3.144186100000000010e+02
1.710000000000000000e+02,3.150012199999999893e+02
1.720000000000000000e+02,3.155801999999999907e+02
1.730000000000000000e+02,3.161564599999999814e+02
1.740000000000000000e+02,3.167291599999999789e+02
1.750000000000000000e+02,3.172992600000000039e+02
1.760000000000000000e+02,3.178652299999999968e+02
1.770000000000000000e+02,3.184288900000000240e+02
1.780000000000000000e+02,3.189890100000000075e+02
1.790000000000000000e+02,3.195455900000000042e+02
1.800000000000000000e+02,3.200992100000000278e+02
1.810000000000000000e+02,3.206496599999999830e+02
1.820000000000000000e+02,3.211964399999999955e+02
1.830000000000000000e+02,3.217405099999999720e+02
1.840000000000000000e+02,3.222809100000000058e+02
1.850000000000000000e+02,3.228180500000000279e+02
1.860000000000000000e+02,3.233520500000000197e+02
1.870000000000000000e+02,3.238829700000000003e+02
1.880000000000000000e+02,3.244099699999999871e+02
1.890000000000000000e+02,3.249341699999999946e+02
1.900000000000000000e+02,3.254556000000000040e+02
1.910000000000000000e+02,3.259725999999999999e+02
1.920000000000000000e+02,3.264870900000000233e+02
1.930000000000000000e+02,3.269979200000000219e+02
1.940000000000000000e+02,3.275051900000000273e+02
1.950000000000000000e+02,3.280097400000000221e+02
1.960000000000000000e+02,3.285105899999999792e+02
1.970000000000000000e+02,3.290076900000000251e+02
1.980000000000000000e+02,3.295018600000000220e+02
1.990000000000000000e+02,3.299932299999999827e+02
2.000000000000000000e+02,3.304799199999999928e+02
2.010000000000000000e+02,3.309641700000000242e+02
2.020000000000000000e+02,3.314454299999999876e+02
2.030000000000000000e+02,3.319222399999999880e+02
2.040000000000000000e+02,3.323962700000000154e+02
2.050000000000000000e+02,3.328672799999999938e+02
2.060000000000000000e+02,3.333339199999999778e+02
2.070000000000000000e+02,3.337981599999999958e+02
2.080000000000000000e+02,3.342590900000000147e+02
2.090000000000000000e+02,3.347153299999999945e+02
2.100000000000000000e+02,3.351694299999999771e+02
2.110000000000000000e+02,3.356202099999999859e+02
2.120000000000000000e+02,3.360660100000000057e+02
2.130000000000000000e+02,3.363556500000000256e+02
2.140000000000000000e+02,3.364280400000000100e+02
2.150000000000000000e+02,3.368368199999999888e+02
2.160000000000000000e+02,3.372350200000000200e+02
2.170000000000000000e+02,3.376558800000000247e+02
2.180000000000000000e+02,3.380748600000000010e+02
2.190000000000000000e+02,3.384967700000000264e+02
2.200000000000000000e+02,3.389174499999999739e+02
2.210000000000000000e+02,3.393338899999999967e+02
2.220000000000000000e+02,3.397499099999999999e+02
2.230000000000000000e+02,3.401634799999999927e+02
2.240000000000000000e+02,3.405720499999999902e+02
2.250000000000000000e+02,3.409793099999999981e+02
2.260000000000000000e+02,3.413838799999999765e+02
2.270000000000000000e+02,3.417829899999999839e+02
2.280000000000000000e+02,3.421806599999999889e+02
2.290000000000000000e+02,3.425754099999999767e+02
2.300000000000000000e+02,3.429648399999999810e+02
2.310000000000000000e+02,3.433529700000000275e+02
2.320000000000000000e+02,3.437384299999999939e+02
2.330000000000000000e+02,3.441182900000000018e+02
2.340000000000000000e+02,3.444970700000000079e+02
2.350000000000000000e+02,3.448732899999999972e+02
2.360000000000000000e+02,3.452437400000000025e+02
2.370000000000000000e+02,3.456135600000000068e+02
2.380000000000000000e+02,3.459804700000000253e+02
2.390000000000000000e+02,3.463417099999999778e+02
2.400000000000000000e+02,3.467022999999999797e+02
2.410000000000000000e+02,3.470605800000000158e+02
2.420000000000000000e+02,3.474128999999999792e+02
2.430000000000000000e+02,3.477648599999999988e+02
2.440000000000000000e+02,3.481146200000000022e+02
2.450000000000000000e+02,3.484583700000000022e+02
2.460000000000000000e+02,3.488019699999999830e+02
2.470000000000000000e+02,3.491438299999999799e+02
2.480000000000000000e+02,3.494791599999999789e+02
2.490000000000000000e+02,3.498146100000000160e+02
2.500000000000000000e+02,3.501480999999999995e+02
2.510000000000000000e+02,3.504755200000000173e+02
2.520000000000000000e+02,3.508033100000000104e+02
2.530000000000000000e+02,3.511296399999999949e+02
2.540000000000000000e+02,3.514496800000000007e+02
2.550000000000000000e+02,3.517701999999999884e+02
2.560000000000000000e+02,3.520890200000000050e+02
2.570000000000000000e+02,3.524015200000000050e+02
2.580000000000000000e+02,3.527149000000000001e+02
2.590000000000000000e+02,3.530271299999999997e+02
2.600000000000000000e+02,3.533325800000000072e+02
2.610000000000000000e+02,3.536393400000000042e+02
2.620000000000000000e+02,3.539450100000000248e+02
2.630000000000000000e+02,3.542444499999999721e+02
2.640000000000000000e+02,3.545446200000000090e+02
2.650000000000000000e+02,3.548436899999999810e+02
2.660000000000000000e+02,3.551363799999999742e+02
2.670000000000000000e+02,3.554310899999999833e+02
2.680000000000000000e+02,3.557244299999999839e+02
2.690000000000000000e+02,3.560112899999999740e+02
2.700000000000000000e+02,3.562999300000000176e+02
2.710000000000000000e+02,3.565880099999999970e+02
2.720000000000000000e+02,3.568690500000000156e+02
2.730000000000000000e+02,3.571528000000000134e+02
2.740000000000000000e+02,3.574356399999999780e+02
2.750000000000000000e+02,3.577113299999999754e+02
2.760000000000000000e+02,3.579896200000000022e+02
2.770000000000000000e+02,3.582674900000000093e+02
2.780000000000000000e+02,3.585390899999999874e+02
2.790000000000000000e+02,3.588125000000000000e+02
2.800000000000000000e+02,3.590853900000000181e+02
2.810000000000000000e+02,3.593526600000000144e+02
2.820000000000000000e+02,3.596215199999999754e+02
2.830000000000000000e+02,3.598901700000000119e+02
2.840000000000000000e+02,3.601527399999999943e+02
2.850000000000000000e+02,3.604178800000000251e+02
2.860000000000000000e+02,3.606824300000000108e+02
2.870000000000000000e+02,3.609408900000000244e+02
2.880000000000000000e+02,3.612017799999999852e+02
2.890000000000000000e+02,3.614630700000000161e+02
2.900000000000000000e+02,3.617178299999999922e+02
2.910000000000000000e+02,3.619749800000000164e+02
2.920000000000000000e+02,3.622326400000000035e+02
2.930000000000000000e+02,3.624840100000000120e+02
2.940000000000000000e+02,3.627379199999999742e+02
2.950000000000000000e+02,3.629923099999999749e+02
2.960000000000000000e+02,3.632402299999999968e+02
2.970000000000000000e+02,3.634909400000000232e+02
2.980000000000000000e+02,3.637423699999999940e+02
2.990000000000000000e+02,3.639868799999999851e+02
3.000000000000000000e+02,3.642351400000000012e+02
3.010000000000000000e+02,3.644836700000000178e+02
3.020000000000000000e+02,3.647253099999999790e+02
3.030000000000000000e+02,3.649706699999999842e+02
3.040000000000000000e+02,3.652165499999999838e+02
3.050000000000000000e+02,3.654557199999999852e+02
3.060000000000000000e+02,3.656991600000000062e+02
3.070000000000000000e+02,3.659415000000000191e+02
3.080000000000000000e+02,3.661787100000000237e+02
3.090000000000000000e+02,3.664196499999999901e+02
3.100000000000000000e+02,3.666601299999999810e+02
3.110000000000000000e+02,3.668950800000000072e+02
3.120000000000000000e+02,3.671328399999999874e+02
3.130000000000000000e+02,3.673716400000000135e+02
3.140000000000000000e+02,3.676043399999999792e+02
3.150000000000000000e+02,3.678399699999999939e+02
3.160000000000000000e+02,3.680773599999999988e+02
3.170000000000000000e+02,3.683068799999999783e+02
3.180000000000000000e+02,3.685410800000000222e+02
3.190000000000000000e+02,3.687764300000000048e+02
3.200000000000000000e+02,3.690041800000000194e+02
3.210000000000000000e+02,3.692378800000000183e+02
3.220000000000000000e+02,3.694694799999999759e+02
3.230000000000000000e+02,3.696967500000000086e+02
3.240000000000000000e+02,3.699272500000000150e+02
3.250000000000000000e+02,3.701577500000000214e+02
3.260000000000000000e+02,3.703831799999999816e+02
3.270000000000000000e+02,3.706120599999999854e+02
3.280000000000000000e+02,3.708417400000000157e+02
3.290000000000000000e+02,3.710650600000000168e+02
3.300000000000000000e+02,3.712921400000000176e+02
3.310000000000000000e+02,3.715200500000000261e+02
3.320000000000000000e+02,3.717418499999999995e+02
3.330000000000000000e+02,3.719681100000000242e+02
3.340000000000000000e+02,3.721938200000000165e+02
3.350000000000000000e+02,3.724149499999999762e+02
3.360000000000000000e+02,3.726380599999999959e+02
3.370000000000000000e+02,3.728638300000000072e+02
3.380000000000000000e+02,3.730819099999999935e+02
3.390000000000000000e+02,3.733053600000000074e+02
3.400000000000000000e+02,3.735287200000000212e+02
3.410000000000000000e+02,3.737453600000000051e+02
3.420000000000000000e+02,3.739681699999999864e+02
3.430000000000000000e+02,3.741885700000000270e+02
3.440000000000000000e+02,3.744064900000000193e+02
3.450000000000000000e+02,3.746253699999999753e+02
3.460000000000000000e+02,3.748467400000000112e+02
3.470000000000000000e+02,3.750606700000000160e+02
3.480000000000000000e+02,3.752789599999999837e+02
3.490000000000000000e+02,3.754988099999999918e+02
3.500000000000000000e+02,3.757116700000000264e+02
3.510000000000000000e+02,3.759301800000000071e+02
3.520000000000000000e+02,3.761461499999999774e+02
3.530000000000000000e+02,3.763602900000000204e+02
3.540000000000000000e+02,3.765748600000000010e+02
3.550000000000000000e+02,3.767913199999999847e+02
3.560000000000000000e+02,3.770019800000000032e+02
3.570000000000000000e+02,3.772170399999999972e+02
3.580000000000000000e+02,3.774310300000000211e+02
3.590000000000000000e+02,3.776408099999999877e+02
3.600000000000000000e+02,3.778551600000000121e+02
3.610000000000000000e+02,3.780668600000000197e+02
3.620000000000000000e+02,3.782762799999999856e+02
3.630000000000000000e+02,3.784871800000000235e+02
3.640000000000000000e+02,3.786993100000000254e+02
3.650000000000000000e+02,3.789064000000000192e+02
3.660000000000000000e+02,3.791172199999999748e+02
3.670000000000000000e+02,3.793268100000000231e+02
3.680000000000000000e+02,3.795334199999999782e+02
3.690000000000000000e+02,3.797406599999999912e+02
3.700000000000000000e+02,3.799508400000000279e+02
3.710000000000000000e+02,3.801542099999999778e+02
3.720000000000000000e+02,3.803631300000000124e+02
3.730000000000000000e+02,3.805686600000000226e+02
3.740000000000000000e+02,3.807739000000000260e+02
3.750000000000000000e+02,3.809780299999999897e+02
3.760000000000000000e+02,3.811853300000000218e+02
3.770000000000000000e+02,3.813855599999999981e+02
3.780000000000000000e+02,3.815905200000000264e+02
3.790000000000000000e+02,3.817947399999999902e+02
3.800000000000000000e+02,3.819941400000000158e+02
3.810000000000000000e+02,3.821983900000000176e+02
3.820000000000000000e+02,3.823991399999999885e+02
3.830000000000000000e+02,3.826002799999999979e+02
3.840000000000000000e+02,3.827997100000000046e+02
3.850000000000000000e+02,3.830023800000000165e+02
3.860000000000000000e+02,3.831982699999999795e+02
3.870000000000000000e+02,3.833995699999999829e+02
3.880000000000000000e+02,3.835970800000000054e+02
3.890000000000000000e+02,3.837952599999999848e+02
3.900000000000000000e+02,3.839914200000000051e+02
3.910000000000000000e+02,3.841906999999999925e+02
3.920000000000000000e+02,3.843839100000000144e+02
3.930000000000000000e+02,3.845819399999999746e+02
3.940000000000000000e+02,3.847761199999999917e+02
3.950000000000000000e+02,3.849701499999999896e+02
3.960000000000000000e+02,3.851641200000000254e+02
3.970000000000000000e+02,3.853585800000000177e+02
3.980000000000000000e+02,3.852850999999999999e+02
3.990000000000000000e+02,3.845055199999999900e+02
