# Time [s], Convective Heat Transfer Coefficient [W/m2K]
1.000000000000000000e+00,0.000000000000000000e+00
2.000000000000000000e+00,0.000000000000000000e+00
3.000000000000000000e+00,0.000000000000000000e+00
4.000000000000000000e+00,0.000000000000000000e+00
5.000000000000000000e+00,1.915079995362458862e-02
6.000000000000000000e+00,3.748642353082986406e-02
7.000000000000000000e+00,5.917354552135824924e-02
8.000000000000000000e+00,8.977029687088833310e-02
9.000000000000000000e+00,1.282729487968380377e-01
1.000000000000000000e+01,1.751488935816441217e-01
1.100000000000000000e+01,2.302299703607464942e-01
1.200000000000000000e+01,2.928414266486790152e-01
1.300000000000000000e+01,3.622221037223904982e-01
1.400000000000000000e+01,4.374306730913470331e-01
1.500000000000000000e+01,5.175964650940643175e-01
1.600000000000000000e+01,6.018420073759023214e-01
1.700000000000000000e+01,6.893672227871431302e-01
1.800000000000000000e+01,7.794620554483452368e-01
1.900000000000000000e+01,8.715113071297785341e-01
2.000000000000000000e+01,9.649676420030456336e-01
2.100000000000000000e+01,1.059379638848413796e+00
2.200000000000000000e+01,1.154352887733333333e+00
2.300000000000000000e+01,1.249561279166198746e+00
2.400000000000000000e+01,1.344728165034903000e+00
2.500000000000000000e+01,1.439625780371362795e+00
2.600000000000000000e+01,1.534061751443484001e+00
2.700000000000000000e+01,1.627877191709322435e+00
2.800000000000000000e+01,1.720947178527006294e+00
2.900000000000000000e+01,1.813165586693370912e+00
3.000000000000000000e+01,1.904442757565296240e+00
3.100000000000000000e+01,1.994713389997965658e+00
3.200000000000000000e+01,2.083924094263149840e+00
3.300000000000000000e+01,2.172035191735017801e+00
3.400000000000000000e+01,2.259015431940174068e+00
3.500000000000000000e+01,2.344840416056511501e+00
3.600000000000000000e+01,2.429495953908376027e+00
3.700000000000000000e+01,2.512974164851649483e+00
3.800000000000000000e+01,2.595272213489252966e+00
3.900000000000000000e+01,2.676388280646718076e+00
4.000000000000000000e+01,2.756328089089210120e+00
4.100000000000000000e+01,2.835101555655598293e+00
4.200000000000000000e+01,2.912714495166129680e+00
4.300000000000000000e+01,2.989179714663209531e+00
4.400000000000000000e+01,3.064514326983005521e+00
4.500000000000000000e+01,3.138728514495429334e+00
4.600000000000000000e+01,3.211843418092457547e+00
4.700000000000000000e+01,3.283871964656013276e+00
4.800000000000000000e+01,3.354832245037782545e+00
4.900000000000000000e+01,3.424743923270887613e+00
5.000000000000000000e+01,3.493625003175680366e+00
5.100000000000000000e+01,3.561491274796585227e+00
5.200000000000000000e+01,3.628364790953144237e+00
5.300000000000000000e+01,3.694263063516390666e+00
5.400000000000000000e+01,3.759204396409007387e+00
5.500000000000000000e+01,3.823208409293225252e+00
5.600000000000000000e+01,3.886291817830808792e+00
5.700000000000000000e+01,3.948473872539697282e+00
5.800000000000000000e+01,4.009772080672773242e+00
5.900000000000000000e+01,4.070205191263699618e+00
6.000000000000000000e+01,4.129790320792451119e+00
6.100000000000000000e+01,4.188545502754935868e+00
6.200000000000000000e+01,4.246486635134530729e+00
6.300000000000000000e+01,4.303630351692318889e+00
6.400000000000000000e+01,4.359992390804552365e+00
6.500000000000000000e+01,4.415590716522578951e+00
6.600000000000000000e+01,4.470438346013333231e+00
6.700000000000000000e+01,4.524551100028450179e+00
6.800000000000000000e+01,4.577945562363239240e+00
6.900000000000000000e+01,4.630634700351290434e+00
7.000000000000000000e+01,4.682632183722445163e+00
7.100000000000000000e+01,4.733953794327201869e+00
7.200000000000000000e+01,4.784610785667879895e+00
7.300000000000000000e+01,4.834618539889809163e+00
7.400000000000000000e+01,4.883988523633615131e+00
7.500000000000000000e+01,4.932734332035945357e+00
7.600000000000000000e+01,4.980867219427279835e+00
7.700000000000000000e+01,5.028400008272688737e+00
7.800000000000000000e+01,5.075343930855879648e+00
7.900000000000000000e+01,5.121710902380272046e+00
8.000000000000000000e+01,5.167510774911918681e+00
8.100000000000000000e+01,5.212756761401260874e+00
8.200000000000000000e+01,5.257457814466359736e+00
8.300000000000000000e+01,5.301623304207822684e+00
8.400000000000000000e+01,5.345265352045038831e+00
8.500000000000000000e+01,5.388392556435388947e+00
8.600000000000000000e+01,5.431013755828630885e+00
8.700000000000000000e+01,5.473140270601184021e+00
8.800000000000000000e+01,5.514779898935842972e+00
8.900000000000000000e+01,5.555941269162690155e+00
9.000000000000000000e+01,5.596634185993881516e+00
9.100000000000000000e+01,5.636866927446017250e+00
9.200000000000000000e+01,5.676645949370330513e+00
9.300000000000000000e+01,5.715980629374541877e+00
9.400000000000000000e+01,5.754879461198595614e+00
9.500000000000000000e+01,5.793349588595163802e+00
9.600000000000000000e+01,5.831397717721118923e+00
9.700000000000000000e+01,5.869032216126091051e+00
9.800000000000000000e+01,5.906260019835904984e+00
9.900000000000000000e+01,5.943088079908235954e+00
1.000000000000000000e+02,5.979522476296448730e+00
1.010000000000000000e+02,6.015570539218187740e+00
1.020000000000000000e+02,6.051238728469148676e+00
1.030000000000000000e+02,6.086533978962505032e+00
1.040000000000000000e+02,6.121461298916904603e+00
1.050000000000000000e+02,6.156027738735954991e+00
1.060000000000000000e+02,6.190239650248863690e+00
1.070000000000000000e+02,6.224101969397525913e+00
1.080000000000000000e+02,6.257621012276460171e+00
1.090000000000000000e+02,6.290801443954780581e+00
1.100000000000000000e+02,6.323649789256770681e+00
1.110000000000000000e+02,6.356171439930752065e+00
1.120000000000000000e+02,6.388371113754719666e+00
1.130000000000000000e+02,6.420253910412697884e+00
1.140000000000000000e+02,6.451824786553726376e+00
1.150000000000000000e+02,6.483089676893902364e+00
1.160000000000000000e+02,6.514052854829750494e+00
1.170000000000000000e+02,6.544718978518123009e+00
1.180000000000000000e+02,6.575092802394612690e+00
1.190000000000000000e+02,6.605177831505879560e+00
1.200000000000000000e+02,6.634980366486153081e+00
1.210000000000000000e+02,6.664503581630220275e+00
1.220000000000000000e+02,6.693752365008013960e+00
1.230000000000000000e+02,6.722729877470408510e+00
1.240000000000000000e+02,6.751441221961272277e+00
1.250000000000000000e+02,6.779890051551049623e+00
1.260000000000000000e+02,6.808080650613220541e+00
1.270000000000000000e+02,6.836016656841831463e+00
1.280000000000000000e+02,6.863701087824878755e+00
1.290000000000000000e+02,6.891139077569381044e+00
1.300000000000000000e+02,6.918333146717856152e+00
1.310000000000000000e+02,6.945287672923692313e+00
1.320000000000000000e+02,6.972004966675187099e+00
1.330000000000000000e+02,6.998488935114226095e+00
1.340000000000000000e+02,7.024743836349786719e+00
1.350000000000000000e+02,7.050772147874845075e+00
1.360000000000000000e+02,7.076576268398341085e+00
1.370000000000000000e+02,7.102160609460462126e+00
1.380000000000000000e+02,7.127528298060588519e+00
1.390000000000000000e+02,7.152681680191430580e+00
1.400000000000000000e+02,7.177623484429075162e+00
1.410000000000000000e+02,7.202357485949804072e+00
1.420000000000000000e+02,7.226886678289454302e+00
1.430000000000000000e+02,7.251212632275743530e+00
1.440000000000000000e+02,7.275338197432039244e+00
1.450000000000000000e+02,7.299267460084633896e+00
1.460000000000000000e+02,7.323001992816828398e+00
1.470000000000000000e+02,7.346544189053420659e+00
1.480000000000000000e+02,7.369897452614888600e+00
1.490000000000000000e+02,7.393063810495821286e+00
1.500000000000000000e+02,7.416045871662084288e+00
1.510000000000000000e+02,7.438844693990178669e+00
1.520000000000000000e+02,7.461464457347740442e+00
1.530000000000000000e+02,7.483906517941255387e+00
1.540000000000000000e+02,7.506172817022448207e+00
1.550000000000000000e+02,7.528266896501484950e+00
1.560000000000000000e+02,7.550189540393486887e+00
1.570000000000000000e+02,7.571942938014671221e+00
1.580000000000000000e+02,7.593530034942663320e+00
1.590000000000000000e+02,7.614952291468612522e+00
1.600000000000000000e+02,7.636211932622806842e+00
1.610000000000000000e+02,7.657311128653201848e+00
1.620000000000000000e+02,7.678251202596323211e+00
1.630000000000000000e+02,7.699034628274954883e+00
1.640000000000000000e+02,7.719663231778688406e+00
1.650000000000000000e+02,7.740138208955432475e+00
1.660000000000000000e+02,7.760462085836025814e+00
1.670000000000000000e+02,7.780635590404079593e+00
1.680000000000000000e+02,7.800662123698484329e+00
1.690000000000000000e+02,7.820541949992308339e+00
1.700000000000000000e+02,7.840277227570251029e+00
1.710000000000000000e+02,7.859869498108420949e+00
1.720000000000000000e+02,7.879320079296294743e+00
1.730000000000000000e+02,7.898631571529914019e+00
1.740000000000000000e+02,7.917804652704647950e+00
1.750000000000000000e+02,7.936841097957339386e+00
1.760000000000000000e+02,7.955742089086151658e+00
1.770000000000000000e+02,7.974509149120248885e+00
1.780000000000000000e+02,7.993144134476851903e+00
1.790000000000000000e+02,8.011647768449089213e+00
1.800000000000000000e+02,8.030022390481949657e+00
1.810000000000000000e+02,8.048268305199400174e+00
1.820000000000000000e+02,8.066387966311314273e+00
1.830000000000000000e+02,8.084381451053518575e+00
1.840000000000000000e+02,8.102250792585493855e+00
1.850000000000000000e+02,8.119997096529653291e+00
1.860000000000000000e+02,8.137621798739340662e+00
1.870000000000000000e+02,8.155125778251955282e+00
1.880000000000000000e+02,8.172510420892511007e+00
1.890000000000000000e+02,8.189776212438927061e+00
1.900000000000000000e+02,8.206925364567442927e+00
1.910000000000000000e+02,8.223958317527587880e+00
1.920000000000000000e+02,8.240877051835944656e+00
1.930000000000000000e+02,8.257681623558008610e+00
1.940000000000000000e+02,8.274373451946843261e+00
1.950000000000000000e+02,8.290953759476511920e+00
1.960000000000000000e+02,8.307423067054989119e+00
1.970000000000000000e+02,8.323783404337998348e+00
1.980000000000000000e+02,8.340034241264756787e+00
1.990000000000000000e+02,8.356177902433241655e+00
2.000000000000000000e+02,8.372215003167760017e+00
2.010000000000000000e+02,8.388145646887142703e+00
2.020000000000000000e+02,8.403971920943156704e+00
2.030000000000000000e+02,8.419694061642886140e+00
2.040000000000000000e+02,8.435312956519354088e+00
2.050000000000000000e+02,8.450829968443967388e+00
2.060000000000000000e+02,8.466245130592195522e+00
2.070000000000000000e+02,8.481560099673979281e+00
2.080000000000000000e+02,8.496775208233660948e+00
2.090000000000000000e+02,8.511891265617808955e+00
2.100000000000000000e+02,8.526909227578896022e+00
2.110000000000000000e+02,8.541829712480620174e+00
2.120000000000000000e+02,8.556653327003040488e+00
2.130000000000000000e+02,8.572149064469838819e+00
2.140000000000000000e+02,8.587056240040492838e+00
2.150000000000000000e+02,8.601744927409670893e+00
2.160000000000000000e+02,8.616300524510153380e+00
2.170000000000000000e+02,8.630735606677497174e+00
2.180000000000000000e+02,8.645061008819540760e+00
2.190000000000000000e+02,8.659281485289660907e+00
2.200000000000000000e+02,8.673401257048059421e+00
2.210000000000000000e+02,8.687422625118120578e+00
2.220000000000000000e+02,8.701347857283387555e+00
2.230000000000000000e+02,8.715179651312338294e+00
2.240000000000000000e+02,8.728918824005756250e+00
2.250000000000000000e+02,8.742566944563369802e+00
2.260000000000000000e+02,8.756125559622336851e+00
2.270000000000000000e+02,8.769595584955904854e+00
2.280000000000000000e+02,8.782978681016132327e+00
2.290000000000000000e+02,8.796274821135735777e+00
2.300000000000000000e+02,8.809485032088245404e+00
2.310000000000000000e+02,8.822610325665161568e+00
2.320000000000000000e+02,8.835651848956885601e+00
2.330000000000000000e+02,8.848610134953428741e+00
2.340000000000000000e+02,8.861484664375099740e+00
2.350000000000000000e+02,8.874276853726341230e+00
2.360000000000000000e+02,8.886987063165873835e+00
2.370000000000000000e+02,8.899615941832379917e+00
2.380000000000000000e+02,8.912163539508355825e+00
2.390000000000000000e+02,8.924630931718338545e+00
2.400000000000000000e+02,8.937018593305204206e+00
2.410000000000000000e+02,8.949326406805756307e+00
2.420000000000000000e+02,8.961555419701959124e+00
2.430000000000000000e+02,8.973705938842295282e+00
2.440000000000000000e+02,8.985778265384682939e+00
2.450000000000000000e+02,8.997772550296305738e+00
2.460000000000000000e+02,9.009689661601848698e+00
2.470000000000000000e+02,9.021529736673977951e+00
2.480000000000000000e+02,9.033293196022121663e+00
2.490000000000000000e+02,9.044980739629306044e+00
2.500000000000000000e+02,9.056592344374083225e+00
2.510000000000000000e+02,9.068128696847548298e+00
2.520000000000000000e+02,9.079590190398919347e+00
2.530000000000000000e+02,9.090977070514362879e+00
2.540000000000000000e+02,9.102289436682264423e+00
2.550000000000000000e+02,9.113528371727667832e+00
2.560000000000000000e+02,9.124693539646180795e+00
2.570000000000000000e+02,9.135785587270795816e+00
2.580000000000000000e+02,9.146804873119954493e+00
2.590000000000000000e+02,9.157751750070051600e+00
2.600000000000000000e+02,9.168626704699672558e+00
2.610000000000000000e+02,9.179429938969194680e+00
2.620000000000000000e+02,9.190161650784745007e+00
2.630000000000000000e+02,9.200822172330282100e+00
2.640000000000000000e+02,9.211411968530693883e+00
2.650000000000000000e+02,9.221931497914987119e+00
2.660000000000000000e+02,9.232381075393412573e+00
2.670000000000000000e+02,9.242760462827828150e+00
2.680000000000000000e+02,9.253070515873547564e+00
2.690000000000000000e+02,9.263311534810631187e+00
2.700000000000000000e+02,9.273483679083126319e+00
2.710000000000000000e+02,9.283587376324481610e+00
2.720000000000000000e+02,9.293622506278714113e+00
2.730000000000000000e+02,9.303589623872273506e+00
2.740000000000000000e+02,9.313489007334773362e+00
2.750000000000000000e+02,9.323321199844141205e+00
2.760000000000000000e+02,9.333086066061650143e+00
2.770000000000000000e+02,9.342783872091512620e+00
2.780000000000000000e+02,9.352414612154355211e+00
2.790000000000000000e+02,9.361979480533209497e+00
2.800000000000000000e+02,9.371477793761068042e+00
2.810000000000000000e+02,9.380910069099570592e+00
2.820000000000000000e+02,9.390276419405132913e+00
2.830000000000000000e+02,9.399577352134430797e+00
2.840000000000000000e+02,9.408812972074784398e+00
2.850000000000000000e+02,9.417983513212508484e+00
2.860000000000000000e+02,9.427089074043211170e+00
2.870000000000000000e+02,9.436130144757985505e+00
2.880000000000000000e+02,9.445106291334193216e+00
2.890000000000000000e+02,9.454018652746317031e+00
2.900000000000000000e+02,9.462866788762145376e+00
2.910000000000000000e+02,9.471650651967369328e+00
2.920000000000000000e+02,9.480370844578851930e+00
2.930000000000000000e+02,9.489027442442147020e+00
2.940000000000000000e+02,9.497620778480440507e+00
2.950000000000000000e+02,9.506150792691691720e+00
2.960000000000000000e+02,9.514618199446838176e+00
2.970000000000000000e+02,9.523022028115233795e+00
2.980000000000000000e+02,9.531363503510021928e+00
2.990000000000000000e+02,9.539642167793079608e+00
3.000000000000000000e+02,9.547858591681629647e+00
3.010000000000000000e+02,9.556013211896745574e+00
3.020000000000000000e+02,9.564105436535795590e+00
3.030000000000000000e+02,9.572135825642801521e+00
3.040000000000000000e+02,9.580103913259563342e+00
3.050000000000000000e+02,9.588011017337574771e+00
3.060000000000000000e+02,9.595856284120399593e+00
3.070000000000000000e+02,9.603640386624892500e+00
3.080000000000000000e+02,9.611363358059143991e+00
3.090000000000000000e+02,9.619025103050240944e+00
3.100000000000000000e+02,9.626626282871525220e+00
3.110000000000000000e+02,9.634166417714876474e+00
3.120000000000000000e+02,9.641645784459356605e+00
3.130000000000000000e+02,9.649064907871874652e+00
3.140000000000000000e+02,9.656423679971977592e+00
3.150000000000000000e+02,9.663721740906236590e+00
3.160000000000000000e+02,9.670960358232498777e+00
3.170000000000000000e+02,9.678138665531482943e+00
3.180000000000000000e+02,9.685257172399429848e+00
3.190000000000000000e+02,9.692316134389198368e+00
3.200000000000000000e+02,9.699315057169350496e+00
3.210000000000000000e+02,9.706254938454449643e+00
3.220000000000000000e+02,9.713135403609799212e+00
3.230000000000000000e+02,9.719956573923523635e+00
3.240000000000000000e+02,9.726718815649538996e+00
3.250000000000000000e+02,9.733422120526334709e+00
3.260000000000000000e+02,9.740066601930779555e+00
3.270000000000000000e+02,9.746652370823294831e+00
3.280000000000000000e+02,9.753179535769383790e+00
3.290000000000000000e+02,9.759648325857630979e+00
3.300000000000000000e+02,9.766058967178159023e+00
3.310000000000000000e+02,9.772411437708141690e+00
3.320000000000000000e+02,9.778706081018555096e+00
3.330000000000000000e+02,9.784942503573924810e+00
3.340000000000000000e+02,9.791121166819515054e+00
3.350000000000000000e+02,9.797242528102247050e+00
3.360000000000000000e+02,9.803306309911393512e+00
3.370000000000000000e+02,9.809312964288565695e+00
3.380000000000000000e+02,9.815262210271768595e+00
3.390000000000000000e+02,9.821154616047056862e+00
3.400000000000000000e+02,9.826990018032157437e+00
3.410000000000000000e+02,9.832768978142780725e+00
3.420000000000000000e+02,9.838491328329045160e+00
3.430000000000000000e+02,9.844157261994242347e+00
3.440000000000000000e+02,9.849767331913112045e+00
3.450000000000000000e+02,9.855321001953052829e+00
3.460000000000000000e+02,9.860819301735443076e+00
3.470000000000000000e+02,9.866261450789883369e+00
3.480000000000000000e+02,9.871648111884097077e+00
3.490000000000000000e+02,9.876979823219672383e+00
3.500000000000000000e+02,9.882256040231254701e+00
3.510000000000000000e+02,9.887477655890377193e+00
3.520000000000000000e+02,9.892644600842386282e+00
3.530000000000000000e+02,9.897756804394209240e+00
3.540000000000000000e+02,9.902814910724281106e+00
3.550000000000000000e+02,9.907818725028901596e+00
3.560000000000000000e+02,9.912769242975661754e+00
3.570000000000000000e+02,9.917665669503939796e+00
3.580000000000000000e+02,9.922508756743885883e+00
3.590000000000000000e+02,9.927298777188612533e+00
3.600000000000000000e+02,9.932036119393076845e+00
3.610000000000000000e+02,9.936720813226900262e+00
3.620000000000000000e+02,9.941353005362591588e+00
3.630000000000000000e+02,9.945933195409772054e+00
3.640000000000000000e+02,9.950461524947934677e+00
3.650000000000000000e+02,9.954938251672015070e+00
3.660000000000000000e+02,9.959363748887016143e+00
3.670000000000000000e+02,9.963738387108652006e+00
3.680000000000000000e+02,9.968062298485500961e+00
3.690000000000000000e+02,9.972335966406300045e+00
3.700000000000000000e+02,9.976559400745964368e+00
3.710000000000000000e+02,9.980733315015278606e+00
3.720000000000000000e+02,9.984857949297099466e+00
3.730000000000000000e+02,9.988933306882065821e+00
3.740000000000000000e+02,9.992959858593879474e+00
3.750000000000000000e+02,9.996938540926747052e+00
3.760000000000000000e+02,1.000086864753816052e+01
3.770000000000000000e+02,1.000475146112947655e+01
3.780000000000000000e+02,1.000858662311364178e+01
3.790000000000000000e+02,1.001237540952888772e+01
3.800000000000000000e+02,1.001611722438311958e+01
3.810000000000000000e+02,1.001981310460308094e+01
3.820000000000000000e+02,1.002346338377648927e+01
3.830000000000000000e+02,1.002706781119863777e+01
3.840000000000000000e+02,1.003062788090245050e+01
3.850000000000000000e+02,1.003414322130923964e+01
3.860000000000000000e+02,1.003761450642012498e+01
3.870000000000000000e+02,1.004104205895077051e+01
3.880000000000000000e+02,1.004442643170514060e+01
3.890000000000000000e+02,1.004776794303619347e+01
3.900000000000000000e+02,1.005106690940696446e+01
3.910000000000000000e+02,1.005432410861605952e+01
3.920000000000000000e+02,1.005753996827441199e+01
3.930000000000000000e+02,1.006071456697095989e+01
3.940000000000000000e+02,1.006384844444930060e+01
3.950000000000000000e+02,1.006694225366975992e+01
3.960000000000000000e+02,1.006999687594539239e+01
3.970000000000000000e+02,1.007301192050454297e+01
3.980000000000000000e+02,1.007603219454557930e+01
