# Time [s], Temperature [C]
1.000000000000000000e+00,2.499997300000000067e+01
2.000000000000000000e+00,4.455289799999999900e+01
3.000000000000000000e+00,5.591297899999999998e+01
4.000000000000000000e+00,6.515897400000000061e+01
5.000000000000000000e+00,7.289782700000000659e+01
6.000000000000000000e+00,7.970166799999999796e+01
7.000000000000000000e+00,8.579951499999999953e+01
8.000000000000000000e+00,9.136004599999999698e+01
9.000000000000000000e+00,9.648681600000000458e+01
1.000000000000000000e+01,1.012583199999999977e+02
1.100000000000000000e+01,1.057284700000000015e+02
1.200000000000000000e+01,1.099407999999999959e+02
1.300000000000000000e+01,1.139272299999999944e+02
1.400000000000000000e+01,1.177175100000000043e+02
1.500000000000000000e+01,1.213332000000000050e+02
1.600000000000000000e+01,1.247894399999999990e+02
1.700000000000000000e+01,1.281051799999999901e+02
1.800000000000000000e+01,1.312905000000000086e+02
1.900000000000000000e+01,1.343578599999999881e+02
2.000000000000000000e+01,1.373162499999999966e+02
2.100000000000000000e+01,1.401749000000000080e+02
2.200000000000000000e+01,1.429401699999999948e+02
2.300000000000000000e+01,1.456197999999999979e+02
2.400000000000000000e+01,1.482195299999999918e+02
2.500000000000000000e+01,1.507431799999999953e+02
2.600000000000000000e+01,1.531948399999999992e+02
2.700000000000000000e+01,1.555814100000000053e+02
2.800000000000000000e+01,1.579047099999999944e+02
2.900000000000000000e+01,1.601690099999999859e+02
3.000000000000000000e+01,1.623773199999999974e+02
3.100000000000000000e+01,1.645311900000000094e+02
3.200000000000000000e+01,1.666368400000000065e+02
3.300000000000000000e+01,1.686916200000000003e+02
3.400000000000000000e+01,1.707020899999999983e+02
3.500000000000000000e+01,1.726687799999999982e+02
3.600000000000000000e+01,1.745934399999999869e+02
3.700000000000000000e+01,1.764778100000000052e+02
3.800000000000000000e+01,1.783248700000000042e+02
3.900000000000000000e+01,1.801335300000000075e+02
4.000000000000000000e+01,1.819065899999999942e+02
4.100000000000000000e+01,1.836479300000000023e+02
4.200000000000000000e+01,1.853555900000000065e+02
4.300000000000000000e+01,1.870317200000000071e+02
4.400000000000000000e+01,1.886790300000000116e+02
4.500000000000000000e+01,1.902960999999999956e+02
4.600000000000000000e+01,1.918856499999999983e+02
4.700000000000000000e+01,1.934482999999999890e+02
4.800000000000000000e+01,1.949850199999999916e+02
4.900000000000000000e+01,1.964966000000000008e+02
5.000000000000000000e+01,1.979842800000000125e+02
5.100000000000000000e+01,1.994482099999999889e+02
5.200000000000000000e+01,2.008901799999999866e+02
5.300000000000000000e+01,2.023107500000000130e+02
5.400000000000000000e+01,2.037099800000000016e+02
5.500000000000000000e+01,2.050877399999999966e+02
5.600000000000000000e+01,2.064483299999999986e+02
5.700000000000000000e+01,2.077874799999999880e+02
5.800000000000000000e+01,2.091106699999999989e+02
5.900000000000000000e+01,2.104146100000000104e+02
6.000000000000000000e+01,2.117033800000000099e+02
6.100000000000000000e+01,2.129757199999999955e+02
6.200000000000000000e+01,2.142313699999999983e+02
6.300000000000000000e+01,2.154728700000000003e+02
6.400000000000000000e+01,2.166987599999999929e+02
6.500000000000000000e+01,2.179118200000000058e+02
6.600000000000000000e+01,2.191113100000000031e+02
6.700000000000000000e+01,2.202966299999999933e+02
6.800000000000000000e+01,2.214700799999999958e+02
6.900000000000000000e+01,2.226313299999999913e+02
7.000000000000000000e+01,2.237812999999999874e+02
7.100000000000000000e+01,2.249215399999999931e+02
7.200000000000000000e+01,2.260508000000000095e+02
7.300000000000000000e+01,2.271683800000000133e+02
7.400000000000000000e+01,2.282761199999999917e+02
7.500000000000000000e+01,2.293739799999999889e+02
7.600000000000000000e+01,2.304621699999999862e+02
7.700000000000000000e+01,2.315428200000000061e+02
7.800000000000000000e+01,2.326121100000000013e+02
7.900000000000000000e+01,2.336721000000000004e+02
8.000000000000000000e+01,2.347255600000000015e+02
8.100000000000000000e+01,2.357681699999999978e+02
8.200000000000000000e+01,2.368017000000000110e+02
8.300000000000000000e+01,2.378287699999999916e+02
8.400000000000000000e+01,2.388448300000000017e+02
8.500000000000000000e+01,2.398536100000000033e+02
8.600000000000000000e+01,2.408521000000000072e+02
8.700000000000000000e+01,2.418425400000000138e+02
8.800000000000000000e+01,2.428237200000000087e+02
8.900000000000000000e+01,2.437970100000000002e+02
9.000000000000000000e+01,2.447604200000000105e+02
9.100000000000000000e+01,2.457145199999999932e+02
9.200000000000000000e+01,2.466595000000000084e+02
9.300000000000000000e+01,2.475967100000000016e+02
9.400000000000000000e+01,2.485222899999999981e+02
9.500000000000000000e+01,2.494410100000000057e+02
9.600000000000000000e+01,2.503503000000000043e+02
9.700000000000000000e+01,2.512494700000000023e+02
9.800000000000000000e+01,2.521403999999999996e+02
9.900000000000000000e+01,2.530232799999999997e+02
1.000000000000000000e+02,2.538972500000000139e+02
1.010000000000000000e+02,2.547633199999999931e+02
1.020000000000000000e+02,2.556187700000000120e+02
1.030000000000000000e+02,2.564675300000000107e+02
1.040000000000000000e+02,2.573084099999999808e+02
1.050000000000000000e+02,2.581417500000000018e+02
1.060000000000000000e+02,2.589674400000000105e+02
1.070000000000000000e+02,2.597858299999999758e+02
1.080000000000000000e+02,2.605964399999999728e+02
1.090000000000000000e+02,2.613999000000000024e+02
1.100000000000000000e+02,2.621970200000000091e+02
1.110000000000000000e+02,2.629871200000000044e+02
1.120000000000000000e+02,2.637695600000000127e+02
1.130000000000000000e+02,2.645469100000000253e+02
1.140000000000000000e+02,2.653178399999999897e+02
1.150000000000000000e+02,2.660827300000000264e+02
1.160000000000000000e+02,2.668422199999999975e+02
1.170000000000000000e+02,2.675966199999999731e+02
1.180000000000000000e+02,2.683444799999999759e+02
1.190000000000000000e+02,2.690874900000000025e+02
1.200000000000000000e+02,2.698250400000000013e+02
1.210000000000000000e+02,2.705582600000000184e+02
1.220000000000000000e+02,2.712856800000000135e+02
1.230000000000000000e+02,2.720080899999999815e+02
1.240000000000000000e+02,2.727256199999999922e+02
1.250000000000000000e+02,2.734390300000000025e+02
1.260000000000000000e+02,2.741476700000000051e+02
1.270000000000000000e+02,2.748526600000000144e+02
1.280000000000000000e+02,2.755541699999999992e+02
1.290000000000000000e+02,2.762505800000000136e+02
1.300000000000000000e+02,2.769422900000000141e+02
1.310000000000000000e+02,2.776310399999999845e+02
1.320000000000000000e+02,2.783144500000000221e+02
1.330000000000000000e+02,2.789941099999999778e+02
1.340000000000000000e+02,2.796712999999999738e+02
1.350000000000000000e+02,2.803443300000000136e+02
1.360000000000000000e+02,2.810124200000000201e+02
1.370000000000000000e+02,2.816774300000000153e+02
1.380000000000000000e+02,2.823406400000000076e+02
1.390000000000000000e+02,2.829984999999999786e+02
1.400000000000000000e+02,2.836532000000000266e+02
1.410000000000000000e+02,2.843047799999999938e+02
1.420000000000000000e+02,2.849529999999999745e+02
1.430000000000000000e+02,2.855977199999999812e+02
1.440000000000000000e+02,2.862395000000000209e+02
1.450000000000000000e+02,2.868769199999999842e+02
1.460000000000000000e+02,2.875133099999999899e+02
1.470000000000000000e+02,2.881440699999999993e+02
1.480000000000000000e+02,2.887716100000000097e+02
1.490000000000000000e+02,2.893985299999999938e+02
1.500000000000000000e+02,2.900202899999999886e+02
1.510000000000000000e+02,2.906394000000000233e+02
1.520000000000000000e+02,2.912557699999999841e+02
1.530000000000000000e+02,2.918690500000000156e+02
1.540000000000000000e+02,2.924780299999999897e+02
1.550000000000000000e+02,2.930857500000000186e+02
1.560000000000000000e+02,2.936901899999999728e+02
1.570000000000000000e+02,2.942914400000000228e+02
1.580000000000000000e+02,2.948901399999999740e+02
1.590000000000000000e+02,2.954840399999999931e+02
1.600000000000000000e+02,2.960771199999999794e+02
1.610000000000000000e+02,2.966662000000000035e+02
1.620000000000000000e+02,2.972533900000000244e+02
1.630000000000000000e+02,2.978357500000000186e+02
1.640000000000000000e+02,2.984169600000000173e+02
1.650000000000000000e+02,2.989950000000000045e+02
1.660000000000000000e+02,2.995686000000000035e+02
1.670000000000000000e+02,3.001418199999999956e+02
1.680000000000000000e+02,3.007093199999999911e+02
1.690000000000000000e+02,3.012759699999999725e+02
1.700000000000000000e+02,3.018387500000000045e+02
1.710000000000000000e+02,3.023997499999999832e+02
1.720000000000000000e+02,3.029565099999999802e+02
1.730000000000000000e+02,3.035111999999999739e+02
1.740000000000000000e+02,3.040623199999999997e+02
1.750000000000000000e+02,3.046101699999999823e+02
1.760000000000000000e+02,3.051564000000000192e+02
1.770000000000000000e+02,3.056992799999999875e+02
1.780000000000000000e+02,3.062374599999999987e+02
1.790000000000000000e+02,3.067757899999999722e+02
1.800000000000000000e+02,3.073089899999999943e+02
1.810000000000000000e+02,3.078392000000000053e+02
1.820000000000000000e+02,3.083683800000000019e+02
1.830000000000000000e+02,3.088924299999999903e+02
1.840000000000000000e+02,3.094134199999999737e+02
1.850000000000000000e+02,3.099329500000000053e+02
1.860000000000000000e+02,3.104488200000000120e+02
1.870000000000000000e+02,3.109607199999999807e+02
1.880000000000000000e+02,3.114711899999999787e+02
1.890000000000000000e+02,3.119778699999999958e+02
1.900000000000000000e+02,3.124798900000000117e+02
1.910000000000000000e+02,3.129821200000000090e+02
1.920000000000000000e+02,3.134796400000000176e+02
1.930000000000000000e+02,3.139728700000000003e+02
1.940000000000000000e+02,3.144647499999999809e+02
1.950000000000000000e+02,3.149530599999999936e+02
1.960000000000000000e+02,3.154366499999999860e+02
1.970000000000000000e+02,3.159201699999999846e+02
1.980000000000000000e+02,3.163987399999999752e+02
1.990000000000000000e+02,3.168731099999999969e+02
2.000000000000000000e+02,3.173465600000000109e+02
2.010000000000000000e+02,3.178154299999999921e+02
2.020000000000000000e+02,3.182812500000000000e+02
2.030000000000000000e+02,3.187451199999999858e+02
2.040000000000000000e+02,3.192038299999999822e+02
2.050000000000000000e+02,3.196601600000000190e+02
2.060000000000000000e+02,3.201152999999999906e+02
2.070000000000000000e+02,3.205643000000000029e+02
2.080000000000000000e+02,3.210105300000000170e+02
2.090000000000000000e+02,3.214562399999999798e+02
2.100000000000000000e+02,3.218965099999999779e+02
2.110000000000000000e+02,3.223325500000000261e+02
2.120000000000000000e+02,3.227681000000000040e+02
2.130000000000000000e+02,3.231983900000000176e+02
2.140000000000000000e+02,3.236253699999999753e+02
2.150000000000000000e+02,3.240524300000000153e+02
2.160000000000000000e+02,3.244734199999999760e+02
2.170000000000000000e+02,3.248906900000000064e+02
2.180000000000000000e+02,3.253074599999999919e+02
2.190000000000000000e+02,3.257189900000000193e+02
2.200000000000000000e+02,3.261266200000000026e+02
2.210000000000000000e+02,3.265346999999999866e+02
2.220000000000000000e+02,3.269368000000000052e+02
2.230000000000000000e+02,3.273352399999999989e+02
2.240000000000000000e+02,3.277345000000000255e+02
2.250000000000000000e+02,3.281271100000000160e+02
2.260000000000000000e+02,3.285159600000000069e+02
2.270000000000000000e+02,3.289061599999999999e+02
2.280000000000000000e+02,3.292889700000000062e+02
2.290000000000000000e+02,3.296687299999999823e+02
2.300000000000000000e+02,3.300500499999999988e+02
2.310000000000000000e+02,3.304248699999999985e+02
2.320000000000000000e+02,3.307956800000000044e+02
2.330000000000000000e+02,3.311680900000000065e+02
2.340000000000000000e+02,3.315340299999999729e+02
2.350000000000000000e+02,3.318963600000000156e+02
2.360000000000000000e+02,3.322608000000000175e+02
2.370000000000000000e+02,3.326184099999999830e+02
2.380000000000000000e+02,3.329005399999999781e+02
2.390000000000000000e+02,3.327772199999999998e+02
2.400000000000000000e+02,3.331037000000000035e+02
2.410000000000000000e+02,3.333970600000000104e+02
2.420000000000000000e+02,3.337315399999999954e+02
2.430000000000000000e+02,3.340609699999999975e+02
2.440000000000000000e+02,3.343934600000000046e+02
2.450000000000000000e+02,3.347311700000000201e+02
2.460000000000000000e+02,3.350631999999999948e+02
2.470000000000000000e+02,3.353930100000000039e+02
2.480000000000000000e+02,3.357266799999999876e+02
2.490000000000000000e+02,3.360539600000000178e+02
2.500000000000000000e+02,3.363780499999999734e+02
2.510000000000000000e+02,3.367065699999999993e+02
2.520000000000000000e+02,3.370272499999999809e+02
2.530000000000000000e+02,3.373450900000000274e+02
2.540000000000000000e+02,3.376676600000000121e+02
2.550000000000000000e+02,3.379825099999999907e+02
2.560000000000000000e+02,3.382948000000000093e+02
2.570000000000000000e+02,3.386101699999999823e+02
2.580000000000000000e+02,3.389187000000000012e+02
2.590000000000000000e+02,3.392239700000000084e+02
2.600000000000000000e+02,3.395337799999999788e+02
2.610000000000000000e+02,3.398379199999999969e+02
2.620000000000000000e+02,3.401373899999999821e+02
2.630000000000000000e+02,3.404421699999999760e+02
2.640000000000000000e+02,3.407392300000000205e+02
2.650000000000000000e+02,3.410340299999999729e+02
2.660000000000000000e+02,3.413328599999999824e+02
2.670000000000000000e+02,3.416255499999999756e+02
2.680000000000000000e+02,3.419144900000000007e+02
2.690000000000000000e+02,3.422096300000000042e+02
2.700000000000000000e+02,3.424962800000000129e+02
2.710000000000000000e+02,3.427815600000000131e+02
2.720000000000000000e+02,3.430714699999999766e+02
2.730000000000000000e+02,3.433545500000000175e+02
2.740000000000000000e+02,3.436336400000000140e+02
2.750000000000000000e+02,3.439193700000000149e+02
2.760000000000000000e+02,3.441991300000000251e+02
2.770000000000000000e+02,3.444744900000000030e+02
2.780000000000000000e+02,3.447567099999999982e+02
2.790000000000000000e+02,3.450308800000000247e+02
2.800000000000000000e+02,3.453043499999999995e+02
2.810000000000000000e+02,3.455822800000000257e+02
2.820000000000000000e+02,3.458531500000000278e+02
2.830000000000000000e+02,3.461222500000000082e+02
2.840000000000000000e+02,3.463977699999999800e+02
2.850000000000000000e+02,3.466652500000000146e+02
2.860000000000000000e+02,3.469309999999999832e+02
2.870000000000000000e+02,3.472036100000000260e+02
2.880000000000000000e+02,3.474681400000000053e+02
2.890000000000000000e+02,3.477308699999999817e+02
2.900000000000000000e+02,3.479995099999999866e+02
2.910000000000000000e+02,3.482621800000000007e+02
2.920000000000000000e+02,3.485225199999999859e+02
2.930000000000000000e+02,3.487886399999999867e+02
2.940000000000000000e+02,3.490484599999999773e+02
2.950000000000000000e+02,3.493061799999999835e+02
2.960000000000000000e+02,3.495701300000000060e+02
2.970000000000000000e+02,3.498265999999999849e+02
2.980000000000000000e+02,3.500827300000000264e+02
2.990000000000000000e+02,3.503443899999999758e+02
3.000000000000000000e+02,3.505988800000000083e+02
3.010000000000000000e+02,3.508530600000000277e+02
3.020000000000000000e+02,3.511125799999999799e+02
3.030000000000000000e+02,3.513659700000000043e+02
3.040000000000000000e+02,3.516167899999999804e+02
3.050000000000000000e+02,3.518750000000000000e+02
3.060000000000000000e+02,3.521264600000000087e+02
3.070000000000000000e+02,3.523756999999999948e+02
3.080000000000000000e+02,3.526321100000000115e+02
3.090000000000000000e+02,3.528818999999999733e+02
3.100000000000000000e+02,3.531294899999999757e+02
3.110000000000000000e+02,3.533842799999999897e+02
3.120000000000000000e+02,3.536321699999999737e+02
3.130000000000000000e+02,3.538781399999999735e+02
3.140000000000000000e+02,3.541326300000000060e+02
3.150000000000000000e+02,3.543774099999999976e+02
3.160000000000000000e+02,3.546226800000000026e+02
3.170000000000000000e+02,3.548755800000000136e+02
3.180000000000000000e+02,3.551190500000000156e+02
3.190000000000000000e+02,3.553628800000000183e+02
3.200000000000000000e+02,3.556143200000000206e+02
3.210000000000000000e+02,3.558576699999999846e+02
3.220000000000000000e+02,3.561003099999999790e+02
3.230000000000000000e+02,3.563485999999999763e+02
3.240000000000000000e+02,3.565914300000000026e+02
3.250000000000000000e+02,3.568326999999999884e+02
3.260000000000000000e+02,3.570797400000000152e+02
3.270000000000000000e+02,3.573224200000000224e+02
3.280000000000000000e+02,3.575607299999999782e+02
3.290000000000000000e+02,3.578072199999999725e+02
3.300000000000000000e+02,3.580483699999999772e+02
3.310000000000000000e+02,3.582856400000000008e+02
3.320000000000000000e+02,3.585308200000000056e+02
3.330000000000000000e+02,3.587709699999999771e+02
3.340000000000000000e+02,3.590071100000000115e+02
3.350000000000000000e+02,3.592535100000000057e+02
3.360000000000000000e+02,3.594895300000000020e+02
3.370000000000000000e+02,3.597254899999999793e+02
3.380000000000000000e+02,3.599703700000000026e+02
3.390000000000000000e+02,3.602056900000000041e+02
3.400000000000000000e+02,3.604417100000000005e+02
3.410000000000000000e+02,3.606831999999999994e+02
3.420000000000000000e+02,3.609183699999999817e+02
3.430000000000000000e+02,3.611542999999999779e+02
3.440000000000000000e+02,3.613933400000000233e+02
3.450000000000000000e+02,3.616285100000000057e+02
3.460000000000000000e+02,3.618613300000000095e+02
3.470000000000000000e+02,3.620999100000000226e+02
3.480000000000000000e+02,3.623350199999999859e+02
3.490000000000000000e+02,3.625656099999999924e+02
3.500000000000000000e+02,3.628044100000000185e+02
3.510000000000000000e+02,3.630363800000000083e+02
3.520000000000000000e+02,3.632677600000000098e+02
3.530000000000000000e+02,3.635029900000000112e+02
3.540000000000000000e+02,3.637347700000000259e+02
3.550000000000000000e+02,3.639649699999999939e+02
3.560000000000000000e+02,3.642003799999999956e+02
3.570000000000000000e+02,3.644305699999999888e+02
3.580000000000000000e+02,3.646575900000000274e+02
3.590000000000000000e+02,3.648924000000000092e+02
3.600000000000000000e+02,3.651211200000000190e+02
3.610000000000000000e+02,3.653485400000000141e+02
3.620000000000000000e+02,3.655817000000000121e+02
3.630000000000000000e+02,3.658072799999999916e+02
3.640000000000000000e+02,3.660356400000000008e+02
3.650000000000000000e+02,3.662645899999999983e+02
3.660000000000000000e+02,3.664915500000000179e+02
3.670000000000000000e+02,3.667169200000000160e+02
3.680000000000000000e+02,3.669449500000000057e+02
3.690000000000000000e+02,3.671718399999999747e+02
3.700000000000000000e+02,3.673933400000000233e+02
3.710000000000000000e+02,3.676234999999999786e+02
3.720000000000000000e+02,3.678451499999999896e+02
3.730000000000000000e+02,3.680683900000000222e+02
3.740000000000000000e+02,3.682953200000000038e+02
3.750000000000000000e+02,3.685153799999999933e+02
3.760000000000000000e+02,3.687384299999999939e+02
3.770000000000000000e+02,3.689613299999999754e+02
3.780000000000000000e+02,3.691840199999999754e+02
3.790000000000000000e+02,3.694017299999999864e+02
3.800000000000000000e+02,3.696238999999999919e+02
3.810000000000000000e+02,3.698448200000000270e+02
3.820000000000000000e+02,3.700610699999999724e+02
3.830000000000000000e+02,3.702845800000000054e+02
3.840000000000000000e+02,3.705003699999999753e+02
3.850000000000000000e+02,3.707191500000000133e+02
3.860000000000000000e+02,3.709371300000000247e+02
3.870000000000000000e+02,3.711533499999999890e+02
3.880000000000000000e+02,3.713677999999999884e+02
3.890000000000000000e+02,3.715864000000000260e+02
3.900000000000000000e+02,3.718003800000000183e+02
3.910000000000000000e+02,3.720132100000000150e+02
3.920000000000000000e+02,3.722312900000000013e+02
3.930000000000000000e+02,3.721837499999999750e+02
3.940000000000000000e+02,3.716004599999999982e+02
3.950000000000000000e+02,3.717318999999999960e+02
3.960000000000000000e+02,3.718293800000000147e+02
3.970000000000000000e+02,3.719906599999999912e+02
3.980000000000000000e+02,3.721625399999999786e+02
3.990000000000000000e+02,3.723441199999999753e+02
