# Time [s], Convective Heat Transfer Coefficient [W/m2K]
1.000000000000000000e+00,0.000000000000000000e+00
2.000000000000000000e+00,0.000000000000000000e+00
3.000000000000000000e+00,0.000000000000000000e+00
4.000000000000000000e+00,0.000000000000000000e+00
5.000000000000000000e+00,1.915079995362458862e-02
6.000000000000000000e+00,3.380449737731881787e-02
7.000000000000000000e+00,5.636813249252742991e-02
8.000000000000000000e+00,8.598112295271710670e-02
9.000000000000000000e+00,1.233172998748469779e-01
1.000000000000000000e+01,1.690224868832458649e-01
1.100000000000000000e+01,2.226512041725016156e-01
1.200000000000000000e+01,2.838162456103462405e-01
1.300000000000000000e+01,3.516566859275369605e-01
1.400000000000000000e+01,4.253154560629937575e-01
1.500000000000000000e+01,5.039109771379151059e-01
1.600000000000000000e+01,5.865755911879477758e-01
1.700000000000000000e+01,6.725242639780697473e-01
1.800000000000000000e+01,7.610423032114504993e-01
1.900000000000000000e+01,8.515197778103882342e-01
2.000000000000000000e+01,9.434204001214563373e-01
2.100000000000000000e+01,1.036289592641334023e+00
2.200000000000000000e+01,1.129736713678572757e+00
2.300000000000000000e+01,1.223438817290788183e+00
2.400000000000000000e+01,1.317116790179121866e+00
2.500000000000000000e+01,1.410545437324883800e+00
2.600000000000000000e+01,1.503537573316878762e+00
2.700000000000000000e+01,1.595932441584748895e+00
2.800000000000000000e+01,1.687604956498174769e+00
2.900000000000000000e+01,1.778445524439130621e+00
3.000000000000000000e+01,1.868374476108889626e+00
3.100000000000000000e+01,1.957323197948509508e+00
3.200000000000000000e+01,2.045235513902325941e+00
3.300000000000000000e+01,2.132072676718134385e+00
3.400000000000000000e+01,2.217801959261437528e+00
3.500000000000000000e+01,2.302402612356048817e+00
3.600000000000000000e+01,2.385858245853460069e+00
3.700000000000000000e+01,2.468159975256274841e+00
3.800000000000000000e+01,2.549303953853204963e+00
3.900000000000000000e+01,2.629290671623080833e+00
4.000000000000000000e+01,2.708126016959190085e+00
4.100000000000000000e+01,2.785818770724687088e+00
4.200000000000000000e+01,2.862371273076254052e+00
4.300000000000000000e+01,2.937800449146427351e+00
4.400000000000000000e+01,3.012120366048159248e+00
4.500000000000000000e+01,3.085340798597721701e+00
4.600000000000000000e+01,3.157481601332404964e+00
4.700000000000000000e+01,3.228556522622813230e+00
4.800000000000000000e+01,3.298586133464536108e+00
4.900000000000000000e+01,3.367584425213370647e+00
5.000000000000000000e+01,3.435571855221803084e+00
5.100000000000000000e+01,3.502565994354689849e+00
5.200000000000000000e+01,3.568586176746669114e+00
5.300000000000000000e+01,3.633646893232286068e+00
5.400000000000000000e+01,3.697769934188518182e+00
5.500000000000000000e+01,3.760972190327817266e+00
5.600000000000000000e+01,3.823271996074666390e+00
5.700000000000000000e+01,3.884686302963590077e+00
5.800000000000000000e+01,3.945235144782147430e+00
5.900000000000000000e+01,4.004934443444567727e+00
6.000000000000000000e+01,4.063800623322827654e+00
6.100000000000000000e+01,4.121850875577104389e+00
6.200000000000000000e+01,4.179102245105821289e+00
6.300000000000000000e+01,4.235571389584464441e+00
6.400000000000000000e+01,4.291275588226926452e+00
6.500000000000000000e+01,4.346227281670492992e+00
6.600000000000000000e+01,4.400443261983904897e+00
6.700000000000000000e+01,4.453937795436240243e+00
6.800000000000000000e+01,4.506725932881807672e+00
6.900000000000000000e+01,4.558825018748507318e+00
7.000000000000000000e+01,4.610244436371225163e+00
7.100000000000000000e+01,4.660998404836614206e+00
7.200000000000000000e+01,4.711103646356823660e+00
7.300000000000000000e+01,4.760569548631279346e+00
7.400000000000000000e+01,4.809410020314865086e+00
7.500000000000000000e+01,4.857639054827551206e+00
7.600000000000000000e+01,4.905265694523817999e+00
7.700000000000000000e+01,4.952304698269424321e+00
7.800000000000000000e+01,4.998764659846743008e+00
7.900000000000000000e+01,5.044659410839081204e+00
8.000000000000000000e+01,5.089997964275274178e+00
8.100000000000000000e+01,5.134792427472480547e+00
8.200000000000000000e+01,5.179052098397292525e+00
8.300000000000000000e+01,5.222788627454281851e+00
8.400000000000000000e+01,5.266010118178561683e+00
8.500000000000000000e+01,5.308727843602237151e+00
8.600000000000000000e+01,5.350950143585666119e+00
8.700000000000000000e+01,5.392687476661153667e+00
8.800000000000000000e+01,5.433946466096888805e+00
8.900000000000000000e+01,5.474739358862908745e+00
9.000000000000000000e+01,5.515072372456762295e+00
9.100000000000000000e+01,5.554953332383930409e+00
9.200000000000000000e+01,5.594391891272802120e+00
9.300000000000000000e+01,5.633394051062233565e+00
9.400000000000000000e+01,5.671970704859095491e+00
9.500000000000000000e+01,5.710127686097339783e+00
9.600000000000000000e+01,5.747871449625006512e+00
9.700000000000000000e+01,5.785211302424460023e+00
9.800000000000000000e+01,5.822153005069904630e+00
9.900000000000000000e+01,5.858702538847010644e+00
1.000000000000000000e+02,5.894869492730268057e+00
1.010000000000000000e+02,5.930657958622283843e+00
1.020000000000000000e+02,5.966073796590785072e+00
1.030000000000000000e+02,6.001126187560741343e+00
1.040000000000000000e+02,6.035819151995815979e+00
1.050000000000000000e+02,6.070158545289563889e+00
1.060000000000000000e+02,6.104151640184993788e+00
1.070000000000000000e+02,6.137803692960157598e+00
1.080000000000000000e+02,6.171118851610754241e+00
1.090000000000000000e+02,6.204104167794186608e+00
1.100000000000000000e+02,6.236765110679416857e+00
1.110000000000000000e+02,6.269106155384300827e+00
1.120000000000000000e+02,6.301131305119366921e+00
1.130000000000000000e+02,6.332848025675247072e+00
1.140000000000000000e+02,6.364260109329537229e+00
1.150000000000000000e+02,6.395371460520856921e+00
1.160000000000000000e+02,6.426188386193091517e+00
1.170000000000000000e+02,6.456714849154009173e+00
1.180000000000000000e+02,6.486955637983829348e+00
1.190000000000000000e+02,6.516913214482908501e+00
1.200000000000000000e+02,6.546594593046405564e+00
1.210000000000000000e+02,6.576002474607514969e+00
1.220000000000000000e+02,6.605140804209631789e+00
1.230000000000000000e+02,6.634014716625252994e+00
1.240000000000000000e+02,6.662627848537171715e+00
1.250000000000000000e+02,6.690983187055826953e+00
1.260000000000000000e+02,6.719085949221916820e+00
1.270000000000000000e+02,6.746939375615635726e+00
1.280000000000000000e+02,6.774546852120470142e+00
1.290000000000000000e+02,6.801910892167252420e+00
1.300000000000000000e+02,6.829036936697501226e+00
1.310000000000000000e+02,6.855927262432874869e+00
1.320000000000000000e+02,6.882585059155347906e+00
1.330000000000000000e+02,6.909014885224083358e+00
1.340000000000000000e+02,6.935219208883786735e+00
1.350000000000000000e+02,6.961200661036341053e+00
1.360000000000000000e+02,6.986963707856062911e+00
1.370000000000000000e+02,7.012510537403149335e+00
1.380000000000000000e+02,7.037843505639755470e+00
1.390000000000000000e+02,7.062967007769633376e+00
1.400000000000000000e+02,7.087882979586421328e+00
1.410000000000000000e+02,7.112593760318037361e+00
1.420000000000000000e+02,7.137103457659478067e+00
1.430000000000000000e+02,7.162715484434237112e+00
1.440000000000000000e+02,7.187278510658638986e+00
1.450000000000000000e+02,7.211434389380791288e+00
1.460000000000000000e+02,7.235330233279453793e+00
1.470000000000000000e+02,7.258991073603412225e+00
1.480000000000000000e+02,7.282434213441837834e+00
1.490000000000000000e+02,7.305671456420607335e+00
1.500000000000000000e+02,7.328711028653598802e+00
1.510000000000000000e+02,7.351556826894359631e+00
1.520000000000000000e+02,7.374216087929294616e+00
1.530000000000000000e+02,7.396692227335277536e+00
1.540000000000000000e+02,7.418989634834961322e+00
1.550000000000000000e+02,7.441111743281650703e+00
1.560000000000000000e+02,7.463061267837867163e+00
1.570000000000000000e+02,7.484841899060532100e+00
1.580000000000000000e+02,7.506456197785528417e+00
1.590000000000000000e+02,7.527906867363342691e+00
1.600000000000000000e+02,7.549196750027570957e+00
1.610000000000000000e+02,7.570327393635082558e+00
1.620000000000000000e+02,7.591301119150331900e+00
1.630000000000000000e+02,7.612119989548364885e+00
1.640000000000000000e+02,7.632787022694667911e+00
1.650000000000000000e+02,7.653303767806024283e+00
1.660000000000000000e+02,7.673670941264062684e+00
1.670000000000000000e+02,7.693891612626096332e+00
1.680000000000000000e+02,7.713966618798011154e+00
1.690000000000000000e+02,7.733898340500328317e+00
1.700000000000000000e+02,7.753687936936621838e+00
1.710000000000000000e+02,7.773337120545417811e+00
1.720000000000000000e+02,7.792847950479901087e+00
1.730000000000000000e+02,7.812221289781771993e+00
1.740000000000000000e+02,7.831458934514816228e+00
1.750000000000000000e+02,7.850562831361449057e+00
1.760000000000000000e+02,7.869533751072296468e+00
1.770000000000000000e+02,7.888373762336587269e+00
1.780000000000000000e+02,7.907083205425753825e+00
1.790000000000000000e+02,7.925665019093447228e+00
1.800000000000000000e+02,7.944119115539736597e+00
1.810000000000000000e+02,7.962447066369909621e+00
1.820000000000000000e+02,7.980650778068211437e+00
1.830000000000000000e+02,7.998731203873520101e+00
1.840000000000000000e+02,8.016689093951093525e+00
1.850000000000000000e+02,8.034526632004910240e+00
1.860000000000000000e+02,8.052244154061776626e+00
1.870000000000000000e+02,8.069843424614113303e+00
1.880000000000000000e+02,8.087325457990555577e+00
1.890000000000000000e+02,8.104690534644223732e+00
1.900000000000000000e+02,8.121940878645476758e+00
1.910000000000000000e+02,8.139077082568974220e+00
1.920000000000000000e+02,8.156100253498001607e+00
1.930000000000000000e+02,8.173011827157345977e+00
1.940000000000000000e+02,8.189811816023015112e+00
1.950000000000000000e+02,8.206502314759317684e+00
1.960000000000000000e+02,8.223083822727165426e+00
1.970000000000000000e+02,8.239557862523975373e+00
1.980000000000000000e+02,8.255924383584220649e+00
1.990000000000000000e+02,8.272184530351182730e+00
2.000000000000000000e+02,8.288340448515667092e+00
2.010000000000000000e+02,8.304391701185553032e+00
2.020000000000000000e+02,8.320339545979940965e+00
2.030000000000000000e+02,8.336184712831384402e+00
2.040000000000000000e+02,8.351928253152696158e+00
2.050000000000000000e+02,8.367571199506656399e+00
2.060000000000000000e+02,8.383114066352497673e+00
2.070000000000000000e+02,8.398557689464739795e+00
2.080000000000000000e+02,8.413902889391456696e+00
2.090000000000000000e+02,8.429150966073441609e+00
2.100000000000000000e+02,8.444301392006273943e+00
2.110000000000000000e+02,8.459355934429687807e+00
2.120000000000000000e+02,8.474315517621175076e+00
2.130000000000000000e+02,8.489180075436788542e+00
2.140000000000000000e+02,8.503950349168077238e+00
2.150000000000000000e+02,8.518627389637346781e+00
2.160000000000000000e+02,8.533212551976223637e+00
2.170000000000000000e+02,8.547705087318469452e+00
2.180000000000000000e+02,8.562106170299513153e+00
2.190000000000000000e+02,8.576416638767607736e+00
2.200000000000000000e+02,8.590637792588939448e+00
2.210000000000000000e+02,8.604768698452524234e+00
2.220000000000000000e+02,8.618810796341227487e+00
2.230000000000000000e+02,8.632765033647245900e+00
2.240000000000000000e+02,8.646631873238654009e+00
2.250000000000000000e+02,8.660410989112229174e+00
2.260000000000000000e+02,8.674103457016107299e+00
2.270000000000000000e+02,8.687709871278812557e+00
2.280000000000000000e+02,8.701230816244418520e+00
2.290000000000000000e+02,8.714667483023779582e+00
2.300000000000000000e+02,8.728019508940686677e+00
2.310000000000000000e+02,8.741286992833551039e+00
2.320000000000000000e+02,8.754470946237134399e+00
2.330000000000000000e+02,8.767571756904962044e+00
2.340000000000000000e+02,8.780589957318641225e+00
2.350000000000000000e+02,8.793525919810670999e+00
2.360000000000000000e+02,8.806380915547164179e+00
2.370000000000000000e+02,8.819154693432052383e+00
2.380000000000000000e+02,8.831847603156118609e+00
2.390000000000000000e+02,8.844460287275012433e+00
2.400000000000000000e+02,8.856992930968710098e+00
2.410000000000000000e+02,8.869445863736189040e+00
2.420000000000000000e+02,8.881819705772018736e+00
2.430000000000000000e+02,8.894114772045172757e+00
2.440000000000000000e+02,8.906331519263329000e+00
2.450000000000000000e+02,8.918470543959712060e+00
2.460000000000000000e+02,8.930531993536641622e+00
2.470000000000000000e+02,8.942516157865503246e+00
2.480000000000000000e+02,8.954423613380257052e+00
2.490000000000000000e+02,8.966254782485352237e+00
2.500000000000000000e+02,8.978009645167523090e+00
2.510000000000000000e+02,8.989688613874449175e+00
2.520000000000000000e+02,9.001292094483632766e+00
2.530000000000000000e+02,9.012820342308874189e+00
2.540000000000000000e+02,9.024274039009576143e+00
2.550000000000000000e+02,9.035653140190174071e+00
2.560000000000000000e+02,9.046958171736472210e+00
2.570000000000000000e+02,9.058189224044003396e+00
2.580000000000000000e+02,9.069346811322381186e+00
2.590000000000000000e+02,9.080431440504703744e+00
2.600000000000000000e+02,9.091442903249619789e+00
2.610000000000000000e+02,9.102381838723731633e+00
2.620000000000000000e+02,9.113248313960319535e+00
2.630000000000000000e+02,9.124042814998611917e+00
2.640000000000000000e+02,9.134765961384276878e+00
2.650000000000000000e+02,9.145417105062776386e+00
2.660000000000000000e+02,9.155997277439881898e+00
2.670000000000000000e+02,9.166506244394190261e+00
2.680000000000000000e+02,9.176944883768383576e+00
2.690000000000000000e+02,9.187312537745766505e+00
2.700000000000000000e+02,9.197610351141491947e+00
2.710000000000000000e+02,9.207838351853510517e+00
2.720000000000000000e+02,9.217996703169168526e+00
2.730000000000000000e+02,9.228085427345524394e+00
2.740000000000000000e+02,9.238105367297324122e+00
2.750000000000000000e+02,9.248055987835675396e+00
2.760000000000000000e+02,9.257938258598654713e+00
2.770000000000000000e+02,9.267751912262260916e+00
2.780000000000000000e+02,9.277497225668209779e+00
2.790000000000000000e+02,9.287175014107353022e+00
2.800000000000000000e+02,9.296784729628457811e+00
2.810000000000000000e+02,9.306326908000984943e+00
2.820000000000000000e+02,9.315801538975476248e+00
2.830000000000000000e+02,9.325209552601510410e+00
2.840000000000000000e+02,9.334550660281120571e+00
2.850000000000000000e+02,9.343824841825114191e+00
2.860000000000000000e+02,9.353032476577237020e+00
2.870000000000000000e+02,9.362174339498398723e+00
2.880000000000000000e+02,9.371249997827273859e+00
2.890000000000000000e+02,9.380259685305125217e+00
2.900000000000000000e+02,9.389203499048297985e+00
2.910000000000000000e+02,9.398082328599436153e+00
2.920000000000000000e+02,9.406895335054146656e+00
2.930000000000000000e+02,9.415643664361095233e+00
2.940000000000000000e+02,9.424327002180834967e+00
2.950000000000000000e+02,9.432945429149075522e+00
2.960000000000000000e+02,9.441499679887771279e+00
2.970000000000000000e+02,9.449989695215361252e+00
2.980000000000000000e+02,9.458414890990251678e+00
2.990000000000000000e+02,9.466776383243997728e+00
3.000000000000000000e+02,9.475073974247733233e+00
3.010000000000000000e+02,9.483308116490508866e+00
3.020000000000000000e+02,9.491478347773684376e+00
3.030000000000000000e+02,9.499585115108036604e+00
3.040000000000000000e+02,9.507628730970431263e+00
3.050000000000000000e+02,9.515609762318163689e+00
3.060000000000000000e+02,9.523527350634696020e+00
3.070000000000000000e+02,9.531382831639303888e+00
3.080000000000000000e+02,9.539175343379252325e+00
3.090000000000000000e+02,9.546905440351217464e+00
3.100000000000000000e+02,9.554573286818547118e+00
3.110000000000000000e+02,9.562178916019560049e+00
3.120000000000000000e+02,9.569722870327126429e+00
3.130000000000000000e+02,9.577205176275930043e+00
3.140000000000000000e+02,9.584625603460981580e+00
3.150000000000000000e+02,9.591984048194547086e+00
3.160000000000000000e+02,9.599281548807484299e+00
3.170000000000000000e+02,9.606517740104749237e+00
3.180000000000000000e+02,9.613692763802081487e+00
3.190000000000000000e+02,9.620807011788643948e+00
3.200000000000000000e+02,9.627860114026864480e+00
3.210000000000000000e+02,9.634852961736596555e+00
3.220000000000000000e+02,9.641784928039990987e+00
3.230000000000000000e+02,9.648656645158471434e+00
3.240000000000000000e+02,9.655467986440159578e+00
3.250000000000000000e+02,9.662219701767915225e+00
3.260000000000000000e+02,9.668911157613162999e+00
3.270000000000000000e+02,9.675542597363548936e+00
3.280000000000000000e+02,9.682114635800235902e+00
3.290000000000000000e+02,9.688627134274463870e+00
3.300000000000000000e+02,9.695080326637471657e+00
3.310000000000000000e+02,9.701474070511624248e+00
3.320000000000000000e+02,9.707809091893947695e+00
3.330000000000000000e+02,9.714084994683632956e+00
3.340000000000000000e+02,9.720302250234178487e+00
3.350000000000000000e+02,9.726460830703414828e+00
3.360000000000000000e+02,9.732561200883523611e+00
3.370000000000000000e+02,9.738603080848786675e+00
3.380000000000000000e+02,9.744586929898568783e+00
3.390000000000000000e+02,9.750512833882117647e+00
3.400000000000000000e+02,9.756381245364543986e+00
3.410000000000000000e+02,9.762191998784508939e+00
3.420000000000000000e+02,9.767945295644041792e+00
3.430000000000000000e+02,9.773641212164381642e+00
3.440000000000000000e+02,9.779280556852645745e+00
3.450000000000000000e+02,9.784862665568642370e+00
3.460000000000000000e+02,9.790388463077517756e+00
3.470000000000000000e+02,9.795857770320944624e+00
3.480000000000000000e+02,9.801270407305111121e+00
3.490000000000000000e+02,9.806627288581692525e+00
3.500000000000000000e+02,9.811928228676739749e+00
3.510000000000000000e+02,9.817173769973647879e+00
3.520000000000000000e+02,9.822363722852145429e+00
3.530000000000000000e+02,9.827498624035007069e+00
3.540000000000000000e+02,9.832578764166360230e+00
3.550000000000000000e+02,9.837604068163610549e+00
3.560000000000000000e+02,9.842574822098853815e+00
3.570000000000000000e+02,9.847491671383712841e+00
3.580000000000000000e+02,9.852354533666336067e+00
3.590000000000000000e+02,9.857163445785847244e+00
3.600000000000000000e+02,9.861919164991025610e+00
3.610000000000000000e+02,9.866621842795472830e+00
3.620000000000000000e+02,9.871271628570307044e+00
3.630000000000000000e+02,9.875868669565619484e+00
3.640000000000000000e+02,9.880413470664757725e+00
3.650000000000000000e+02,9.884906293759943452e+00
3.660000000000000000e+02,9.889347517973972046e+00
3.670000000000000000e+02,9.893737758751125710e+00
3.680000000000000000e+02,9.898076552537315109e+00
3.690000000000000000e+02,9.902364629729508039e+00
3.700000000000000000e+02,9.906602716741481629e+00
3.710000000000000000e+02,9.910790344317545575e+00
3.720000000000000000e+02,9.914928234142449170e+00
3.730000000000000000e+02,9.919016985110310713e+00
3.740000000000000000e+02,9.923056598359954350e+00
3.750000000000000000e+02,9.927047667602696635e+00
3.760000000000000000e+02,9.930990901996352704e+00
3.770000000000000000e+02,9.934885702548704955e+00
3.780000000000000000e+02,9.938733129942274758e+00
3.790000000000000000e+02,9.942533411369545604e+00
3.800000000000000000e+02,9.946287127052586996e+00
3.810000000000000000e+02,9.949994617747009329e+00
3.820000000000000000e+02,9.953655867519719536e+00
3.830000000000000000e+02,9.957271803809881305e+00
3.840000000000000000e+02,9.960842642290266724e+00
3.850000000000000000e+02,9.964368832656374408e+00
3.860000000000000000e+02,9.967851175642435280e+00
3.870000000000000000e+02,9.971289055817738500e+00
3.880000000000000000e+02,9.974684093783778849e+00
3.890000000000000000e+02,9.978036141020302452e+00
3.900000000000000000e+02,9.981345753346451133e+00
3.910000000000000000e+02,9.984613484074229106e+00
3.920000000000000000e+02,9.987839649369524508e+00
3.930000000000000000e+02,9.991024798133913976e+00
3.940000000000000000e+02,9.994168890918114556e+00
3.950000000000000000e+02,9.997314871794250379e+00
3.960000000000000000e+02,1.000039999768743826e+01
3.970000000000000000e+02,1.000344145963835807e+01
3.980000000000000000e+02,1.000644354542473025e+01
