# Time [s], Temperature [C]
1.000000000000000000e+00,2.499997300000000067e+01
2.000000000000000000e+00,4.568365099999999757e+01
3.000000000000000000e+00,5.750396700000000294e+01
4.000000000000000000e+00,6.714763600000000565e+01
5.000000000000000000e+00,7.521007500000000334e+01
6.000000000000000000e+00,8.230230699999999899e+01
7.000000000000000000e+00,8.866027099999999450e+01
8.000000000000000000e+00,9.446058700000000385e+01
9.000000000000000000e+00,9.981121100000000013e+01
1.000000000000000000e+01,1.047921400000000034e+02
1.100000000000000000e+01,1.094606600000000043e+02
1.200000000000000000e+01,1.138615499999999940e+02
1.300000000000000000e+01,1.180288900000000041e+02
1.400000000000000000e+01,1.219917399999999930e+02
1.500000000000000000e+01,1.257715699999999970e+02
1.600000000000000000e+01,1.293871499999999912e+02
1.700000000000000000e+01,1.328551600000000121e+02
1.800000000000000000e+01,1.361881300000000010e+02
1.900000000000000000e+01,1.393981899999999996e+02
2.000000000000000000e+01,1.424952199999999891e+02
2.100000000000000000e+01,1.454873200000000111e+02
2.200000000000000000e+01,1.483824600000000089e+02
2.300000000000000000e+01,1.511876699999999971e+02
2.400000000000000000e+01,1.539085800000000006e+02
2.500000000000000000e+01,1.565502799999999866e+02
2.600000000000000000e+01,1.591185199999999895e+02
2.700000000000000000e+01,1.616163200000000018e+02
2.800000000000000000e+01,1.640486899999999935e+02
2.900000000000000000e+01,1.664192999999999927e+02
3.000000000000000000e+01,1.687306800000000067e+02
3.100000000000000000e+01,1.709859199999999930e+02
3.200000000000000000e+01,1.731882500000000107e+02
3.300000000000000000e+01,1.753399400000000128e+02
3.400000000000000000e+01,1.774432700000000125e+02
3.500000000000000000e+01,1.795009000000000015e+02
3.600000000000000000e+01,1.815143999999999949e+02
3.700000000000000000e+01,1.834857599999999991e+02
3.800000000000000000e+01,1.854171900000000051e+02
3.900000000000000000e+01,1.873095399999999984e+02
4.000000000000000000e+01,1.891645399999999881e+02
4.100000000000000000e+01,1.909841800000000092e+02
4.200000000000000000e+01,1.927693800000000124e+02
4.300000000000000000e+01,1.945214499999999873e+02
4.400000000000000000e+01,1.962422200000000032e+02
4.500000000000000000e+01,1.979322999999999979e+02
4.600000000000000000e+01,1.995922199999999975e+02
4.700000000000000000e+01,2.012245000000000061e+02
4.800000000000000000e+01,2.028291000000000111e+02
4.900000000000000000e+01,2.044072400000000016e+02
5.000000000000000000e+01,2.059599000000000046e+02
5.100000000000000000e+01,2.074876899999999864e+02
5.200000000000000000e+01,2.089915599999999927e+02
5.300000000000000000e+01,2.104729199999999878e+02
5.400000000000000000e+01,2.119323100000000011e+02
5.500000000000000000e+01,2.133697200000000009e+02
5.600000000000000000e+01,2.147867400000000089e+02
5.700000000000000000e+01,2.161835499999999968e+02
5.800000000000000000e+01,2.175609000000000037e+02
5.900000000000000000e+01,2.189199999999999875e+02
6.000000000000000000e+01,2.202608299999999986e+02
6.100000000000000000e+01,2.215840599999999938e+02
6.200000000000000000e+01,2.228909899999999880e+02
6.300000000000000000e+01,2.241810000000000116e+02
6.400000000000000000e+01,2.254557599999999979e+02
6.500000000000000000e+01,2.267158499999999890e+02
6.600000000000000000e+01,2.279607699999999966e+02
6.700000000000000000e+01,2.291918499999999881e+02
6.800000000000000000e+01,2.304097099999999898e+02
6.900000000000000000e+01,2.316140000000000043e+02
7.000000000000000000e+01,2.328059399999999926e+02
7.100000000000000000e+01,2.339859600000000057e+02
7.200000000000000000e+01,2.351540099999999995e+02
7.300000000000000000e+01,2.363106099999999969e+02
7.400000000000000000e+01,2.374567700000000059e+02
7.500000000000000000e+01,2.385917499999999905e+02
7.600000000000000000e+01,2.397163199999999961e+02
7.700000000000000000e+01,2.408310099999999920e+02
7.800000000000000000e+01,2.419356799999999907e+02
7.900000000000000000e+01,2.430306899999999928e+02
8.000000000000000000e+01,2.441172500000000127e+02
8.100000000000000000e+01,2.451938600000000008e+02
8.200000000000000000e+01,2.462613499999999931e+02
8.300000000000000000e+01,2.473205100000000130e+02
8.400000000000000000e+01,2.483706099999999992e+02
8.500000000000000000e+01,2.494115099999999927e+02
8.600000000000000000e+01,2.504444599999999923e+02
8.700000000000000000e+01,2.514680199999999957e+02
8.800000000000000000e+01,2.524828200000000038e+02
8.900000000000000000e+01,2.534896400000000085e+02
9.000000000000000000e+01,2.544870899999999949e+02
9.100000000000000000e+01,2.554763499999999965e+02
9.200000000000000000e+01,2.564566699999999742e+02
9.300000000000000000e+01,2.574286200000000235e+02
9.400000000000000000e+01,2.583916300000000206e+02
9.500000000000000000e+01,2.593464399999999728e+02
9.600000000000000000e+01,2.602923299999999927e+02
9.700000000000000000e+01,2.612296400000000176e+02
9.800000000000000000e+01,2.621589999999999918e+02
9.900000000000000000e+01,2.630794999999999959e+02
1.000000000000000000e+02,2.639916099999999801e+02
1.010000000000000000e+02,2.648960299999999961e+02
1.020000000000000000e+02,2.657919299999999794e+02
1.030000000000000000e+02,2.666798400000000129e+02
1.040000000000000000e+02,2.675603600000000029e+02
1.050000000000000000e+02,2.684330100000000243e+02
1.060000000000000000e+02,2.692981300000000147e+02
1.070000000000000000e+02,2.701558200000000056e+02
1.080000000000000000e+02,2.710059800000000223e+02
1.090000000000000000e+02,2.718493000000000279e+02
1.100000000000000000e+02,2.726861000000000104e+02
1.110000000000000000e+02,2.735158400000000256e+02
1.120000000000000000e+02,2.743390200000000050e+02
1.130000000000000000e+02,2.751561300000000188e+02
1.140000000000000000e+02,2.759664000000000215e+02
1.150000000000000000e+02,2.767706900000000019e+02
1.160000000000000000e+02,2.775692700000000173e+02
1.170000000000000000e+02,2.783619100000000230e+02
1.180000000000000000e+02,2.791487999999999943e+02
1.190000000000000000e+02,2.799304799999999886e+02
1.200000000000000000e+02,2.807064199999999801e+02
1.210000000000000000e+02,2.814769900000000007e+02
1.220000000000000000e+02,2.822426800000000071e+02
1.230000000000000000e+02,2.830031999999999925e+02
1.240000000000000000e+02,2.837586999999999762e+02
1.250000000000000000e+02,2.845096700000000283e+02
1.260000000000000000e+02,2.852557400000000030e+02
1.270000000000000000e+02,2.859970999999999890e+02
1.280000000000000000e+02,2.867342499999999745e+02
1.290000000000000000e+02,2.874667099999999778e+02
1.300000000000000000e+02,2.881949500000000057e+02
1.310000000000000000e+02,2.889188500000000204e+02
1.320000000000000000e+02,2.896383999999999901e+02
1.330000000000000000e+02,2.903537600000000225e+02
1.340000000000000000e+02,2.910655499999999734e+02
1.350000000000000000e+02,2.917731600000000185e+02
1.360000000000000000e+02,2.924764700000000062e+02
1.370000000000000000e+02,2.931760899999999879e+02
1.380000000000000000e+02,2.938716699999999946e+02
1.390000000000000000e+02,2.945634499999999889e+02
1.400000000000000000e+02,2.952519199999999842e+02
1.410000000000000000e+02,2.959362499999999727e+02
1.420000000000000000e+02,2.966172500000000127e+02
1.430000000000000000e+02,2.972948299999999904e+02
1.440000000000000000e+02,2.979683200000000056e+02
1.450000000000000000e+02,2.986383099999999899e+02
1.460000000000000000e+02,2.993048699999999940e+02
1.470000000000000000e+02,2.999683200000000056e+02
1.480000000000000000e+02,3.006277799999999729e+02
1.490000000000000000e+02,3.012840600000000109e+02
1.500000000000000000e+02,3.019370400000000245e+02
1.510000000000000000e+02,3.025865800000000263e+02
1.520000000000000000e+02,3.032326400000000035e+02
1.530000000000000000e+02,3.038754299999999944e+02
1.540000000000000000e+02,3.045145600000000172e+02
1.550000000000000000e+02,3.051511800000000108e+02
1.560000000000000000e+02,3.057839099999999917e+02
1.570000000000000000e+02,3.064132999999999925e+02
1.580000000000000000e+02,3.070399800000000141e+02
1.590000000000000000e+02,3.076628099999999790e+02
1.600000000000000000e+02,3.082826800000000276e+02
1.610000000000000000e+02,3.088994099999999889e+02
1.620000000000000000e+02,3.095128799999999956e+02
1.630000000000000000e+02,3.101227099999999837e+02
1.640000000000000000e+02,3.107297399999999925e+02
1.650000000000000000e+02,3.113335000000000150e+02
1.660000000000000000e+02,3.119336500000000001e+02
1.670000000000000000e+02,3.125310699999999997e+02
1.680000000000000000e+02,3.131248800000000188e+02
1.690000000000000000e+02,3.137160299999999893e+02
1.700000000000000000e+02,3.143033800000000042e+02
1.710000000000000000e+02,3.148878199999999765e+02
1.720000000000000000e+02,3.154689900000000193e+02
1.730000000000000000e+02,3.160469100000000253e+02
1.740000000000000000e+02,3.166217700000000264e+02
1.750000000000000000e+02,3.171930199999999900e+02
1.760000000000000000e+02,3.177614399999999932e+02
1.770000000000000000e+02,3.183262300000000096e+02
1.780000000000000000e+02,3.188880300000000148e+02
1.790000000000000000e+02,3.194462599999999952e+02
1.800000000000000000e+02,3.200014600000000087e+02
1.810000000000000000e+02,3.205536200000000235e+02
1.820000000000000000e+02,3.211017200000000003e+02
1.830000000000000000e+02,3.216472499999999854e+02
1.840000000000000000e+02,3.221890599999999836e+02
1.850000000000000000e+02,3.227278699999999958e+02
1.860000000000000000e+02,3.232632100000000150e+02
1.870000000000000000e+02,3.237953499999999849e+02
1.880000000000000000e+02,3.243241600000000062e+02
1.890000000000000000e+02,3.248494600000000219e+02
1.900000000000000000e+02,3.253715199999999754e+02
1.910000000000000000e+02,3.258899200000000178e+02
1.920000000000000000e+02,3.264053999999999860e+02
1.930000000000000000e+02,3.269171799999999735e+02
1.940000000000000000e+02,3.274255400000000122e+02
1.950000000000000000e+02,3.279308500000000208e+02
1.960000000000000000e+02,3.284326500000000237e+02
1.970000000000000000e+02,3.289304200000000264e+02
1.980000000000000000e+02,3.292705100000000016e+02
1.990000000000000000e+02,3.294250499999999988e+02
2.000000000000000000e+02,3.298855899999999792e+02
2.010000000000000000e+02,3.303375500000000216e+02
2.020000000000000000e+02,3.308095999999999890e+02
2.030000000000000000e+02,3.312808499999999867e+02
2.040000000000000000e+02,3.317533900000000244e+02
2.050000000000000000e+02,3.322244900000000030e+02
2.060000000000000000e+02,3.326925699999999892e+02
2.070000000000000000e+02,3.331587799999999788e+02
2.080000000000000000e+02,3.336218600000000265e+02
2.090000000000000000e+02,3.340812099999999987e+02
2.100000000000000000e+02,3.345378999999999792e+02
2.110000000000000000e+02,3.349911500000000046e+02
2.120000000000000000e+02,3.354399999999999977e+02
2.130000000000000000e+02,3.358864699999999743e+02
2.140000000000000000e+02,3.363296799999999962e+02
2.150000000000000000e+02,3.367681000000000040e+02
2.160000000000000000e+02,3.372040400000000204e+02
2.170000000000000000e+02,3.376368400000000065e+02
2.180000000000000000e+02,3.380649999999999977e+02
2.190000000000000000e+02,3.384905699999999911e+02
2.200000000000000000e+02,3.389126899999999978e+02
2.210000000000000000e+02,3.393301399999999717e+02
2.220000000000000000e+02,3.397454200000000242e+02
2.230000000000000000e+02,3.401574400000000082e+02
2.240000000000000000e+02,3.405648199999999974e+02
2.250000000000000000e+02,3.409698799999999892e+02
2.260000000000000000e+02,3.413718600000000265e+02
2.270000000000000000e+02,3.417686800000000176e+02
2.280000000000000000e+02,3.421636399999999867e+02
2.290000000000000000e+02,3.425556599999999889e+02
2.300000000000000000e+02,3.429428700000000276e+02
2.310000000000000000e+02,3.433280300000000125e+02
2.320000000000000000e+02,3.437104199999999992e+02
2.330000000000000000e+02,3.440879499999999780e+02
2.340000000000000000e+02,3.444637099999999919e+02
2.350000000000000000e+02,3.448369099999999889e+02
2.360000000000000000e+02,3.452047999999999774e+02
2.370000000000000000e+02,3.455711999999999762e+02
2.380000000000000000e+02,3.459349100000000021e+02
2.390000000000000000e+02,3.462937600000000202e+02
2.400000000000000000e+02,3.466512099999999919e+02
2.410000000000000000e+02,3.470061600000000226e+02
2.420000000000000000e+02,3.473561100000000010e+02
2.430000000000000000e+02,3.477048599999999965e+02
2.440000000000000000e+02,3.480512100000000260e+02
2.450000000000000000e+02,3.483926700000000096e+02
2.460000000000000000e+02,3.487334000000000174e+02
2.470000000000000000e+02,3.490714100000000144e+02
2.480000000000000000e+02,3.494045399999999972e+02
2.490000000000000000e+02,3.497369400000000041e+02
2.500000000000000000e+02,3.500672000000000139e+02
2.510000000000000000e+02,3.503925199999999904e+02
2.520000000000000000e+02,3.507175899999999729e+02
2.530000000000000000e+02,3.510402199999999766e+02
2.540000000000000000e+02,3.513583699999999794e+02
2.550000000000000000e+02,3.516759599999999750e+02
2.560000000000000000e+02,3.519916400000000181e+02
2.570000000000000000e+02,3.523025799999999776e+02
2.580000000000000000e+02,3.526129799999999932e+02
2.590000000000000000e+02,3.529218399999999747e+02
2.600000000000000000e+02,3.532258299999999736e+02
2.610000000000000000e+02,3.535302399999999921e+02
2.620000000000000000e+02,3.538331000000000017e+02
2.630000000000000000e+02,3.541304600000000278e+02
2.640000000000000000e+02,3.544283399999999915e+02
2.650000000000000000e+02,3.547246999999999844e+02
2.660000000000000000e+02,3.550165099999999825e+02
2.670000000000000000e+02,3.553086900000000128e+02
2.680000000000000000e+02,3.555994299999999839e+02
2.690000000000000000e+02,3.558851900000000228e+02
2.700000000000000000e+02,3.561721200000000067e+02
2.710000000000000000e+02,3.564572800000000257e+02
2.720000000000000000e+02,3.567381599999999935e+02
2.730000000000000000e+02,3.570199900000000071e+02
2.740000000000000000e+02,3.573000799999999799e+02
2.750000000000000000e+02,3.575754999999999768e+02
2.760000000000000000e+02,3.578524499999999762e+02
2.770000000000000000e+02,3.581281999999999925e+02
2.780000000000000000e+02,3.583991100000000074e+02
2.790000000000000000e+02,3.586713300000000118e+02
2.800000000000000000e+02,3.589429600000000278e+02
2.810000000000000000e+02,3.592094700000000103e+02
2.820000000000000000e+02,3.594774499999999762e+02
2.830000000000000000e+02,3.597450600000000236e+02
2.840000000000000000e+02,3.600075699999999870e+02
2.850000000000000000e+02,3.602716699999999719e+02
2.860000000000000000e+02,3.605353700000000003e+02
2.870000000000000000e+02,3.607935800000000199e+02
2.880000000000000000e+02,3.610544699999999807e+02
2.890000000000000000e+02,3.613147599999999784e+02
2.900000000000000000e+02,3.615694599999999923e+02
2.910000000000000000e+02,3.618268699999999853e+02
2.920000000000000000e+02,3.620838299999999776e+02
2.930000000000000000e+02,3.623353599999999801e+02
2.940000000000000000e+02,3.625896900000000187e+02
2.950000000000000000e+02,3.628430500000000052e+02
2.960000000000000000e+02,3.630918300000000158e+02
2.970000000000000000e+02,3.633432300000000055e+02
2.980000000000000000e+02,3.635937500000000000e+02
2.990000000000000000e+02,3.638396299999999997e+02
3.000000000000000000e+02,3.640883499999999913e+02
3.010000000000000000e+02,3.643362700000000132e+02
3.020000000000000000e+02,3.645800199999999904e+02
3.030000000000000000e+02,3.648251300000000015e+02
3.040000000000000000e+02,3.650709499999999821e+02
3.050000000000000000e+02,3.653122599999999807e+02
3.060000000000000000e+02,3.655549899999999752e+02
3.070000000000000000e+02,3.657984900000000152e+02
3.080000000000000000e+02,3.660375399999999786e+02
3.090000000000000000e+02,3.662779800000000137e+02
3.100000000000000000e+02,3.665198700000000258e+02
3.110000000000000000e+02,3.667557100000000219e+02
3.120000000000000000e+02,3.669945700000000102e+02
3.130000000000000000e+02,3.672343099999999936e+02
3.140000000000000000e+02,3.674681400000000053e+02
3.150000000000000000e+02,3.677062099999999987e+02
3.160000000000000000e+02,3.679422599999999761e+02
3.170000000000000000e+02,3.681745900000000233e+02
3.180000000000000000e+02,3.684107099999999946e+02
3.190000000000000000e+02,3.686449000000000069e+02
3.200000000000000000e+02,3.688761900000000082e+02
3.210000000000000000e+02,3.691093799999999874e+02
3.220000000000000000e+02,3.693431400000000053e+02
3.230000000000000000e+02,3.695720499999999902e+02
3.240000000000000000e+02,3.698034400000000232e+02
3.250000000000000000e+02,3.700353400000000192e+02
3.260000000000000000e+02,3.702626300000000015e+02
3.270000000000000000e+02,3.704930400000000077e+02
3.280000000000000000e+02,3.707220199999999863e+02
3.290000000000000000e+02,3.709483900000000176e+02
3.300000000000000000e+02,3.711770300000000020e+02
3.310000000000000000e+02,3.714051799999999730e+02
3.320000000000000000e+02,3.716301000000000272e+02
3.330000000000000000e+02,3.718558699999999817e+02
3.340000000000000000e+02,3.720838299999999776e+02
3.350000000000000000e+02,3.723057900000000018e+02
3.360000000000000000e+02,3.725317400000000134e+02
3.370000000000000000e+02,3.727573199999999929e+02
3.380000000000000000e+02,3.729778099999999768e+02
3.390000000000000000e+02,3.732029699999999934e+02
3.400000000000000000e+02,3.734256599999999935e+02
3.410000000000000000e+02,3.736469999999999914e+02
3.420000000000000000e+02,3.738683800000000019e+02
3.430000000000000000e+02,3.740912799999999834e+02
3.440000000000000000e+02,3.743096300000000269e+02
3.450000000000000000e+02,3.745303999999999860e+02
3.460000000000000000e+02,3.747522000000000162e+02
3.470000000000000000e+02,3.749685099999999807e+02
3.480000000000000000e+02,3.751894199999999842e+02
3.490000000000000000e+02,3.754076499999999896e+02
3.500000000000000000e+02,3.756243600000000242e+02
3.510000000000000000e+02,3.758418899999999780e+02
3.520000000000000000e+02,3.760603899999999840e+02
3.530000000000000000e+02,3.762746900000000210e+02
3.540000000000000000e+02,3.764911200000000235e+02
3.550000000000000000e+02,3.767079200000000014e+02
3.560000000000000000e+02,3.769207200000000171e+02
3.570000000000000000e+02,3.771365400000000250e+02
3.580000000000000000e+02,3.773511700000000246e+02
3.590000000000000000e+02,3.775637199999999893e+02
3.600000000000000000e+02,3.777770699999999806e+02
3.610000000000000000e+02,3.779911799999999857e+02
3.620000000000000000e+02,3.782004400000000146e+02
3.630000000000000000e+02,3.784139999999999873e+02
3.640000000000000000e+02,3.786246600000000058e+02
3.650000000000000000e+02,3.788354199999999992e+02
3.660000000000000000e+02,3.790448299999999904e+02
3.670000000000000000e+02,3.792559800000000223e+02
3.680000000000000000e+02,3.794637799999999856e+02
3.690000000000000000e+02,3.796728499999999826e+02
3.700000000000000000e+02,3.798823499999999740e+02
3.710000000000000000e+02,3.800873100000000022e+02
3.720000000000000000e+02,3.802965699999999742e+02
3.730000000000000000e+02,3.805024700000000166e+02
3.740000000000000000e+02,3.807090099999999779e+02
3.750000000000000000e+02,3.809134799999999927e+02
3.760000000000000000e+02,3.811209999999999809e+02
3.770000000000000000e+02,3.813228100000000040e+02
3.780000000000000000e+02,3.815290800000000218e+02
3.790000000000000000e+02,3.817317800000000148e+02
3.800000000000000000e+02,3.819353300000000218e+02
3.810000000000000000e+02,3.821368400000000065e+02
3.820000000000000000e+02,3.823401200000000131e+02
3.830000000000000000e+02,3.825399800000000141e+02
3.840000000000000000e+02,3.827416699999999992e+02
3.850000000000000000e+02,3.829421699999999760e+02
3.860000000000000000e+02,3.831415999999999826e+02
3.870000000000000000e+02,3.833408499999999890e+02
3.880000000000000000e+02,3.835407700000000091e+02
3.890000000000000000e+02,3.837374599999999987e+02
3.900000000000000000e+02,3.839361900000000105e+02
3.910000000000000000e+02,3.841333000000000197e+02
3.920000000000000000e+02,3.843296199999999772e+02
3.930000000000000000e+02,3.845254800000000159e+02
3.940000000000000000e+02,3.844922500000000127e+02
3.950000000000000000e+02,3.836368100000000254e+02
3.960000000000000000e+02,3.837694099999999935e+02
3.970000000000000000e+02,3.838232699999999795e+02
3.980000000000000000e+02,3.839673500000000104e+02
3.990000000000000000e+02,3.841131899999999746e+02
