# Time [s], Convective Heat Transfer Coefficient [W/m2K]
1.000000000000000000e+00,0.000000000000000000e+00
2.000000000000000000e+00,0.000000000000000000e+00
3.000000000000000000e+00,0.000000000000000000e+00
4.000000000000000000e+00,0.000000000000000000e+00
5.000000000000000000e+00,1.915079995362458862e-02
6.000000000000000000e+00,3.380449737731881787e-02
7.000000000000000000e+00,5.599727877995352293e-02
8.000000000000000000e+00,8.502035959797628328e-02
9.000000000000000000e+00,1.221516601768705690e-01
1.000000000000000000e+01,1.674508630918582486e-01
1.100000000000000000e+01,2.208419195072131025e-01
1.200000000000000000e+01,2.816932176753557115e-01
1.300000000000000000e+01,3.492932406771629972e-01
1.400000000000000000e+01,4.227569001104173885e-01
1.500000000000000000e+01,5.012135376459064817e-01
1.600000000000000000e+01,5.838067490941675208e-01
1.700000000000000000e+01,6.697277757325401648e-01
1.800000000000000000e+01,7.582876648822587384e-01
1.900000000000000000e+01,8.488573339577711874e-01
2.000000000000000000e+01,9.409002854824839446e-01
2.100000000000000000e+01,1.033959275333504291e+00
2.200000000000000000e+01,1.127640737725817299e+00
2.300000000000000000e+01,1.221617798035432800e+00
2.400000000000000000e+01,1.315608283780461685e+00
2.500000000000000000e+01,1.409378952687412978e+00
2.600000000000000000e+01,1.502742295162522668e+00
2.700000000000000000e+01,1.595535247898181908e+00
2.800000000000000000e+01,1.687628384581030039e+00
2.900000000000000000e+01,1.778911368273629945e+00
3.000000000000000000e+01,1.869299548519793630e+00
3.100000000000000000e+01,1.958721624470227685e+00
3.200000000000000000e+01,2.047123307423403649e+00
3.300000000000000000e+01,2.134456932308332000e+00
3.400000000000000000e+01,2.220692659396734214e+00
3.500000000000000000e+01,2.305808645006693691e+00
3.600000000000000000e+01,2.389788244236100034e+00
3.700000000000000000e+01,2.472620588756854421e+00
3.800000000000000000e+01,2.554299383264453827e+00
3.900000000000000000e+01,2.634823710231352312e+00
4.000000000000000000e+01,2.714203885904929336e+00
4.100000000000000000e+01,2.792436484890706172e+00
4.200000000000000000e+01,2.869532973158822831e+00
4.300000000000000000e+01,2.945507083380275670e+00
4.400000000000000000e+01,3.020368349355069704e+00
4.500000000000000000e+01,3.094129695770315713e+00
4.600000000000000000e+01,3.166812069810565067e+00
4.700000000000000000e+01,3.238425416441148119e+00
4.800000000000000000e+01,3.308991973224436389e+00
4.900000000000000000e+01,3.378525268822355265e+00
5.000000000000000000e+01,3.447043802545078250e+00
5.100000000000000000e+01,3.514566193904685498e+00
5.200000000000000000e+01,3.581108132205955474e+00
5.300000000000000000e+01,3.646691697518979147e+00
5.400000000000000000e+01,3.711332369760091510e+00
5.500000000000000000e+01,3.775048360623096677e+00
5.600000000000000000e+01,3.837857575736314697e+00
5.700000000000000000e+01,3.899777542285339127e+00
5.800000000000000000e+01,3.960826775686438594e+00
5.900000000000000000e+01,4.021022869155928881e+00
6.000000000000000000e+01,4.080381342359575392e+00
6.100000000000000000e+01,4.138920430549571705e+00
6.200000000000000000e+01,4.196655988359251133e+00
6.300000000000000000e+01,4.253603875727093531e+00
6.400000000000000000e+01,4.309779078541879471e+00
6.500000000000000000e+01,4.365197853929523752e+00
6.600000000000000000e+01,4.419879922162286867e+00
6.700000000000000000e+01,4.473834790026141484e+00
6.800000000000000000e+01,4.527077186204616410e+00
6.900000000000000000e+01,4.579626093185764191e+00
7.000000000000000000e+01,4.631489615938757964e+00
7.100000000000000000e+01,4.682683327191573319e+00
7.200000000000000000e+01,4.733224168068873361e+00
7.300000000000000000e+01,4.783119077440572298e+00
7.400000000000000000e+01,4.832385687077142222e+00
7.500000000000000000e+01,4.881034336481299363e+00
7.600000000000000000e+01,4.929076184828087293e+00
7.700000000000000000e+01,4.976526802957181417e+00
7.800000000000000000e+01,5.023392759784937489e+00
7.900000000000000000e+01,5.069690010152000603e+00
8.000000000000000000e+01,5.115426582456978011e+00
8.100000000000000000e+01,5.160614162375047442e+00
8.200000000000000000e+01,5.205262109493867584e+00
8.300000000000000000e+01,5.249381594544058949e+00
8.400000000000000000e+01,5.292982392119032653e+00
8.500000000000000000e+01,5.336073767547186542e+00
8.600000000000000000e+01,5.378667909480522979e+00
8.700000000000000000e+01,5.420770814044847619e+00
8.800000000000000000e+01,5.462391931627871067e+00
8.900000000000000000e+01,5.503542202571667374e+00
9.000000000000000000e+01,5.544227927231564657e+00
9.100000000000000000e+01,5.584457402541804782e+00
9.200000000000000000e+01,5.624240850654378399e+00
9.300000000000000000e+01,5.663585392353327919e+00
9.400000000000000000e+01,5.702497344314324756e+00
9.500000000000000000e+01,5.740987242352426634e+00
9.600000000000000000e+01,5.779060097786444139e+00
9.700000000000000000e+01,5.816723330715179330e+00
9.800000000000000000e+01,5.853985862709933485e+00
9.900000000000000000e+01,5.890853535300096588e+00
1.000000000000000000e+02,5.927331797573889283e+00
1.010000000000000000e+02,5.963429019856322455e+00
1.020000000000000000e+02,5.999151537316018690e+00
1.030000000000000000e+02,6.034506115593385900e+00
1.040000000000000000e+02,6.069496779432412836e+00
1.050000000000000000e+02,6.104131502091924233e+00
1.060000000000000000e+02,6.138415956894393233e+00
1.070000000000000000e+02,6.172356163460068323e+00
1.080000000000000000e+02,6.205955641916489185e+00
1.090000000000000000e+02,6.239222071116672375e+00
1.100000000000000000e+02,6.272160404269192746e+00
1.110000000000000000e+02,6.304776338236901978e+00
1.120000000000000000e+02,6.337072748374079190e+00
1.130000000000000000e+02,6.369057159868555473e+00
1.140000000000000000e+02,6.400733745428707877e+00
1.150000000000000000e+02,6.432107960160782234e+00
1.160000000000000000e+02,6.463182332404457497e+00
1.170000000000000000e+02,6.493963791905916771e+00
1.180000000000000000e+02,6.524455901506992284e+00
1.190000000000000000e+02,6.554664271708144696e+00
1.200000000000000000e+02,6.584590797772666981e+00
1.210000000000000000e+02,6.614242389121252508e+00
1.220000000000000000e+02,6.643621464756353845e+00
1.230000000000000000e+02,6.672734037326850220e+00
1.240000000000000000e+02,6.701580696294755946e+00
1.250000000000000000e+02,6.730167693315223687e+00
1.260000000000000000e+02,6.758499272300046989e+00
1.270000000000000000e+02,6.786578261877787455e+00
1.280000000000000000e+02,6.814407646089919446e+00
1.290000000000000000e+02,6.841992808646613078e+00
1.300000000000000000e+02,6.869336972346478554e+00
1.310000000000000000e+02,6.896442515481292723e+00
1.320000000000000000e+02,6.923312470090769111e+00
1.330000000000000000e+02,6.949952193352779695e+00
1.340000000000000000e+02,6.976363747971652707e+00
1.350000000000000000e+02,7.002550800704312906e+00
1.360000000000000000e+02,7.028515008665713992e+00
1.370000000000000000e+02,7.054261268265574536e+00
1.380000000000000000e+02,7.079791993378226955e+00
1.390000000000000000e+02,7.105109291543628913e+00
1.400000000000000000e+02,7.130217047133338149e+00
1.410000000000000000e+02,7.155118344490214888e+00
1.420000000000000000e+02,7.179815041884719307e+00
1.430000000000000000e+02,7.204309843395471979e+00
1.440000000000000000e+02,7.228606494573283747e+00
1.450000000000000000e+02,7.252706632626635397e+00
1.460000000000000000e+02,7.276612951347862790e+00
1.470000000000000000e+02,7.300329386487981687e+00
1.480000000000000000e+02,7.323856929741271671e+00
1.490000000000000000e+02,7.347198059911287160e+00
1.500000000000000000e+02,7.370356480610212202e+00
1.510000000000000000e+02,7.393333870221514559e+00
1.520000000000000000e+02,7.416131434609531503e+00
1.530000000000000000e+02,7.438752460126902832e+00
1.540000000000000000e+02,7.461199096918949891e+00
1.550000000000000000e+02,7.483472602274599872e+00
1.560000000000000000e+02,7.505577107488060840e+00
1.570000000000000000e+02,7.527513129984517271e+00
1.580000000000000000e+02,7.549282607749890239e+00
1.590000000000000000e+02,7.570888858669642119e+00
1.600000000000000000e+02,7.592332683371736834e+00
1.610000000000000000e+02,7.613616071038273425e+00
1.620000000000000000e+02,7.634741764834752864e+00
1.630000000000000000e+02,7.655710844791580705e+00
1.640000000000000000e+02,7.676525752963668126e+00
1.650000000000000000e+02,7.697187885962198273e+00
1.660000000000000000e+02,7.717698409193173070e+00
1.670000000000000000e+02,7.738061000030775460e+00
1.680000000000000000e+02,7.758275753569979116e+00
1.690000000000000000e+02,7.778344886505959010e+00
1.700000000000000000e+02,7.798270180407635976e+00
1.710000000000000000e+02,7.818052035434937430e+00
1.720000000000000000e+02,7.837693697462042586e+00
1.730000000000000000e+02,7.857194930114995479e+00
1.740000000000000000e+02,7.876559459529747009e+00
1.750000000000000000e+02,7.895787554840866918e+00
1.760000000000000000e+02,7.914881157405443624e+00
1.770000000000000000e+02,7.933841051233454955e+00
1.780000000000000000e+02,7.952668926612511235e+00
1.790000000000000000e+02,7.971366621997065138e+00
1.800000000000000000e+02,7.989934287103003463e+00
1.810000000000000000e+02,8.008374802575922047e+00
1.820000000000000000e+02,8.026687721795275010e+00
1.830000000000000000e+02,8.044876219603940726e+00
1.840000000000000000e+02,8.062940168674728625e+00
1.850000000000000000e+02,8.080881949699104894e+00
1.860000000000000000e+02,8.098701220321771643e+00
1.870000000000000000e+02,8.116401016546170410e+00
1.880000000000000000e+02,8.133980602382926861e+00
1.890000000000000000e+02,8.151443126511441761e+00
1.900000000000000000e+02,8.168788347157898144e+00
1.910000000000000000e+02,8.186018468601311326e+00
1.920000000000000000e+02,8.203133393115834338e+00
1.930000000000000000e+02,8.220135099886059393e+00
1.940000000000000000e+02,8.237023979184812106e+00
1.950000000000000000e+02,8.253800755053934068e+00
1.960000000000000000e+02,8.270468189956460492e+00
1.970000000000000000e+02,8.287024907719384714e+00
1.980000000000000000e+02,8.303473795136834923e+00
1.990000000000000000e+02,8.319814815158302679e+00
2.000000000000000000e+02,8.336049275634859868e+00
2.010000000000000000e+02,8.352178460830517182e+00
2.020000000000000000e+02,8.368201458882525756e+00
2.030000000000000000e+02,8.384122031370655037e+00
2.040000000000000000e+02,8.399938570918873637e+00
2.050000000000000000e+02,8.415652631476996604e+00
2.060000000000000000e+02,8.431266070036947724e+00
2.070000000000000000e+02,8.446778580229805655e+00
2.080000000000000000e+02,8.462191655272098600e+00
2.090000000000000000e+02,8.477505460611324040e+00
2.100000000000000000e+02,8.492720480868664268e+00
2.110000000000000000e+02,8.507838484474731899e+00
2.120000000000000000e+02,8.522859439172997043e+00
2.130000000000000000e+02,8.537784113144555320e+00
2.140000000000000000e+02,8.552613901045164724e+00
2.150000000000000000e+02,8.567348421051024232e+00
2.160000000000000000e+02,8.581989359871986522e+00
2.170000000000000000e+02,8.596536477596323778e+00
2.180000000000000000e+02,8.610991902745299242e+00
2.190000000000000000e+02,8.625354900362101063e+00
2.200000000000000000e+02,8.639625997047936323e+00
2.210000000000000000e+02,8.653807272769483916e+00
2.220000000000000000e+02,8.667897661506234641e+00
2.230000000000000000e+02,8.681898437825864789e+00
2.240000000000000000e+02,8.695809773515764007e+00
2.250000000000000000e+02,8.709633069955561524e+00
2.260000000000000000e+02,8.723368477474817695e+00
2.270000000000000000e+02,8.737016601897069634e+00
2.280000000000000000e+02,8.750578038843048745e+00
2.290000000000000000e+02,8.764052916722205211e+00
2.300000000000000000e+02,8.778112581653603641e+00
2.310000000000000000e+02,8.791659398314290996e+00
2.320000000000000000e+02,8.805010889654365513e+00
2.330000000000000000e+02,8.818243883843059905e+00
2.340000000000000000e+02,8.831370190946756793e+00
2.350000000000000000e+02,8.844396986312696995e+00
2.360000000000000000e+02,8.857328969301972776e+00
2.370000000000000000e+02,8.870169739331208447e+00
2.380000000000000000e+02,8.882921367327279327e+00
2.390000000000000000e+02,8.895586045253166319e+00
2.400000000000000000e+02,8.908165937171931503e+00
2.410000000000000000e+02,8.920661708925255340e+00
2.420000000000000000e+02,8.933074309533262536e+00
2.430000000000000000e+02,8.945405406224166356e+00
2.440000000000000000e+02,8.957655332287783878e+00
2.450000000000000000e+02,8.969824996775393799e+00
2.460000000000000000e+02,8.981915006164401305e+00
2.470000000000000000e+02,8.993926536779889958e+00
2.480000000000000000e+02,9.005859451004370797e+00
2.490000000000000000e+02,9.017714761852587912e+00
2.500000000000000000e+02,9.029493182164024745e+00
2.510000000000000000e+02,9.041194126162963585e+00
2.520000000000000000e+02,9.052818725779134823e+00
2.530000000000000000e+02,9.064367671568323459e+00
2.540000000000000000e+02,9.075840507847809491e+00
2.550000000000000000e+02,9.087237631735764154e+00
2.560000000000000000e+02,9.098559716841613465e+00
2.570000000000000000e+02,9.109807145660722583e+00
2.580000000000000000e+02,9.120980294625878670e+00
2.590000000000000000e+02,9.132078691997071118e+00
2.600000000000000000e+02,9.143103268596078692e+00
2.610000000000000000e+02,9.154054385216118916e+00
2.620000000000000000e+02,9.164931839484388831e+00
2.630000000000000000e+02,9.175736540949227305e+00
2.640000000000000000e+02,9.186468278667494047e+00
2.650000000000000000e+02,9.197127810133405745e+00
2.660000000000000000e+02,9.207715193237611118e+00
2.670000000000000000e+02,9.218230483107802797e+00
2.680000000000000000e+02,9.228674007019302294e+00
2.690000000000000000e+02,9.239046224192403400e+00
2.700000000000000000e+02,9.249347040187640090e+00
2.710000000000000000e+02,9.259577041827295574e+00
2.720000000000000000e+02,9.269736263627246231e+00
2.730000000000000000e+02,9.279825281331996578e+00
2.740000000000000000e+02,9.289843849652454466e+00
2.750000000000000000e+02,9.299792670669575045e+00
2.760000000000000000e+02,9.309671898030426718e+00
2.770000000000000000e+02,9.319481681910788851e+00
2.780000000000000000e+02,9.329222303553171614e+00
2.790000000000000000e+02,9.338893771251573384e+00
2.800000000000000000e+02,9.348496225007654203e+00
2.810000000000000000e+02,9.358030737207149841e+00
2.820000000000000000e+02,9.367497035370401903e+00
2.830000000000000000e+02,9.376895113360163236e+00
2.840000000000000000e+02,9.386225361556650881e+00
2.850000000000000000e+02,9.395488165109854961e+00
2.860000000000000000e+02,9.404683771675365733e+00
2.870000000000000000e+02,9.413811896502521037e+00
2.880000000000000000e+02,9.422872782277540438e+00
2.890000000000000000e+02,9.431867851984019779e+00
2.900000000000000000e+02,9.440795494927879616e+00
2.910000000000000000e+02,9.449657256675235928e+00
2.920000000000000000e+02,9.458452837256013268e+00
2.930000000000000000e+02,9.467182198068758936e+00
2.940000000000000000e+02,9.475846211286427234e+00
2.950000000000000000e+02,9.484445220128668197e+00
2.960000000000000000e+02,9.492978264316020542e+00
2.970000000000000000e+02,9.501446203723716621e+00
2.980000000000000000e+02,9.509849631167433870e+00
2.990000000000000000e+02,9.518187711930615080e+00
3.000000000000000000e+02,9.526461291907207141e+00
3.010000000000000000e+02,9.534670565254748098e+00
3.020000000000000000e+02,9.542815594226235376e+00
3.030000000000000000e+02,9.550896566953623434e+00
3.040000000000000000e+02,9.558913540163404221e+00
3.050000000000000000e+02,9.566866951879569925e+00
3.060000000000000000e+02,9.574756724454932311e+00
3.070000000000000000e+02,9.582582778745186047e+00
3.080000000000000000e+02,9.590345543198919742e+00
3.090000000000000000e+02,9.598045441486602769e+00
3.100000000000000000e+02,9.605682258237704829e+00
3.110000000000000000e+02,9.613256030792788565e+00
3.120000000000000000e+02,9.620767553079071277e+00
3.130000000000000000e+02,9.628216223076886848e+00
3.140000000000000000e+02,9.635602953477357957e+00
3.150000000000000000e+02,9.642926886957972954e+00
3.160000000000000000e+02,9.650189054916943121e+00
3.170000000000000000e+02,9.657388974426169170e+00
3.180000000000000000e+02,9.664527291412495558e+00
3.190000000000000000e+02,9.671603644875760963e+00
3.200000000000000000e+02,9.678618423738027943e+00
3.210000000000000000e+02,9.685571638354932844e+00
3.220000000000000000e+02,9.692464044702958859e+00
3.230000000000000000e+02,9.699294899361863287e+00
3.240000000000000000e+02,9.706064579459244612e+00
3.250000000000000000e+02,9.712773830322733559e+00
3.260000000000000000e+02,9.719422276001585814e+00
3.270000000000000000e+02,9.726009540673850040e+00
3.280000000000000000e+02,9.732536731585833323e+00
3.290000000000000000e+02,9.739003467111555068e+00
3.300000000000000000e+02,9.745409735501908699e+00
3.310000000000000000e+02,9.751756015523127985e+00
3.320000000000000000e+02,9.758042412727208514e+00
3.330000000000000000e+02,9.764268661878572786e+00
3.340000000000000000e+02,9.770435600807523713e+00
3.350000000000000000e+02,9.776542836505379697e+00
3.360000000000000000e+02,9.782590954601520394e+00
3.370000000000000000e+02,9.788579436409820644e+00
3.380000000000000000e+02,9.794508862098242119e+00
3.390000000000000000e+02,9.800379319635199593e+00
3.400000000000000000e+02,9.806191138163592669e+00
3.410000000000000000e+02,9.811943792276876408e+00
3.420000000000000000e+02,9.817638578892175616e+00
3.430000000000000000e+02,9.823274603499511315e+00
3.440000000000000000e+02,9.828852670252102186e+00
3.450000000000000000e+02,9.834373093672578392e+00
3.460000000000000000e+02,9.839835338747668914e+00
3.470000000000000000e+02,9.845239837160695728e+00
3.480000000000000000e+02,9.850587378789036563e+00
3.490000000000000000e+02,9.855877181682693333e+00
3.500000000000000000e+02,9.861110271152266904e+00
3.510000000000000000e+02,9.866286343576662787e+00
3.520000000000000000e+02,9.871405815610431844e+00
3.530000000000000000e+02,9.876469340426622168e+00
3.540000000000000000e+02,9.881476128165026296e+00
3.550000000000000000e+02,9.886427426414453379e+00
3.560000000000000000e+02,9.891322920640334360e+00
3.570000000000000000e+02,9.896163013016485266e+00
3.580000000000000000e+02,9.900947624782112655e+00
3.590000000000000000e+02,9.905677749478504879e+00
3.600000000000000000e+02,9.910352825750580408e+00
3.610000000000000000e+02,9.914973364377157594e+00
3.620000000000000000e+02,9.919540110504419417e+00
3.630000000000000000e+02,9.924052735182943508e+00
3.640000000000000000e+02,9.928511977801431243e+00
3.650000000000000000e+02,9.932918217550165352e+00
3.660000000000000000e+02,9.937271475070872384e+00
3.670000000000000000e+02,9.941572006243843518e+00
3.680000000000000000e+02,9.945820537860083022e+00
3.690000000000000000e+02,9.950017437982955570e+00
3.700000000000000000e+02,9.954162008666203931e+00
3.710000000000000000e+02,9.958255677549427531e+00
3.720000000000000000e+02,9.962298450723409360e+00
3.730000000000000000e+02,9.966290568509577952e+00
3.740000000000000000e+02,9.970232622291963054e+00
3.750000000000000000e+02,9.974125317831193271e+00
3.760000000000000000e+02,9.977968651833737823e+00
3.770000000000000000e+02,9.981762854618551728e+00
3.780000000000000000e+02,9.985508624038502035e+00
3.790000000000000000e+02,9.989206067948920520e+00
3.800000000000000000e+02,9.992856464840325970e+00
3.810000000000000000e+02,9.996459096761210361e+00
3.820000000000000000e+02,1.000001523656771774e+01
3.830000000000000000e+02,1.000352498247292488e+01
3.840000000000000000e+02,1.000698866498611572e+01
3.850000000000000000e+02,1.001040731339439382e+01
3.860000000000000000e+02,1.001378066888529617e+01
3.870000000000000000e+02,1.001710952212895656e+01
3.880000000000000000e+02,1.002039454397183604e+01
3.890000000000000000e+02,1.002363616938121993e+01
3.900000000000000000e+02,1.002683471468700205e+01
3.910000000000000000e+02,1.002999084343472447e+01
3.920000000000000000e+02,1.003310486759848708e+01
3.930000000000000000e+02,1.003617732979906130e+01
3.940000000000000000e+02,1.003920877033604775e+01
3.950000000000000000e+02,1.004220019155080124e+01
3.960000000000000000e+02,1.004515120034569442e+01
3.970000000000000000e+02,1.004810731688225900e+01
3.980000000000000000e+02,1.005100213554556454e+01
