# Time [s], Temperature [C]
1.000000000000000000e+00,2.499997300000000067e+01
2.000000000000000000e+00,6.362796000000000163e+01
3.000000000000000000e+00,8.519381699999999569e+01
4.000000000000000000e+00,1.025754600000000067e+02
5.000000000000000000e+00,1.170082299999999975e+02
6.000000000000000000e+00,1.296160900000000140e+02
7.000000000000000000e+00,1.408563699999999983e+02
8.000000000000000000e+00,1.510560800000000086e+02
9.000000000000000000e+00,1.604219400000000064e+02
1.000000000000000000e+01,1.690985599999999920e+02
1.100000000000000000e+01,1.771964700000000050e+02
1.200000000000000000e+01,1.847957800000000077e+02
1.300000000000000000e+01,1.919628299999999967e+02
1.400000000000000000e+01,1.987479999999999905e+02
1.500000000000000000e+01,2.051959200000000010e+02
1.600000000000000000e+01,2.113395199999999932e+02
1.700000000000000000e+01,2.172114599999999882e+02
1.800000000000000000e+01,2.228360700000000065e+02
1.900000000000000000e+01,2.282385600000000068e+02
2.000000000000000000e+01,2.334384200000000078e+02
2.100000000000000000e+01,2.384558900000000108e+02
2.200000000000000000e+01,2.433058299999999861e+02
2.300000000000000000e+01,2.480049600000000112e+02
2.400000000000000000e+01,2.525632500000000107e+02
2.500000000000000000e+01,2.569908800000000042e+02
2.600000000000000000e+01,2.612866500000000087e+02
2.700000000000000000e+01,2.654562700000000177e+02
2.800000000000000000e+01,2.694934099999999830e+02
2.900000000000000000e+01,2.734055799999999863e+02
3.000000000000000000e+01,2.771886900000000082e+02
3.100000000000000000e+01,2.808491500000000087e+02
3.200000000000000000e+01,2.843943800000000124e+02
3.300000000000000000e+01,2.878241600000000062e+02
3.400000000000000000e+01,2.911472800000000234e+02
3.500000000000000000e+01,2.943735699999999724e+02
3.600000000000000000e+01,2.974952400000000239e+02
3.700000000000000000e+01,3.005195299999999747e+02
3.800000000000000000e+01,3.034623399999999833e+02
3.900000000000000000e+01,3.063027599999999779e+02
4.000000000000000000e+01,3.090510300000000257e+02
4.100000000000000000e+01,3.117311700000000201e+02
4.200000000000000000e+01,3.143096600000000080e+02
4.300000000000000000e+01,3.167951400000000035e+02
4.400000000000000000e+01,3.192291900000000169e+02
4.500000000000000000e+01,3.215529799999999909e+02
4.600000000000000000e+01,3.237892200000000003e+02
4.700000000000000000e+01,3.259970999999999890e+02
4.800000000000000000e+01,3.280878299999999967e+02
4.900000000000000000e+01,3.300927399999999921e+02
5.000000000000000000e+01,3.321053200000000061e+02
5.100000000000000000e+01,3.339899599999999964e+02
5.200000000000000000e+01,3.358010300000000257e+02
5.300000000000000000e+01,3.376642200000000003e+02
5.400000000000000000e+01,3.393834200000000010e+02
5.500000000000000000e+01,3.410450700000000097e+02
5.600000000000000000e+01,3.428071299999999724e+02
5.700000000000000000e+01,3.444095800000000054e+02
5.800000000000000000e+01,3.459702800000000025e+02
5.900000000000000000e+01,3.476844199999999887e+02
6.000000000000000000e+01,3.492128599999999778e+02
6.100000000000000000e+01,3.507185699999999997e+02
6.200000000000000000e+01,3.524230699999999956e+02
6.300000000000000000e+01,3.539130200000000173e+02
6.400000000000000000e+01,3.553976400000000240e+02
6.500000000000000000e+01,3.571200299999999856e+02
6.600000000000000000e+01,3.585930799999999863e+02
6.700000000000000000e+01,3.600788299999999822e+02
6.800000000000000000e+01,3.618294399999999769e+02
6.900000000000000000e+01,3.632966299999999933e+02
7.000000000000000000e+01,3.647948299999999904e+02
7.100000000000000000e+01,3.665755300000000148e+02
7.200000000000000000e+01,3.680389700000000062e+02
7.300000000000000000e+01,3.695510300000000257e+02
7.400000000000000000e+01,3.713470199999999863e+02
7.500000000000000000e+01,3.728059400000000210e+02
7.600000000000000000e+01,3.743265700000000038e+02
7.700000000000000000e+01,3.761263999999999896e+02
7.800000000000000000e+01,3.775744900000000257e+02
7.900000000000000000e+01,3.790973500000000058e+02
8.000000000000000000e+01,3.808812300000000164e+02
8.100000000000000000e+01,3.823215299999999957e+02
8.200000000000000000e+01,3.838372800000000211e+02
8.300000000000000000e+01,3.855957599999999843e+02
8.400000000000000000e+01,3.870179699999999912e+02
8.500000000000000000e+01,3.885240200000000073e+02
8.600000000000000000e+01,3.902511900000000082e+02
8.700000000000000000e+01,3.916574699999999893e+02
8.800000000000000000e+01,3.931480399999999804e+02
8.900000000000000000e+01,3.948367600000000266e+02
9.000000000000000000e+01,3.962229300000000194e+02
9.100000000000000000e+01,3.977067900000000122e+02
9.200000000000000000e+01,3.993348100000000045e+02
9.300000000000000000e+01,4.007161300000000210e+02
9.400000000000000000e+01,4.021705299999999852e+02
9.500000000000000000e+01,4.037569899999999734e+02
9.600000000000000000e+01,4.051133699999999749e+02
9.700000000000000000e+01,4.065291100000000029e+02
9.800000000000000000e+01,4.080868500000000267e+02
9.900000000000000000e+01,4.094053999999999860e+02
1.000000000000000000e+02,4.108056000000000267e+02
1.010000000000000000e+02,4.122915600000000040e+02
1.020000000000000000e+02,4.136000999999999976e+02
1.030000000000000000e+02,4.149547699999999963e+02
1.040000000000000000e+02,4.164089999999999918e+02
1.050000000000000000e+02,4.176735800000000154e+02
1.060000000000000000e+02,4.190062899999999786e+02
1.070000000000000000e+02,4.203936499999999796e+02
1.080000000000000000e+02,4.216577100000000087e+02
1.090000000000000000e+02,4.229418900000000008e+02
1.100000000000000000e+02,4.242907400000000280e+02
1.110000000000000000e+02,4.255247200000000021e+02
1.120000000000000000e+02,4.267721300000000042e+02
1.130000000000000000e+02,4.280930200000000241e+02
1.140000000000000000e+02,4.292721300000000042e+02
1.150000000000000000e+02,4.305228599999999801e+02
1.160000000000000000e+02,4.317662399999999820e+02
1.170000000000000000e+02,4.329585000000000150e+02
1.180000000000000000e+02,4.341347999999999843e+02
1.190000000000000000e+02,4.353845200000000091e+02
1.200000000000000000e+02,4.365040599999999813e+02
1.210000000000000000e+02,4.376838700000000131e+02
1.220000000000000000e+02,4.388677999999999884e+02
1.230000000000000000e+02,4.399950600000000236e+02
1.240000000000000000e+02,4.411151100000000156e+02
1.250000000000000000e+02,4.422834500000000162e+02
1.260000000000000000e+02,4.433642300000000205e+02
1.270000000000000000e+02,4.444750999999999976e+02
1.280000000000000000e+02,4.455982399999999757e+02
1.290000000000000000e+02,4.466686700000000201e+02
1.300000000000000000e+02,4.477429799999999886e+02
1.310000000000000000e+02,4.488351400000000240e+02
1.320000000000000000e+02,4.498794300000000135e+02
1.330000000000000000e+02,4.509345400000000268e+02
1.340000000000000000e+02,4.519878499999999804e+02
1.350000000000000000e+02,4.530081200000000194e+02
1.360000000000000000e+02,4.540369600000000219e+02
1.370000000000000000e+02,4.550671399999999949e+02
1.380000000000000000e+02,4.560740400000000250e+02
1.390000000000000000e+02,4.570580400000000054e+02
1.400000000000000000e+02,4.580866399999999885e+02
1.410000000000000000e+02,4.590298799999999915e+02
1.420000000000000000e+02,4.678460400000000163e+02
1.430000000000000000e+02,4.527312600000000202e+02
1.440000000000000000e+02,4.613434799999999996e+02
1.450000000000000000e+02,4.555967099999999732e+02
1.460000000000000000e+02,4.617287600000000225e+02
1.470000000000000000e+02,4.582094999999999914e+02
1.480000000000000000e+02,4.630313400000000001e+02
1.490000000000000000e+02,4.606129199999999742e+02
1.500000000000000000e+02,4.646323899999999867e+02
1.510000000000000000e+02,4.628394200000000183e+02
1.520000000000000000e+02,4.663371000000000208e+02
1.530000000000000000e+02,4.649870599999999854e+02
1.540000000000000000e+02,4.680597200000000271e+02
1.550000000000000000e+02,4.670355200000000195e+02
1.560000000000000000e+02,4.698244300000000067e+02
1.570000000000000000e+02,4.690033599999999865e+02
1.580000000000000000e+02,4.715882300000000100e+02
1.590000000000000000e+02,4.709236799999999903e+02
1.600000000000000000e+02,4.733168900000000008e+02
1.610000000000000000e+02,4.728136600000000271e+02
1.620000000000000000e+02,4.750387600000000248e+02
1.630000000000000000e+02,4.746400499999999738e+02
1.640000000000000000e+02,4.767561999999999784e+02
1.650000000000000000e+02,4.764306599999999889e+02
1.660000000000000000e+02,4.784378699999999753e+02
1.670000000000000000e+02,4.782005599999999959e+02
1.680000000000000000e+02,4.801115399999999909e+02
1.690000000000000000e+02,4.799065899999999942e+02
1.700000000000000000e+02,4.817722499999999854e+02
1.710000000000000000e+02,4.816050399999999740e+02
1.720000000000000000e+02,4.833927299999999718e+02
1.730000000000000000e+02,4.832772199999999998e+02
1.740000000000000000e+02,4.850012500000000273e+02
1.750000000000000000e+02,4.849129899999999793e+02
1.760000000000000000e+02,4.866031500000000278e+02
1.770000000000000000e+02,4.865233499999999935e+02
1.780000000000000000e+02,4.881650099999999952e+02
1.790000000000000000e+02,4.881065399999999954e+02
1.800000000000000000e+02,4.897222899999999868e+02
1.810000000000000000e+02,4.896570399999999950e+02
1.820000000000000000e+02,4.912699900000000071e+02
1.830000000000000000e+02,4.911937599999999975e+02
1.840000000000000000e+02,4.927815200000000004e+02
1.850000000000000000e+02,4.927094999999999914e+02
1.860000000000000000e+02,4.942835699999999974e+02
1.870000000000000000e+02,4.941904599999999732e+02
1.880000000000000000e+02,4.957738299999999754e+02
1.890000000000000000e+02,4.956555799999999863e+02
1.900000000000000000e+02,4.972373999999999796e+02
1.910000000000000000e+02,4.971032400000000280e+02
1.920000000000000000e+02,4.986916800000000194e+02
1.930000000000000000e+02,4.985251499999999965e+02
1.940000000000000000e+02,5.001300400000000081e+02
1.950000000000000000e+02,4.999323099999999727e+02
1.960000000000000000e+02,5.015449800000000096e+02
1.970000000000000000e+02,5.013151899999999728e+02
1.980000000000000000e+02,5.029563600000000179e+02
1.990000000000000000e+02,5.026669899999999984e+02
2.000000000000000000e+02,5.043554700000000253e+02
2.010000000000000000e+02,5.040076900000000251e+02
2.020000000000000000e+02,5.057223200000000247e+02
2.030000000000000000e+02,5.053367000000000075e+02
2.040000000000000000e+02,5.070797999999999774e+02
2.050000000000000000e+02,5.066418499999999767e+02
2.060000000000000000e+02,5.084327700000000050e+02
2.070000000000000000e+02,5.079279199999999719e+02
2.080000000000000000e+02,5.097659899999999880e+02
2.090000000000000000e+02,5.091861299999999915e+02
2.100000000000000000e+02,5.111005200000000173e+02
2.110000000000000000e+02,5.104191000000000145e+02
2.120000000000000000e+02,5.124167499999999791e+02
2.130000000000000000e+02,5.116319599999999923e+02
2.140000000000000000e+02,5.137273599999999760e+02
2.150000000000000000e+02,5.124481799999999794e+02
2.160000000000000000e+02,5.143051799999999503e+02
2.170000000000000000e+02,5.133930100000000039e+02
2.180000000000000000e+02,5.154175400000000309e+02
2.190000000000000000e+02,5.144298700000000508e+02
2.200000000000000000e+02,5.166295199999999568e+02
2.210000000000000000e+02,5.155211199999999963e+02
2.220000000000000000e+02,5.178857400000000553e+02
2.230000000000000000e+02,5.166243299999999863e+02
2.240000000000000000e+02,5.191511199999999917e+02
2.250000000000000000e+02,5.177296099999999797e+02
2.260000000000000000e+02,5.204144300000000385e+02
2.270000000000000000e+02,5.188123799999999619e+02
2.280000000000000000e+02,5.216864000000000487e+02
2.290000000000000000e+02,5.198576699999999846e+02
2.300000000000000000e+02,5.229678300000000490e+02
2.310000000000000000e+02,5.208791499999999814e+02
2.320000000000000000e+02,5.242326000000000477e+02
2.330000000000000000e+02,5.218787200000000439e+02
2.340000000000000000e+02,5.255087899999999763e+02
2.350000000000000000e+02,5.228352700000000368e+02
2.360000000000000000e+02,5.267784400000000460e+02
2.370000000000000000e+02,5.237580600000000004e+02
2.380000000000000000e+02,5.280720199999999522e+02
2.390000000000000000e+02,5.246320200000000114e+02
2.400000000000000000e+02,5.293751200000000381e+02
2.410000000000000000e+02,5.254628300000000536e+02
2.420000000000000000e+02,5.306919599999999946e+02
2.430000000000000000e+02,5.262455400000000054e+02
2.440000000000000000e+02,5.320263099999999667e+02
2.450000000000000000e+02,5.269733300000000327e+02
2.460000000000000000e+02,5.333971599999999853e+02
2.470000000000000000e+02,5.276428200000000288e+02
2.480000000000000000e+02,5.347983400000000529e+02
2.490000000000000000e+02,5.282401099999999587e+02
2.500000000000000000e+02,5.362523800000000165e+02
2.510000000000000000e+02,5.287560999999999467e+02
2.520000000000000000e+02,5.377623899999999821e+02
2.530000000000000000e+02,5.291751100000000179e+02
2.540000000000000000e+02,5.393382599999999911e+02
2.550000000000000000e+02,5.295023800000000165e+02
2.560000000000000000e+02,5.410019499999999653e+02
2.570000000000000000e+02,5.297000699999999824e+02
2.580000000000000000e+02,5.427654400000000123e+02
2.590000000000000000e+02,5.297604999999999791e+02
2.600000000000000000e+02,5.446622899999999845e+02
2.610000000000000000e+02,5.296631499999999733e+02
2.620000000000000000e+02,5.466859100000000353e+02
2.630000000000000000e+02,5.293801899999999705e+02
2.640000000000000000e+02,5.489061900000000378e+02
2.650000000000000000e+02,5.288700000000000045e+02
2.660000000000000000e+02,5.513395400000000564e+02
2.670000000000000000e+02,5.281200000000000045e+02
2.680000000000000000e+02,5.537619600000000446e+02
2.690000000000000000e+02,5.268898299999999608e+02
2.700000000000000000e+02,5.566504499999999780e+02
2.710000000000000000e+02,5.253890999999999849e+02
2.720000000000000000e+02,5.599277299999999968e+02
2.730000000000000000e+02,5.234977400000000216e+02
2.740000000000000000e+02,5.636601600000000190e+02
2.750000000000000000e+02,5.211175500000000511e+02
2.760000000000000000e+02,5.679262099999999691e+02
2.770000000000000000e+02,5.181299999999999955e+02
2.780000000000000000e+02,5.728252599999999575e+02
2.790000000000000000e+02,5.144089999999999918e+02
2.800000000000000000e+02,5.784861499999999523e+02
2.810000000000000000e+02,5.097933699999999817e+02
2.820000000000000000e+02,5.850530400000000100e+02
2.830000000000000000e+02,5.040825500000000261e+02
2.840000000000000000e+02,5.927266200000000254e+02
2.850000000000000000e+02,4.970287200000000212e+02
2.860000000000000000e+02,6.017321200000000090e+02
2.870000000000000000e+02,4.883130499999999756e+02
2.880000000000000000e+02,6.123727999999999838e+02
2.890000000000000000e+02,4.775267600000000243e+02
2.900000000000000000e+02,6.250056200000000217e+02
2.910000000000000000e+02,5.307840599999999540e+02
2.920000000000000000e+02,5.524847999999999502e+02
2.930000000000000000e+02,5.494718000000000302e+02
2.940000000000000000e+02,5.469855999999999767e+02
2.950000000000000000e+02,5.570386999999999489e+02
2.960000000000000000e+02,5.434034400000000460e+02
2.970000000000000000e+02,5.629770499999999629e+02
2.980000000000000000e+02,5.398534499999999525e+02
2.990000000000000000e+02,5.688055399999999509e+02
3.000000000000000000e+02,5.358217799999999897e+02
3.010000000000000000e+02,5.750910000000000082e+02
3.020000000000000000e+02,5.309653299999999945e+02
3.030000000000000000e+02,5.822188099999999622e+02
3.040000000000000000e+02,5.249883399999999938e+02
3.050000000000000000e+02,5.905285599999999704e+02
3.060000000000000000e+02,5.175418100000000550e+02
3.070000000000000000e+02,6.003876299999999446e+02
3.080000000000000000e+02,5.081838999999999942e+02
3.090000000000000000e+02,6.122168599999999969e+02
3.100000000000000000e+02,4.963894000000000233e+02
3.110000000000000000e+02,6.265662200000000439e+02
3.120000000000000000e+02,5.427354100000000017e+02
3.130000000000000000e+02,5.603172600000000330e+02
3.140000000000000000e+02,5.601187099999999646e+02
3.150000000000000000e+02,5.546037000000000035e+02
3.160000000000000000e+02,5.679115600000000086e+02
3.170000000000000000e+02,5.503485699999999952e+02
3.180000000000000000e+02,5.746481300000000374e+02
3.190000000000000000e+02,5.457651399999999740e+02
3.200000000000000000e+02,5.817902199999999766e+02
3.210000000000000000e+02,5.402557399999999461e+02
3.220000000000000000e+02,5.899910300000000234e+02
3.230000000000000000e+02,5.333355699999999615e+02
3.240000000000000000e+02,5.997635500000000093e+02
3.250000000000000000e+02,5.244959099999999808e+02
3.260000000000000000e+02,6.116763300000000072e+02
3.270000000000000000e+02,5.130611000000000104e+02
3.280000000000000000e+02,6.263514999999999873e+02
3.290000000000000000e+02,4.981285700000000247e+02
3.300000000000000000e+02,5.800569500000000289e+02
3.310000000000000000e+02,5.681045500000000175e+02
3.320000000000000000e+02,5.671710199999999986e+02
3.330000000000000000e+02,5.766696799999999712e+02
3.340000000000000000e+02,5.607650099999999611e+02
3.350000000000000000e+02,5.840902700000000323e+02
3.360000000000000000e+02,5.548235499999999547e+02
3.370000000000000000e+02,5.923794599999999946e+02
3.380000000000000000e+02,5.479331100000000561e+02
3.390000000000000000e+02,6.023330099999999447e+02
3.400000000000000000e+02,5.392312600000000202e+02
3.410000000000000000e+02,6.147015999999999849e+02
3.420000000000000000e+02,5.278392300000000432e+02
3.430000000000000000e+02,6.303709099999999808e+02
3.440000000000000000e+02,5.126165200000000368e+02
3.450000000000000000e+02,5.892650800000000118e+02
3.460000000000000000e+02,5.779737499999999955e+02
3.470000000000000000e+02,5.768530299999999897e+02
3.480000000000000000e+02,5.872546399999999949e+02
3.490000000000000000e+02,5.704835799999999608e+02
3.500000000000000000e+02,5.959343300000000454e+02
3.510000000000000000e+02,5.641780999999999722e+02
3.520000000000000000e+02,6.061027800000000525e+02
3.530000000000000000e+02,5.563183599999999842e+02
3.540000000000000000e+02,6.188432599999999866e+02
3.550000000000000000e+02,5.456940899999999601e+02
3.560000000000000000e+02,6.353010900000000447e+02
3.570000000000000000e+02,5.308427100000000110e+02
3.580000000000000000e+02,6.006756599999999935e+02
3.590000000000000000e+02,5.902510399999999890e+02
3.600000000000000000e+02,5.892031899999999496e+02
3.610000000000000000e+02,6.002450000000000045e+02
3.620000000000000000e+02,5.830405899999999519e+02
3.630000000000000000e+02,6.102361499999999523e+02
3.640000000000000000e+02,5.762611100000000306e+02
3.650000000000000000e+02,6.224464699999999766e+02
3.660000000000000000e+02,5.669475099999999657e+02
3.670000000000000000e+02,6.383353899999999612e+02
3.680000000000000000e+02,5.533477199999999812e+02
3.690000000000000000e+02,6.117148999999999432e+02
3.700000000000000000e+02,6.030529199999999719e+02
3.710000000000000000e+02,6.014709500000000162e+02
3.720000000000000000e+02,6.127126500000000533e+02
3.730000000000000000e+02,5.953934299999999666e+02
3.740000000000000000e+02,6.229276700000000346e+02
3.750000000000000000e+02,5.879926799999999503e+02
3.760000000000000000e+02,6.359553799999999910e+02
3.770000000000000000e+02,5.771876800000000003e+02
3.780000000000000000e+02,6.536512500000000045e+02
3.790000000000000000e+02,6.026680900000000065e+02
3.800000000000000000e+02,6.121531400000000076e+02
3.810000000000000000e+02,6.166711400000000367e+02
3.820000000000000000e+02,6.070145300000000361e+02
3.830000000000000000e+02,6.264236499999999523e+02
3.840000000000000000e+02,6.008258100000000468e+02
3.850000000000000000e+02,6.380238600000000133e+02
3.860000000000000000e+02,5.914418899999999439e+02
3.870000000000000000e+02,6.537963300000000118e+02
3.880000000000000000e+02,5.768143300000000409e+02
3.890000000000000000e+02,6.311370799999999690e+02
3.900000000000000000e+02,6.214754599999999982e+02
3.910000000000000000e+02,6.199121099999999842e+02
3.920000000000000000e+02,6.310408300000000281e+02
3.930000000000000000e+02,6.121299999999999955e+02
3.940000000000000000e+02,6.420762899999999718e+02
3.950000000000000000e+02,6.020294199999999591e+02
3.960000000000000000e+02,6.574751599999999598e+02
3.970000000000000000e+02,5.868986800000000130e+02
3.980000000000000000e+02,6.369769900000000007e+02
3.990000000000000000e+02,6.282405999999999722e+02
