# Time [s], Convective Heat Transfer Coefficient [W/m2K]
1.000000000000000000e+00,0.000000000000000000e+00
2.000000000000000000e+00,0.000000000000000000e+00
3.000000000000000000e+00,1.915079995362458862e-02
4.000000000000000000e+00,3.274740728807139234e-02
5.000000000000000000e+00,5.198326877831560555e-02
6.000000000000000000e+00,8.022000773584055111e-02
7.000000000000000000e+00,1.175900526856897693e-01
8.000000000000000000e+00,1.652083254387022304e-01
9.000000000000000000e+00,2.233808274982548858e-01
1.000000000000000000e+01,2.918415393437313043e-01
1.100000000000000000e+01,3.700630553552665680e-01
1.200000000000000000e+01,4.571511655275611874e-01
1.300000000000000000e+01,5.520399859012942168e-01
1.400000000000000000e+01,6.536219210242962818e-01
1.500000000000000000e+01,7.608037363773410000e-01
1.600000000000000000e+01,8.725411630607717850e-01
1.700000000000000000e+01,9.879028543537377027e-01
1.800000000000000000e+01,1.106050835269022148e+00
1.900000000000000000e+01,1.226257152686453411e+00
2.000000000000000000e+01,1.347895314103173092e+00
2.100000000000000000e+01,1.470430332056005929e+00
2.200000000000000000e+01,1.593402929682396163e+00
2.300000000000000000e+01,1.716433823478903165e+00
2.400000000000000000e+01,1.839193424833630131e+00
2.500000000000000000e+01,1.961409965871762084e+00
2.600000000000000000e+01,2.082852335715232428e+00
2.700000000000000000e+01,2.203325764432430223e+00
2.800000000000000000e+01,2.322668509316882179e+00
2.900000000000000000e+01,2.440744344624960593e+00
3.000000000000000000e+01,2.557432303256926165e+00
3.100000000000000000e+01,2.672645090017954583e+00
3.200000000000000000e+01,2.786304828978431125e+00
3.300000000000000000e+01,2.898356082878563722e+00
3.400000000000000000e+01,3.008757904726963694e+00
3.500000000000000000e+01,3.117484148828397750e+00
3.600000000000000000e+01,3.224524515703625305e+00
3.700000000000000000e+01,3.329878143711422211e+00
3.800000000000000000e+01,3.433548442532082134e+00
3.900000000000000000e+01,3.535555307549127946e+00
4.000000000000000000e+01,3.635915153869853977e+00
4.100000000000000000e+01,3.734650575610865442e+00
4.200000000000000000e+01,3.831792061426734008e+00
4.300000000000000000e+01,3.927367364783484138e+00
4.400000000000000000e+01,4.021402858969969962e+00
4.500000000000000000e+01,4.113927967590850443e+00
4.600000000000000000e+01,4.204973924026582210e+00
4.700000000000000000e+01,4.294570950785588259e+00
4.800000000000000000e+01,4.382741807362551256e+00
4.900000000000000000e+01,4.469519121627170577e+00
5.000000000000000000e+01,4.554927918942219378e+00
5.100000000000000000e+01,4.638993404952071131e+00
5.200000000000000000e+01,4.721743321670739846e+00
5.300000000000000000e+01,4.803203501038947110e+00
5.400000000000000000e+01,4.883396165710673031e+00
5.500000000000000000e+01,4.962344080622400178e+00
5.600000000000000000e+01,5.040072111580982117e+00
5.700000000000000000e+01,5.116598500722311371e+00
5.800000000000000000e+01,5.191946985307872353e+00
5.900000000000000000e+01,5.266139919928021662e+00
6.000000000000000000e+01,5.339197869289288967e+00
6.100000000000000000e+01,5.411136673921201456e+00
6.200000000000000000e+01,5.481979386056083037e+00
6.300000000000000000e+01,5.551741732108199656e+00
6.400000000000000000e+01,5.620445313486156280e+00
6.500000000000000000e+01,5.688104871968790555e+00
6.600000000000000000e+01,5.754740549097732583e+00
6.700000000000000000e+01,5.820370593011960025e+00
6.800000000000000000e+01,5.885009257145559225e+00
6.900000000000000000e+01,5.948674760634056646e+00
7.000000000000000000e+01,6.011384593699996337e+00
7.100000000000000000e+01,6.073154607421035855e+00
7.200000000000000000e+01,6.134000888991289813e+00
7.300000000000000000e+01,6.193939040738964508e+00
7.400000000000000000e+01,6.252984651133324689e+00
7.500000000000000000e+01,6.311154803024466631e+00
7.600000000000000000e+01,6.368465958408521921e+00
7.700000000000000000e+01,6.424931814478953562e+00
7.800000000000000000e+01,6.480568153770779993e+00
7.900000000000000000e+01,6.535389970106990631e+00
8.000000000000000000e+01,6.589412574497725217e+00
8.100000000000000000e+01,6.642650897563704859e+00
8.200000000000000000e+01,6.695119773260775453e+00
8.300000000000000000e+01,6.746833940194521873e+00
8.400000000000000000e+01,6.797808297222333707e+00
8.500000000000000000e+01,6.848056639922247335e+00
8.600000000000000000e+01,6.897593459395205961e+00
8.700000000000000000e+01,6.946432920598529570e+00
8.800000000000000000e+01,6.994588405245488971e+00
8.900000000000000000e+01,7.042073744285289649e+00
9.000000000000000000e+01,7.088902023201263169e+00
9.100000000000000000e+01,7.135086320644552949e+00
9.200000000000000000e+01,7.180640163586324398e+00
9.300000000000000000e+01,7.225576155468901085e+00
9.400000000000000000e+01,7.269906698980144633e+00
9.500000000000000000e+01,7.313644228681186910e+00
9.600000000000000000e+01,7.356799913484961095e+00
9.700000000000000000e+01,7.399386297439411564e+00
9.800000000000000000e+01,7.441414898685691170e+00
9.900000000000000000e+01,7.482896896600482073e+00
1.000000000000000000e+02,7.523842739290371284e+00
1.010000000000000000e+02,7.564264844864693416e+00
1.020000000000000000e+02,7.604172439556432295e+00
1.030000000000000000e+02,7.643575933552052781e+00
1.040000000000000000e+02,7.682485672987109382e+00
1.050000000000000000e+02,7.720911160573307619e+00
1.060000000000000000e+02,7.758861683143241983e+00
1.070000000000000000e+02,7.796346709746022619e+00
1.080000000000000000e+02,7.833374740982205431e+00
1.090000000000000000e+02,7.869955057730433801e+00
1.100000000000000000e+02,7.906096564145305372e+00
1.110000000000000000e+02,7.941807436247427354e+00
1.120000000000000000e+02,7.977094788862368446e+00
1.130000000000000000e+02,8.011966182917504398e+00
1.140000000000000000e+02,8.046430331308807027e+00
1.150000000000000000e+02,8.080494721883194842e+00
1.160000000000000000e+02,8.114165671039037520e+00
1.170000000000000000e+02,8.147449784426152419e+00
1.180000000000000000e+02,8.180354471651195780e+00
1.190000000000000000e+02,8.212886701423819602e+00
1.200000000000000000e+02,8.245051643432564248e+00
1.210000000000000000e+02,8.276856669528172006e+00
1.220000000000000000e+02,8.308307032012749005e+00
1.230000000000000000e+02,8.339408133073492380e+00
1.240000000000000000e+02,8.370166355941973890e+00
1.250000000000000000e+02,8.400586708479977460e+00
1.260000000000000000e+02,8.430674356348360377e+00
1.270000000000000000e+02,8.460435109291831068e+00
1.280000000000000000e+02,8.489873288861062406e+00
1.290000000000000000e+02,8.518994200361481361e+00
1.300000000000000000e+02,8.547802017918110451e+00
1.310000000000000000e+02,8.576302051578347019e+00
1.320000000000000000e+02,8.604498023213196234e+00
1.330000000000000000e+02,8.632394946866499552e+00
1.340000000000000000e+02,8.659997059228430771e+00
1.350000000000000000e+02,8.687307535203261821e+00
1.360000000000000000e+02,8.714331604808936760e+00
1.370000000000000000e+02,8.741072967200452126e+00
1.380000000000000000e+02,8.767534904312661581e+00
1.390000000000000000e+02,8.793722262028421000e+00
1.400000000000000000e+02,8.819638545652738415e+00
1.410000000000000000e+02,8.845287905139937124e+00
1.420000000000000000e+02,8.870674076125343532e+00
1.430000000000000000e+02,8.895800984389802935e+00
1.440000000000000000e+02,8.920672300178424052e+00
1.450000000000000000e+02,8.945291738807137349e+00
1.460000000000000000e+02,8.969663351336551571e+00
1.470000000000000000e+02,8.993791516500941441e+00
1.480000000000000000e+02,9.017679637523386305e+00
1.490000000000000000e+02,9.041331457589445009e+00
1.500000000000000000e+02,9.064751479269897771e+00
1.510000000000000000e+02,9.087943103545962131e+00
1.520000000000000000e+02,9.110910492039888453e+00
1.530000000000000000e+02,9.133657847305148181e+00
1.540000000000000000e+02,9.156188156224068564e+00
1.550000000000000000e+02,9.178508083941503415e+00
1.560000000000000000e+02,9.200617100000245685e+00
1.570000000000000000e+02,9.222519762278377442e+00
1.580000000000000000e+02,9.244219295934394509e+00
1.590000000000000000e+02,9.265720352440160568e+00
1.600000000000000000e+02,9.287026670324870281e+00
1.610000000000000000e+02,9.308142448116193179e+00
1.620000000000000000e+02,9.329071662389905484e+00
1.630000000000000000e+02,9.349818341500494512e+00
1.640000000000000000e+02,9.370383898967487468e+00
1.650000000000000000e+02,9.390770775126318526e+00
1.660000000000000000e+02,9.410980300525833897e+00
1.670000000000000000e+02,9.431013904448263929e+00
1.680000000000000000e+02,9.450871671352750525e+00
1.690000000000000000e+02,9.470554587735831475e+00
1.700000000000000000e+02,9.490062963686147768e+00
1.710000000000000000e+02,9.509395281645966591e+00
1.720000000000000000e+02,9.528552229856112277e+00
1.730000000000000000e+02,9.547534474804352911e+00
1.740000000000000000e+02,9.566340487119372682e+00
1.750000000000000000e+02,9.584970151893392298e+00
1.760000000000000000e+02,9.603424233183991632e+00
1.770000000000000000e+02,9.621700690172300341e+00
1.780000000000000000e+02,9.639800902438059538e+00
1.790000000000000000e+02,9.657723707036211636e+00
1.800000000000000000e+02,9.675468571432222831e+00
1.810000000000000000e+02,9.693035581561206371e+00
1.820000000000000000e+02,9.710423195794611217e+00
1.830000000000000000e+02,9.727632108483161844e+00
1.840000000000000000e+02,9.744660649085929549e+00
1.850000000000000000e+02,9.761509245597641993e+00
1.860000000000000000e+02,9.778175858148699717e+00
1.870000000000000000e+02,9.794660779245820237e+00
1.880000000000000000e+02,9.810963310640344659e+00
1.890000000000000000e+02,9.827081415841375289e+00
1.900000000000000000e+02,9.843014761973162052e+00
1.910000000000000000e+02,9.858763246501768052e+00
1.920000000000000000e+02,9.874323871799552066e+00
1.930000000000000000e+02,9.889697133278364305e+00
1.940000000000000000e+02,9.904881118076554358e+00
1.950000000000000000e+02,9.919875229162551378e+00
1.960000000000000000e+02,9.934678385866506645e+00
1.970000000000000000e+02,9.949288439330151945e+00
1.980000000000000000e+02,9.963703956140916418e+00
1.990000000000000000e+02,9.977924559973144980e+00
2.000000000000000000e+02,9.991947984873679189e+00
2.010000000000000000e+02,1.000577384266926906e+01
2.020000000000000000e+02,1.001940033147121945e+01
2.030000000000000000e+02,1.003282634760278036e+01
2.040000000000000000e+02,1.004605077966527027e+01
2.050000000000000000e+02,1.005907239238735684e+01
2.060000000000000000e+02,1.007188936605369456e+01
2.070000000000000000e+02,1.008450126000903602e+01
2.080000000000000000e+02,1.009690646875795750e+01
2.090000000000000000e+02,1.010910441208670107e+01
2.100000000000000000e+02,1.012109472222980067e+01
2.110000000000000000e+02,1.013287575889392222e+01
2.120000000000000000e+02,1.014444769473397123e+01
2.130000000000000000e+02,1.015580965690116777e+01
2.140000000000000000e+02,1.016696166362577358e+01
2.150000000000000000e+02,1.017790348412203549e+01
2.160000000000000000e+02,1.018863520490379493e+01
2.170000000000000000e+02,1.019915756388357053e+01
2.180000000000000000e+02,1.020947048371491839e+01
2.190000000000000000e+02,1.021957509751575977e+01
2.200000000000000000e+02,1.022947205899507850e+01
2.210000000000000000e+02,1.023916255220055049e+01
2.220000000000000000e+02,1.024864828674290962e+01
2.230000000000000000e+02,1.025793149337833476e+01
2.240000000000000000e+02,1.026701358732837299e+01
2.250000000000000000e+02,1.027599472629520960e+01
2.260000000000000000e+02,1.028474229276699248e+01
2.270000000000000000e+02,1.029329668566392009e+01
2.280000000000000000e+02,1.030166966433334785e+01
2.290000000000000000e+02,1.030986386272825150e+01
2.300000000000000000e+02,1.031787880189992812e+01
2.310000000000000000e+02,1.032571464733415745e+01
2.320000000000000000e+02,1.033337110765544153e+01
2.330000000000000000e+02,1.034085017467679357e+01
2.340000000000000000e+02,1.034815523260127357e+01
2.350000000000000000e+02,1.035529083069481793e+01
2.360000000000000000e+02,1.036226093218538047e+01
2.370000000000000000e+02,1.036907142361067002e+01
2.380000000000000000e+02,1.037572803766680352e+01
2.390000000000000000e+02,1.038223646444831516e+01
2.400000000000000000e+02,1.038860246175020308e+01
2.410000000000000000e+02,1.039483239785041313e+01
2.420000000000000000e+02,1.040093162625497314e+01
2.430000000000000000e+02,1.040690665477427856e+01
2.440000000000000000e+02,1.041276319693801611e+01
2.450000000000000000e+02,1.041850714841699066e+01
2.460000000000000000e+02,1.042414372542227952e+01
2.470000000000000000e+02,1.042967972938142118e+01
2.480000000000000000e+02,1.043511999212504016e+01
2.490000000000000000e+02,1.044047039415041667e+01
2.500000000000000000e+02,1.044573603634700731e+01
2.510000000000000000e+02,1.045092242374310487e+01
2.520000000000000000e+02,1.045603546429580888e+01
2.530000000000000000e+02,1.046107943531306006e+01
2.540000000000000000e+02,1.046605955677624422e+01
2.550000000000000000e+02,1.047098113330006974e+01
2.560000000000000000e+02,1.047584838098057780e+01
2.570000000000000000e+02,1.048066613804326686e+01
2.580000000000000000e+02,1.048543954299315928e+01
2.590000000000000000e+02,1.049017265078072292e+01
2.600000000000000000e+02,1.049486896944119962e+01
2.610000000000000000e+02,1.049953316178532781e+01
2.620000000000000000e+02,1.050416902475877379e+01
2.630000000000000000e+02,1.050878076548326057e+01
2.640000000000000000e+02,1.051337194056885949e+01
2.650000000000000000e+02,1.051794641143783160e+01
2.660000000000000000e+02,1.052250707443603162e+01
2.670000000000000000e+02,1.052705818900159151e+01
2.680000000000000000e+02,1.053160188899387251e+01
2.690000000000000000e+02,1.053614135539471164e+01
2.700000000000000000e+02,1.054068007430565324e+01
2.710000000000000000e+02,1.054522067768571958e+01
2.720000000000000000e+02,1.054976578843377233e+01
2.730000000000000000e+02,1.055431812548891024e+01
2.740000000000000000e+02,1.055888008339195139e+01
2.750000000000000000e+02,1.056345404835157531e+01
2.760000000000000000e+02,1.056804323673654444e+01
2.770000000000000000e+02,1.057264896859448022e+01
2.780000000000000000e+02,1.057727391940220585e+01
2.790000000000000000e+02,1.058191939604094323e+01
2.800000000000000000e+02,1.058745521377334420e+01
2.810000000000000000e+02,1.059253153603191144e+01
2.820000000000000000e+02,1.059748969782864059e+01
2.830000000000000000e+02,1.060240802667353854e+01
2.840000000000000000e+02,1.060730296546784501e+01
2.850000000000000000e+02,1.061219349464833783e+01
2.860000000000000000e+02,1.061709125531444897e+01
2.870000000000000000e+02,1.062200691185455703e+01
2.880000000000000000e+02,1.062694932691072758e+01
2.890000000000000000e+02,1.063192546574549269e+01
2.900000000000000000e+02,1.063693761118942227e+01
2.910000000000000000e+02,1.064199051738928681e+01
2.920000000000000000e+02,1.064708737052696641e+01
2.930000000000000000e+02,1.065223206559218028e+01
2.940000000000000000e+02,1.065742487397250926e+01
2.950000000000000000e+02,1.066266884454626940e+01
2.960000000000000000e+02,1.066796516117394589e+01
2.970000000000000000e+02,1.067331798130031650e+01
2.980000000000000000e+02,1.067872620855127153e+01
2.990000000000000000e+02,1.068419254334194513e+01
3.000000000000000000e+02,1.068972100477745357e+01
3.010000000000000000e+02,1.069531006702153419e+01
3.020000000000000000e+02,1.070096321742265033e+01
3.030000000000000000e+02,1.070668137324957492e+01
3.040000000000000000e+02,1.071246564931063538e+01
3.050000000000000000e+02,1.071832051552095599e+01
3.060000000000000000e+02,1.072424512665065777e+01
3.070000000000000000e+02,1.073024412835897934e+01
3.080000000000000000e+02,1.073631635372211868e+01
3.090000000000000000e+02,1.074246692695750482e+01
3.100000000000000000e+02,1.074869699376685794e+01
3.110000000000000000e+02,1.075500819675368724e+01
3.120000000000000000e+02,1.076140307660979722e+01
3.130000000000000000e+02,1.076788486452051785e+01
3.140000000000000000e+02,1.077445515827993816e+01
3.150000000000000000e+02,1.078111745674190125e+01
3.160000000000000000e+02,1.078787332535961596e+01
3.170000000000000000e+02,1.079472682797801930e+01
3.180000000000000000e+02,1.080168039696580529e+01
3.190000000000000000e+02,1.080873564465173509e+01
3.200000000000000000e+02,1.081589506937230283e+01
3.210000000000000000e+02,1.082316514705564181e+01
3.220000000000000000e+02,1.083054792081665418e+01
3.230000000000000000e+02,1.083804651132228791e+01
3.240000000000000000e+02,1.084566510875600365e+01
3.250000000000000000e+02,1.085340727508633307e+01
3.260000000000000000e+02,1.086127654299316170e+01
3.270000000000000000e+02,1.086927591977066498e+01
3.280000000000000000e+02,1.087740937440307043e+01
3.290000000000000000e+02,1.088568153310751541e+01
3.300000000000000000e+02,1.089409727865118249e+01
3.310000000000000000e+02,1.090266135313092022e+01
3.320000000000000000e+02,1.091137924258592840e+01
3.330000000000000000e+02,1.092025726770168603e+01
3.340000000000000000e+02,1.092929571523315069e+01
3.350000000000000000e+02,1.093850150745330119e+01
3.360000000000000000e+02,1.094788287118686476e+01
3.370000000000000000e+02,1.095743947692014331e+01
3.380000000000000000e+02,1.096717837569693721e+01
3.390000000000000000e+02,1.097711033801056146e+01
3.400000000000000000e+02,1.098723313830674364e+01
3.410000000000000000e+02,1.099756099930193720e+01
3.420000000000000000e+02,1.100809120448478673e+01
3.430000000000000000e+02,1.101883028916366314e+01
3.440000000000000000e+02,1.102978913852986231e+01
3.450000000000000000e+02,1.104096872882892200e+01
3.460000000000000000e+02,1.105237277849577815e+01
3.470000000000000000e+02,1.106400963136050564e+01
3.480000000000000000e+02,1.107588123172260808e+01
3.490000000000000000e+02,1.108799004579369196e+01
3.500000000000000000e+02,1.110033867485460846e+01
3.510000000000000000e+02,1.111292719838619192e+01
3.520000000000000000e+02,1.112576057818212938e+01
3.530000000000000000e+02,1.113883331658363751e+01
3.540000000000000000e+02,1.115214661495274484e+01
3.550000000000000000e+02,1.116569590073765994e+01
3.560000000000000000e+02,1.117946836900048524e+01
3.570000000000000000e+02,1.119346317433115523e+01
3.580000000000000000e+02,1.120766472484703868e+01
3.590000000000000000e+02,1.122205820889397643e+01
3.600000000000000000e+02,1.123663070335116920e+01
3.610000000000000000e+02,1.125135913307213720e+01
3.620000000000000000e+02,1.126622212177990612e+01
3.630000000000000000e+02,1.128119629688400138e+01
3.640000000000000000e+02,1.129843601004682263e+01
3.650000000000000000e+02,1.131384446203589000e+01
3.660000000000000000e+02,1.132897164455459915e+01
3.670000000000000000e+02,1.134406881598896888e+01
3.680000000000000000e+02,1.135910740248499096e+01
3.690000000000000000e+02,1.137406781809198186e+01
3.700000000000000000e+02,1.138892075360020328e+01
3.710000000000000000e+02,1.140363882179049071e+01
3.720000000000000000e+02,1.141819580934241429e+01
3.730000000000000000e+02,1.143257077565976587e+01
3.740000000000000000e+02,1.144674672968852569e+01
3.750000000000000000e+02,1.146071307079920665e+01
3.760000000000000000e+02,1.147446061658062533e+01
3.770000000000000000e+02,1.148798504165979573e+01
3.780000000000000000e+02,1.150128434030290059e+01
3.790000000000000000e+02,1.151435835690776166e+01
3.800000000000000000e+02,1.152721325745737069e+01
3.810000000000000000e+02,1.153985310925325081e+01
3.820000000000000000e+02,1.155228683498311959e+01
3.830000000000000000e+02,1.156451993489750052e+01
3.840000000000000000e+02,1.157656160032044568e+01
3.850000000000000000e+02,1.158841770404813865e+01
3.860000000000000000e+02,1.160009796986777886e+01
3.870000000000000000e+02,1.161160872989723281e+01
3.880000000000000000e+02,1.162295607972960809e+01
3.890000000000000000e+02,1.163414908226070565e+01
3.900000000000000000e+02,1.164519516604773486e+01
3.910000000000000000e+02,1.165609566240461703e+01
3.920000000000000000e+02,1.166685807536114261e+01
3.930000000000000000e+02,1.167748744136911654e+01
3.940000000000000000e+02,1.168798875233845358e+01
3.950000000000000000e+02,1.169836593057467766e+01
3.960000000000000000e+02,1.170862346147330690e+01
3.970000000000000000e+02,1.171876545172442619e+01
3.980000000000000000e+02,1.172879486749406475e+01
