# Time [s], Temperature [C]
1.000000000000000000e+00,2.499997099999999861e+01
2.000000000000000000e+00,8.613049300000000130e+01
3.000000000000000000e+00,1.231901600000000059e+02
4.000000000000000000e+00,1.511490799999999979e+02
5.000000000000000000e+00,1.743205000000000098e+02
6.000000000000000000e+00,1.943317900000000122e+02
7.000000000000000000e+00,2.120505400000000122e+02
8.000000000000000000e+00,2.280075799999999902e+02
9.000000000000000000e+00,2.425845799999999883e+02
1.000000000000000000e+01,2.560857799999999997e+02
1.100000000000000000e+01,2.687842400000000112e+02
1.200000000000000000e+01,2.808155499999999734e+02
1.300000000000000000e+01,2.921355300000000170e+02
1.400000000000000000e+01,3.026491700000000264e+02
1.500000000000000000e+01,3.123763099999999895e+02
1.600000000000000000e+01,3.214060999999999808e+02
1.700000000000000000e+01,3.298146399999999971e+02
1.800000000000000000e+01,3.376327800000000252e+02
1.900000000000000000e+01,3.448764600000000087e+02
2.000000000000000000e+01,3.515958899999999971e+02
2.100000000000000000e+01,3.577216799999999921e+02
2.200000000000000000e+01,3.633027599999999779e+02
2.300000000000000000e+01,3.684986299999999915e+02
2.400000000000000000e+01,3.731408400000000256e+02
2.500000000000000000e+01,3.774139099999999871e+02
2.600000000000000000e+01,3.816831399999999803e+02
2.700000000000000000e+01,3.854766500000000065e+02
2.800000000000000000e+01,3.892009300000000280e+02
2.900000000000000000e+01,3.933244000000000256e+02
3.000000000000000000e+01,3.982819200000000137e+02
3.100000000000000000e+01,3.951295200000000136e+02
3.200000000000000000e+01,4.023832400000000007e+02
3.300000000000000000e+01,4.042647400000000175e+02
3.400000000000000000e+01,4.093362099999999941e+02
3.500000000000000000e+01,4.131619299999999839e+02
3.600000000000000000e+01,4.174815699999999765e+02
3.700000000000000000e+01,4.213163099999999872e+02
3.800000000000000000e+01,4.261952200000000062e+02
3.900000000000000000e+01,4.297969400000000064e+02
4.000000000000000000e+01,4.340129099999999767e+02
4.100000000000000000e+01,4.381871300000000247e+02
4.200000000000000000e+01,4.418374900000000025e+02
4.300000000000000000e+01,4.454895900000000211e+02
4.400000000000000000e+01,4.493929099999999721e+02
4.500000000000000000e+01,4.527119099999999889e+02
4.600000000000000000e+01,4.562069099999999935e+02
4.700000000000000000e+01,4.597549399999999764e+02
4.800000000000000000e+01,4.630339099999999917e+02
4.900000000000000000e+01,4.663301399999999717e+02
5.000000000000000000e+01,4.697090499999999906e+02
5.100000000000000000e+01,4.728169599999999946e+02
5.200000000000000000e+01,4.759422599999999761e+02
5.300000000000000000e+01,4.790307599999999866e+02
5.400000000000000000e+01,4.819427499999999895e+02
5.500000000000000000e+01,4.847806100000000242e+02
5.600000000000000000e+01,4.876164899999999989e+02
5.700000000000000000e+01,4.902847300000000246e+02
5.800000000000000000e+01,4.929406399999999735e+02
5.900000000000000000e+01,4.955526699999999778e+02
6.000000000000000000e+01,4.980825500000000261e+02
6.100000000000000000e+01,5.005708900000000199e+02
6.200000000000000000e+01,5.030437900000000013e+02
6.300000000000000000e+01,5.054387199999999893e+02
6.400000000000000000e+01,5.077977900000000204e+02
6.500000000000000000e+01,5.101261900000000082e+02
6.600000000000000000e+01,5.123731699999999591e+02
6.700000000000000000e+01,5.145858200000000124e+02
6.800000000000000000e+01,5.167440800000000536e+02
6.900000000000000000e+01,5.188527800000000525e+02
7.000000000000000000e+01,5.209013700000000426e+02
7.100000000000000000e+01,5.229414699999999812e+02
7.200000000000000000e+01,5.249049700000000485e+02
7.300000000000000000e+01,5.268540000000000418e+02
7.400000000000000000e+01,5.287642799999999852e+02
7.500000000000000000e+01,5.306453199999999697e+02
7.600000000000000000e+01,5.324893799999999828e+02
7.700000000000000000e+01,5.343118899999999485e+02
7.800000000000000000e+01,5.360876500000000533e+02
7.900000000000000000e+01,5.378499799999999595e+02
8.000000000000000000e+01,5.395813000000000557e+02
8.100000000000000000e+01,5.412702600000000075e+02
8.200000000000000000e+01,5.429310900000000402e+02
8.300000000000000000e+01,5.445732400000000553e+02
8.400000000000000000e+01,5.461711400000000367e+02
8.500000000000000000e+01,5.477548199999999952e+02
8.600000000000000000e+01,5.493064600000000155e+02
8.700000000000000000e+01,5.508340500000000475e+02
8.800000000000000000e+01,5.523425300000000107e+02
8.900000000000000000e+01,5.538262899999999718e+02
9.000000000000000000e+01,5.552928500000000440e+02
9.100000000000000000e+01,5.617528099999999540e+02
9.200000000000000000e+01,5.521878699999999753e+02
9.300000000000000000e+01,5.579060100000000375e+02
9.400000000000000000e+01,5.549824800000000096e+02
9.500000000000000000e+01,5.593750000000000000e+02
9.600000000000000000e+01,5.580802599999999529e+02
9.700000000000000000e+01,5.617192999999999756e+02
9.800000000000000000e+01,5.611019900000000007e+02
9.900000000000000000e+01,5.642481699999999591e+02
1.000000000000000000e+02,5.639829700000000230e+02
1.010000000000000000e+02,5.668057900000000018e+02
1.020000000000000000e+02,5.667487200000000485e+02
1.030000000000000000e+02,5.693242800000000443e+02
1.040000000000000000e+02,5.694121699999999464e+02
1.050000000000000000e+02,5.718056599999999889e+02
1.060000000000000000e+02,5.719848600000000260e+02
1.070000000000000000e+02,5.742352300000000014e+02
1.080000000000000000e+02,5.744874300000000176e+02
1.090000000000000000e+02,5.766073000000000093e+02
1.100000000000000000e+02,5.769177200000000312e+02
1.110000000000000000e+02,5.789346900000000460e+02
1.120000000000000000e+02,5.792785599999999704e+02
1.130000000000000000e+02,5.812143600000000561e+02
1.140000000000000000e+02,5.815823400000000447e+02
1.150000000000000000e+02,5.834389599999999518e+02
1.160000000000000000e+02,5.838289200000000392e+02
1.170000000000000000e+02,5.856236000000000104e+02
1.180000000000000000e+02,5.860203900000000203e+02
1.190000000000000000e+02,5.877687399999999798e+02
1.200000000000000000e+02,5.881742600000000039e+02
1.210000000000000000e+02,5.898734100000000353e+02
1.220000000000000000e+02,5.902815600000000131e+02
1.230000000000000000e+02,5.919392100000000028e+02
1.240000000000000000e+02,5.923374599999999646e+02
1.250000000000000000e+02,5.939721100000000433e+02
1.260000000000000000e+02,5.943646199999999453e+02
1.270000000000000000e+02,5.959668000000000347e+02
1.280000000000000000e+02,5.963533899999999903e+02
1.290000000000000000e+02,5.979289599999999609e+02
1.300000000000000000e+02,5.982993199999999661e+02
1.310000000000000000e+02,5.998583399999999983e+02
1.320000000000000000e+02,6.002112399999999752e+02
1.330000000000000000e+02,6.017561600000000226e+02
1.340000000000000000e+02,6.020982099999999946e+02
1.350000000000000000e+02,6.036240800000000490e+02
1.360000000000000000e+02,6.039417700000000195e+02
1.370000000000000000e+02,6.054647800000000188e+02
1.380000000000000000e+02,6.057607400000000553e+02
1.390000000000000000e+02,6.072781400000000076e+02
1.400000000000000000e+02,6.075461400000000367e+02
1.410000000000000000e+02,6.090664699999999812e+02
1.420000000000000000e+02,6.093054200000000264e+02
1.430000000000000000e+02,6.108302599999999529e+02
1.440000000000000000e+02,6.110299099999999726e+02
1.450000000000000000e+02,6.125632900000000518e+02
1.460000000000000000e+02,6.127345599999999877e+02
1.470000000000000000e+02,6.142784400000000460e+02
1.480000000000000000e+02,6.144070400000000518e+02
1.490000000000000000e+02,6.159723500000000058e+02
1.500000000000000000e+02,6.160537699999999859e+02
1.510000000000000000e+02,6.173140300000000025e+02
1.520000000000000000e+02,6.170349099999999680e+02
1.530000000000000000e+02,6.186532600000000457e+02
1.540000000000000000e+02,6.184431799999999839e+02
1.550000000000000000e+02,6.200532200000000103e+02
1.560000000000000000e+02,6.199054599999999482e+02
1.570000000000000000e+02,6.215578000000000429e+02
1.580000000000000000e+02,6.214183299999999690e+02
1.590000000000000000e+02,6.231154800000000478e+02
1.600000000000000000e+02,6.229329199999999673e+02
1.610000000000000000e+02,6.246905500000000302e+02
1.620000000000000000e+02,6.244456199999999626e+02
1.630000000000000000e+02,6.262590900000000147e+02
1.640000000000000000e+02,6.259380499999999756e+02
1.650000000000000000e+02,6.278184199999999464e+02
1.660000000000000000e+02,6.273997200000000021e+02
1.670000000000000000e+02,6.293663900000000240e+02
1.680000000000000000e+02,6.288374599999999646e+02
1.690000000000000000e+02,6.308939800000000560e+02
1.700000000000000000e+02,6.302435299999999643e+02
1.710000000000000000e+02,6.324085099999999784e+02
1.720000000000000000e+02,6.316170700000000124e+02
1.730000000000000000e+02,6.339077800000000025e+02
1.740000000000000000e+02,6.329658799999999701e+02
1.750000000000000000e+02,6.353902000000000498e+02
1.760000000000000000e+02,6.342757599999999911e+02
1.770000000000000000e+02,6.368616299999999910e+02
1.780000000000000000e+02,6.355474900000000389e+02
1.790000000000000000e+02,6.383258100000000468e+02
1.800000000000000000e+02,6.367872300000000223e+02
1.810000000000000000e+02,6.397805200000000241e+02
1.820000000000000000e+02,6.379881000000000313e+02
1.830000000000000000e+02,6.412302899999999681e+02
1.840000000000000000e+02,6.391499000000000024e+02
1.850000000000000000e+02,6.426800500000000511e+02
1.860000000000000000e+02,6.402698400000000447e+02
1.870000000000000000e+02,6.441301300000000083e+02
1.880000000000000000e+02,6.413429599999999482e+02
1.890000000000000000e+02,6.455910000000000082e+02
1.900000000000000000e+02,6.423618199999999661e+02
1.910000000000000000e+02,6.470686600000000226e+02
1.920000000000000000e+02,6.433160400000000436e+02
1.930000000000000000e+02,6.484882800000000316e+02
1.940000000000000000e+02,6.440888700000000426e+02
1.950000000000000000e+02,6.498850700000000415e+02
1.960000000000000000e+02,6.448297099999999773e+02
1.970000000000000000e+02,6.513470499999999674e+02
1.980000000000000000e+02,6.455272800000000188e+02
1.990000000000000000e+02,6.528870799999999690e+02
2.000000000000000000e+02,6.461720000000000255e+02
2.010000000000000000e+02,6.545172700000000532e+02
2.020000000000000000e+02,6.467384600000000319e+02
2.030000000000000000e+02,6.562405400000000100e+02
2.040000000000000000e+02,6.472122200000000021e+02
2.050000000000000000e+02,6.580700100000000248e+02
2.060000000000000000e+02,6.475742199999999684e+02
2.070000000000000000e+02,6.600261799999999539e+02
2.080000000000000000e+02,6.477927899999999681e+02
2.090000000000000000e+02,6.621341599999999517e+02
2.100000000000000000e+02,6.478430799999999863e+02
2.110000000000000000e+02,6.644196799999999712e+02
2.120000000000000000e+02,6.476986699999999928e+02
2.130000000000000000e+02,6.669348099999999704e+02
2.140000000000000000e+02,6.473134199999999510e+02
2.150000000000000000e+02,6.697256499999999733e+02
2.160000000000000000e+02,6.466504499999999780e+02
2.170000000000000000e+02,6.728488200000000461e+02
2.180000000000000000e+02,6.456486800000000130e+02
2.190000000000000000e+02,6.763983200000000124e+02
2.200000000000000000e+02,6.442295500000000175e+02
2.210000000000000000e+02,6.804659400000000460e+02
2.220000000000000000e+02,6.423201299999999492e+02
2.230000000000000000e+02,6.851870099999999866e+02
2.240000000000000000e+02,6.398107300000000350e+02
2.250000000000000000e+02,6.907297999999999547e+02
2.260000000000000000e+02,6.365597500000000082e+02
2.270000000000000000e+02,6.973279999999999745e+02
2.280000000000000000e+02,6.323979500000000371e+02
2.290000000000000000e+02,7.052615399999999681e+02
2.300000000000000000e+02,6.270946699999999510e+02
2.310000000000000000e+02,7.149545299999999770e+02
2.320000000000000000e+02,6.203520499999999629e+02
2.330000000000000000e+02,7.270064099999999598e+02
2.340000000000000000e+02,6.117460300000000188e+02
2.350000000000000000e+02,7.418460700000000543e+02
2.360000000000000000e+02,6.009777800000000525e+02
2.370000000000000000e+02,7.615908799999999701e+02
2.380000000000000000e+02,6.433477199999999812e+02
2.390000000000000000e+02,6.958890400000000227e+02
2.400000000000000000e+02,6.562927899999999681e+02
2.410000000000000000e+02,6.932580600000000004e+02
2.420000000000000000e+02,6.590120200000000068e+02
2.430000000000000000e+02,6.940489499999999907e+02
2.440000000000000000e+02,6.599335300000000188e+02
2.450000000000000000e+02,6.962771000000000186e+02
2.460000000000000000e+02,6.600835600000000341e+02
2.470000000000000000e+02,6.995519399999999450e+02
2.480000000000000000e+02,6.596672999999999547e+02
2.490000000000000000e+02,7.038518100000000004e+02
2.500000000000000000e+02,6.586223099999999704e+02
2.510000000000000000e+02,7.092593399999999519e+02
2.520000000000000000e+02,6.568210400000000391e+02
2.530000000000000000e+02,7.159687500000000000e+02
2.540000000000000000e+02,6.540112900000000309e+02
2.550000000000000000e+02,7.242869899999999461e+02
2.560000000000000000e+02,6.497979699999999639e+02
2.570000000000000000e+02,7.346324499999999489e+02
2.580000000000000000e+02,6.436726099999999633e+02
2.590000000000000000e+02,7.476912800000000061e+02
2.600000000000000000e+02,6.349096700000000055e+02
2.610000000000000000e+02,7.644982899999999972e+02
2.620000000000000000e+02,6.224873700000000554e+02
2.630000000000000000e+02,7.866873199999999997e+02
2.640000000000000000e+02,6.612156999999999698e+02
2.650000000000000000e+02,7.273579099999999471e+02
2.660000000000000000e+02,6.750794700000000148e+02
2.670000000000000000e+02,7.281278700000000299e+02
2.680000000000000000e+02,6.770405899999999519e+02
2.690000000000000000e+02,7.327399299999999585e+02
2.700000000000000000e+02,6.758324000000000069e+02
2.710000000000000000e+02,7.395686600000000226e+02
2.720000000000000000e+02,6.723062099999999646e+02
2.730000000000000000e+02,7.486814600000000155e+02
2.740000000000000000e+02,6.662281500000000278e+02
2.750000000000000000e+02,7.606915299999999434e+02
2.760000000000000000e+02,6.569038100000000213e+02
2.770000000000000000e+02,7.766561299999999619e+02
2.780000000000000000e+02,6.432335199999999986e+02
2.790000000000000000e+02,7.983840900000000147e+02
2.800000000000000000e+02,6.234208399999999983e+02
2.810000000000000000e+02,7.611935399999999845e+02
2.820000000000000000e+02,6.864597199999999475e+02
2.830000000000000000e+02,7.555051899999999705e+02
2.840000000000000000e+02,6.849066800000000512e+02
2.850000000000000000e+02,7.604671600000000353e+02
2.860000000000000000e+02,6.793278800000000501e+02
2.870000000000000000e+02,7.699334700000000566e+02
2.880000000000000000e+02,6.702216799999999921e+02
2.890000000000000000e+02,7.838295299999999770e+02
2.900000000000000000e+02,6.566608300000000327e+02
2.910000000000000000e+02,8.035352199999999812e+02
2.920000000000000000e+02,6.368865399999999681e+02
2.930000000000000000e+02,7.693422199999999975e+02
2.940000000000000000e+02,6.948162200000000439e+02
2.950000000000000000e+02,7.647000100000000202e+02
2.960000000000000000e+02,6.920535300000000234e+02
2.970000000000000000e+02,7.704661300000000210e+02
2.980000000000000000e+02,6.849125999999999976e+02
2.990000000000000000e+02,7.810824000000000069e+02
3.000000000000000000e+02,6.736717499999999745e+02
3.010000000000000000e+02,7.968443600000000515e+02
3.020000000000000000e+02,6.570487699999999904e+02
3.030000000000000000e+02,8.196069300000000339e+02
3.040000000000000000e+02,6.327736200000000508e+02
3.050000000000000000e+02,7.825105600000000550e+02
3.060000000000000000e+02,6.959495200000000068e+02
3.070000000000000000e+02,7.781146199999999453e+02
3.080000000000000000e+02,6.911044900000000553e+02
3.090000000000000000e+02,7.856647299999999632e+02
3.100000000000000000e+02,6.808350199999999859e+02
3.110000000000000000e+02,7.994047900000000482e+02
3.120000000000000000e+02,6.650825200000000450e+02
3.130000000000000000e+02,8.201775499999999965e+02
3.140000000000000000e+02,6.418561399999999821e+02
3.150000000000000000e+02,7.853671900000000505e+02
3.160000000000000000e+02,7.008704800000000432e+02
3.170000000000000000e+02,7.814863900000000285e+02
3.180000000000000000e+02,6.956066299999999956e+02
3.190000000000000000e+02,7.892030600000000504e+02
3.200000000000000000e+02,6.848422199999999975e+02
3.210000000000000000e+02,8.031837799999999561e+02
3.220000000000000000e+02,6.683723099999999704e+02
3.230000000000000000e+02,8.244102199999999812e+02
3.240000000000000000e+02,6.440442500000000337e+02
3.250000000000000000e+02,7.898288599999999633e+02
3.260000000000000000e+02,7.029096100000000433e+02
3.270000000000000000e+02,7.862786899999999832e+02
3.280000000000000000e+02,6.968485100000000330e+02
3.290000000000000000e+02,7.946380599999999959e+02
3.300000000000000000e+02,6.849045999999999594e+02
3.310000000000000000e+02,8.097201499999999896e+02
3.320000000000000000e+02,6.667258299999999736e+02
3.330000000000000000e+02,8.327795999999999594e+02
3.340000000000000000e+02,6.398258700000000090e+02
3.350000000000000000e+02,7.962849700000000439e+02
3.360000000000000000e+02,7.021225600000000213e+02
3.370000000000000000e+02,7.929491600000000062e+02
3.380000000000000000e+02,6.948336799999999585e+02
3.390000000000000000e+02,8.025172700000000532e+02
3.400000000000000000e+02,6.809753399999999601e+02
3.410000000000000000e+02,8.196587500000000546e+02
3.420000000000000000e+02,6.599382900000000518e+02
3.430000000000000000e+02,7.894746699999999464e+02
3.440000000000000000e+02,7.106230500000000347e+02
3.450000000000000000e+02,7.864085099999999784e+02
3.460000000000000000e+02,7.048143300000000409e+02
3.470000000000000000e+02,7.941103500000000395e+02
3.480000000000000000e+02,6.935211799999999585e+02
3.490000000000000000e+02,8.080199599999999691e+02
3.500000000000000000e+02,6.763554699999999684e+02
3.510000000000000000e+02,8.293909300000000258e+02
3.520000000000000000e+02,6.509353599999999460e+02
3.530000000000000000e+02,7.963372799999999643e+02
3.540000000000000000e+02,7.076731600000000526e+02
3.550000000000000000e+02,7.934346299999999701e+02
3.560000000000000000e+02,7.003848900000000413e+02
3.570000000000000000e+02,8.027632399999999961e+02
3.580000000000000000e+02,6.866956800000000385e+02
3.590000000000000000e+02,8.194305399999999509e+02
3.600000000000000000e+02,6.659201699999999846e+02
3.610000000000000000e+02,8.452010500000000093e+02
3.620000000000000000e+02,6.350235000000000127e+02
3.630000000000000000e+02,8.064957900000000564e+02
3.640000000000000000e+02,7.016139500000000453e+02
3.650000000000000000e+02,8.037702000000000453e+02
3.660000000000000000e+02,6.921710799999999608e+02
3.670000000000000000e+02,8.154213300000000118e+02
3.680000000000000000e+02,6.749913299999999481e+02
3.690000000000000000e+02,8.362132000000000289e+02
3.700000000000000000e+02,6.488893399999999474e+02
3.710000000000000000e+02,8.014900499999999965e+02
3.720000000000000000e+02,7.074447000000000116e+02
3.730000000000000000e+02,7.986864000000000487e+02
3.740000000000000000e+02,6.993703600000000051e+02
3.750000000000000000e+02,8.086937900000000354e+02
3.760000000000000000e+02,6.844165600000000040e+02
3.770000000000000000e+02,8.266459999999999582e+02
3.780000000000000000e+02,6.617145400000000564e+02
3.790000000000000000e+02,7.962589100000000144e+02
3.800000000000000000e+02,7.129180900000000065e+02
3.810000000000000000e+02,7.935761700000000474e+02
3.820000000000000000e+02,7.059106399999999439e+02
3.830000000000000000e+02,8.022757599999999911e+02
3.840000000000000000e+02,6.928239099999999553e+02
3.850000000000000000e+02,8.179352999999999838e+02
3.860000000000000000e+02,6.729782099999999900e+02
3.870000000000000000e+02,8.421867099999999482e+02
3.880000000000000000e+02,6.434662499999999454e+02
3.890000000000000000e+02,8.060735499999999547e+02
3.900000000000000000e+02,7.057158200000000079e+02
3.910000000000000000e+02,8.036199299999999539e+02
3.920000000000000000e+02,6.964042399999999589e+02
3.930000000000000000e+02,8.149914599999999609e+02
3.940000000000000000e+02,6.795108599999999797e+02
3.950000000000000000e+02,8.352116099999999506e+02
3.960000000000000000e+02,6.538685299999999643e+02
3.970000000000000000e+02,8.019833999999999605e+02
3.980000000000000000e+02,7.100769000000000233e+02
3.990000000000000000e+02,7.994021599999999808e+02
