# Time [s], Temperature [C]
1.000000000000000000e+00,2.499997099999999861e+01
2.000000000000000000e+00,4.687788799999999867e+01
3.000000000000000000e+00,5.892563599999999724e+01
4.000000000000000000e+00,6.876039099999999848e+01
5.000000000000000000e+00,7.693389100000000269e+01
6.000000000000000000e+00,8.411189299999999491e+01
7.000000000000000000e+00,9.053297399999999584e+01
8.000000000000000000e+00,9.638314099999999485e+01
9.000000000000000000e+00,1.017736299999999972e+02
1.000000000000000000e+01,1.067872500000000002e+02
1.100000000000000000e+01,1.114825199999999938e+02
1.200000000000000000e+01,1.159051000000000045e+02
1.300000000000000000e+01,1.200909000000000049e+02
1.400000000000000000e+01,1.240687300000000022e+02
1.500000000000000000e+01,1.278608700000000056e+02
1.600000000000000000e+01,1.314864200000000096e+02
1.700000000000000000e+01,1.349624900000000025e+02
1.800000000000000000e+01,1.383016200000000140e+02
1.900000000000000000e+01,1.415165100000000109e+02
2.000000000000000000e+01,1.446166499999999928e+02
2.100000000000000000e+01,1.476107499999999959e+02
2.200000000000000000e+01,1.505070299999999861e+02
2.300000000000000000e+01,1.533124400000000094e+02
2.400000000000000000e+01,1.560324899999999957e+02
2.500000000000000000e+01,1.586727300000000014e+02
2.600000000000000000e+01,1.612391399999999919e+02
2.700000000000000000e+01,1.637347300000000132e+02
2.800000000000000000e+01,1.661635300000000086e+02
2.900000000000000000e+01,1.685299699999999916e+02
3.000000000000000000e+01,1.708369099999999889e+02
3.100000000000000000e+01,1.730877399999999966e+02
3.200000000000000000e+01,1.752849899999999934e+02
3.300000000000000000e+01,1.774313500000000090e+02
3.400000000000000000e+01,1.795289300000000026e+02
3.500000000000000000e+01,1.815809600000000046e+02
3.600000000000000000e+01,1.835878099999999904e+02
3.700000000000000000e+01,1.855519600000000082e+02
3.800000000000000000e+01,1.874768400000000099e+02
3.900000000000000000e+01,1.893619199999999978e+02
4.000000000000000000e+01,1.912094700000000103e+02
4.100000000000000000e+01,1.930214100000000030e+02
4.200000000000000000e+01,1.947991299999999910e+02
4.300000000000000000e+01,1.965427099999999996e+02
4.400000000000000000e+01,1.982554800000000057e+02
4.500000000000000000e+01,1.999363600000000076e+02
4.600000000000000000e+01,2.015880400000000066e+02
4.700000000000000000e+01,2.032109199999999873e+02
4.800000000000000000e+01,2.048061199999999928e+02
4.900000000000000000e+01,2.063746299999999962e+02
5.000000000000000000e+01,2.079178300000000092e+02
5.100000000000000000e+01,2.094356500000000096e+02
5.200000000000000000e+01,2.109292000000000087e+02
5.300000000000000000e+01,2.124001000000000090e+02
5.400000000000000000e+01,2.138477000000000032e+02
5.500000000000000000e+01,2.152733000000000061e+02
5.600000000000000000e+01,2.166787999999999954e+02
5.700000000000000000e+01,2.180628100000000131e+02
5.800000000000000000e+01,2.194271500000000117e+02
5.900000000000000000e+01,2.207727399999999989e+02
6.000000000000000000e+01,2.220994300000000123e+02
6.100000000000000000e+01,2.234079000000000121e+02
6.200000000000000000e+01,2.246991999999999905e+02
6.300000000000000000e+01,2.259734200000000044e+02
6.400000000000000000e+01,2.272312300000000107e+02
6.500000000000000000e+01,2.284729800000000068e+02
6.600000000000000000e+01,2.296995400000000132e+02
6.700000000000000000e+01,2.309109599999999887e+02
6.800000000000000000e+01,2.321083700000000078e+02
6.900000000000000000e+01,2.332912900000000036e+02
7.000000000000000000e+01,2.344600100000000111e+02
7.100000000000000000e+01,2.356162099999999953e+02
7.200000000000000000e+01,2.367593200000000024e+02
7.300000000000000000e+01,2.378898499999999956e+02
7.400000000000000000e+01,2.390089299999999923e+02
7.500000000000000000e+01,2.401156599999999912e+02
7.600000000000000000e+01,2.412113600000000133e+02
7.700000000000000000e+01,2.422959099999999921e+02
7.800000000000000000e+01,2.433693499999999972e+02
7.900000000000000000e+01,2.444325000000000045e+02
8.000000000000000000e+01,2.454854699999999923e+02
8.100000000000000000e+01,2.465286700000000053e+02
8.200000000000000000e+01,2.475620999999999867e+02
8.300000000000000000e+01,2.485861800000000130e+02
8.400000000000000000e+01,2.496015199999999936e+02
8.500000000000000000e+01,2.506070400000000120e+02
8.600000000000000000e+01,2.516040800000000104e+02
8.700000000000000000e+01,2.525930500000000052e+02
8.800000000000000000e+01,2.535729399999999885e+02
8.900000000000000000e+01,2.545454400000000135e+02
9.000000000000000000e+01,2.555093400000000088e+02
9.100000000000000000e+01,2.564653000000000134e+02
9.200000000000000000e+01,2.574137000000000057e+02
9.300000000000000000e+01,2.583541599999999789e+02
9.400000000000000000e+01,2.592868700000000217e+02
9.500000000000000000e+01,2.602127699999999777e+02
9.600000000000000000e+01,2.611305199999999900e+02
9.700000000000000000e+01,2.620416000000000167e+02
9.800000000000000000e+01,2.629458000000000197e+02
9.900000000000000000e+01,2.638420399999999972e+02
1.000000000000000000e+02,2.647319299999999771e+02
1.010000000000000000e+02,2.656151699999999778e+02
1.020000000000000000e+02,2.664910300000000234e+02
1.030000000000000000e+02,2.673600500000000011e+02
1.040000000000000000e+02,2.682231100000000197e+02
1.050000000000000000e+02,2.690794700000000148e+02
1.060000000000000000e+02,2.699289200000000051e+02
1.070000000000000000e+02,2.707725199999999859e+02
1.080000000000000000e+02,2.716097700000000259e+02
1.090000000000000000e+02,2.724404299999999921e+02
1.100000000000000000e+02,2.732657199999999875e+02
1.110000000000000000e+02,2.740847800000000234e+02
1.120000000000000000e+02,2.748976099999999860e+02
1.130000000000000000e+02,2.757051399999999717e+02
1.140000000000000000e+02,2.765067399999999793e+02
1.150000000000000000e+02,2.773028299999999717e+02
1.160000000000000000e+02,2.780937500000000000e+02
1.170000000000000000e+02,2.788790900000000192e+02
1.180000000000000000e+02,2.796591199999999731e+02
1.190000000000000000e+02,2.804341400000000135e+02
1.200000000000000000e+02,2.812037700000000200e+02
1.210000000000000000e+02,2.819683800000000247e+02
1.220000000000000000e+02,2.827283600000000092e+02
1.230000000000000000e+02,2.834833399999999983e+02
1.240000000000000000e+02,2.842337299999999800e+02
1.250000000000000000e+02,2.849794899999999984e+02
1.260000000000000000e+02,2.857205500000000029e+02
1.270000000000000000e+02,2.864569999999999936e+02
1.280000000000000000e+02,2.871892700000000218e+02
1.290000000000000000e+02,2.879168399999999792e+02
1.300000000000000000e+02,2.886400800000000118e+02
1.310000000000000000e+02,2.893596800000000258e+02
1.320000000000000000e+02,2.900746199999999817e+02
1.330000000000000000e+02,2.907854600000000005e+02
1.340000000000000000e+02,2.914925499999999943e+02
1.350000000000000000e+02,2.921954299999999876e+02
1.360000000000000000e+02,2.928949600000000260e+02
1.370000000000000000e+02,2.935902399999999943e+02
1.380000000000000000e+02,2.942814900000000193e+02
1.390000000000000000e+02,2.949689900000000193e+02
1.400000000000000000e+02,2.956533800000000269e+02
1.410000000000000000e+02,2.963333999999999833e+02
1.420000000000000000e+02,2.970100400000000036e+02
1.430000000000000000e+02,2.976830699999999865e+02
1.440000000000000000e+02,2.983524800000000141e+02
1.450000000000000000e+02,2.990179400000000101e+02
1.460000000000000000e+02,2.996802400000000262e+02
1.470000000000000000e+02,3.003393599999999992e+02
1.480000000000000000e+02,3.009944199999999910e+02
1.490000000000000000e+02,3.016464799999999968e+02
1.500000000000000000e+02,3.022951400000000035e+02
1.510000000000000000e+02,3.029402799999999729e+02
1.520000000000000000e+02,3.035823100000000068e+02
1.530000000000000000e+02,3.042203999999999837e+02
1.540000000000000000e+02,3.048551299999999742e+02
1.550000000000000000e+02,3.054874599999999987e+02
1.560000000000000000e+02,3.061157200000000103e+02
1.570000000000000000e+02,3.067405699999999911e+02
1.580000000000000000e+02,3.073629500000000121e+02
1.590000000000000000e+02,3.079812600000000202e+02
1.600000000000000000e+02,3.085966199999999731e+02
1.610000000000000000e+02,3.092090099999999779e+02
1.620000000000000000e+02,3.098179299999999898e+02
1.630000000000000000e+02,3.104231599999999958e+02
1.640000000000000000e+02,3.110260599999999727e+02
1.650000000000000000e+02,3.116249700000000189e+02
1.660000000000000000e+02,3.122207599999999843e+02
1.670000000000000000e+02,3.128135399999999890e+02
1.680000000000000000e+02,3.134030500000000075e+02
1.690000000000000000e+02,3.139892899999999827e+02
1.700000000000000000e+02,3.145725400000000036e+02
1.710000000000000000e+02,3.151520399999999995e+02
1.720000000000000000e+02,3.157288500000000226e+02
1.730000000000000000e+02,3.163020599999999831e+02
1.740000000000000000e+02,3.168725000000000023e+02
1.750000000000000000e+02,3.174390300000000025e+02
1.760000000000000000e+02,3.180030499999999734e+02
1.770000000000000000e+02,3.185633900000000267e+02
1.780000000000000000e+02,3.191204500000000053e+02
1.790000000000000000e+02,3.196744100000000230e+02
1.800000000000000000e+02,3.202249499999999784e+02
1.810000000000000000e+02,3.207722200000000043e+02
1.820000000000000000e+02,3.213165599999999813e+02
1.830000000000000000e+02,3.218569899999999961e+02
1.840000000000000000e+02,3.223945600000000127e+02
1.850000000000000000e+02,3.229285600000000045e+02
1.860000000000000000e+02,3.234595899999999915e+02
1.870000000000000000e+02,3.239869400000000041e+02
1.880000000000000000e+02,3.245112300000000118e+02
1.890000000000000000e+02,3.250323200000000270e+02
1.900000000000000000e+02,3.255496800000000235e+02
1.910000000000000000e+02,3.260641499999999837e+02
1.920000000000000000e+02,3.265745499999999879e+02
1.930000000000000000e+02,3.270821199999999749e+02
1.940000000000000000e+02,3.275864599999999882e+02
1.950000000000000000e+02,3.280867900000000077e+02
1.960000000000000000e+02,3.285841699999999719e+02
1.970000000000000000e+02,3.290779099999999744e+02
1.980000000000000000e+02,3.294119600000000219e+02
1.990000000000000000e+02,3.295612499999999727e+02
2.000000000000000000e+02,3.300177299999999718e+02
2.010000000000000000e+02,3.304650300000000129e+02
2.020000000000000000e+02,3.309322500000000105e+02
2.030000000000000000e+02,3.313993500000000267e+02
2.040000000000000000e+02,3.318673400000000129e+02
2.050000000000000000e+02,3.323338600000000156e+02
2.060000000000000000e+02,3.327981300000000147e+02
2.070000000000000000e+02,3.332597700000000032e+02
2.080000000000000000e+02,3.337185099999999807e+02
2.090000000000000000e+02,3.341742199999999912e+02
2.100000000000000000e+02,3.346262199999999893e+02
2.110000000000000000e+02,3.350752600000000143e+02
2.120000000000000000e+02,3.355209399999999960e+02
2.130000000000000000e+02,3.359631999999999721e+02
2.140000000000000000e+02,3.364016700000000242e+02
2.150000000000000000e+02,3.368370699999999829e+02
2.160000000000000000e+02,3.372690099999999802e+02
2.170000000000000000e+02,3.376974200000000224e+02
2.180000000000000000e+02,3.381223400000000083e+02
2.190000000000000000e+02,3.385437299999999823e+02
2.200000000000000000e+02,3.389617299999999886e+02
2.210000000000000000e+02,3.393765000000000214e+02
2.220000000000000000e+02,3.397878099999999790e+02
2.230000000000000000e+02,3.401958000000000197e+02
2.240000000000000000e+02,3.406004599999999982e+02
2.250000000000000000e+02,3.410013999999999896e+02
2.260000000000000000e+02,3.413992600000000266e+02
2.270000000000000000e+02,3.417939499999999953e+02
2.280000000000000000e+02,3.421853300000000218e+02
2.290000000000000000e+02,3.425733900000000176e+02
2.300000000000000000e+02,3.429583099999999831e+02
2.310000000000000000e+02,3.433400300000000129e+02
2.320000000000000000e+02,3.437185999999999808e+02
2.330000000000000000e+02,3.440941199999999753e+02
2.340000000000000000e+02,3.444663699999999835e+02
2.350000000000000000e+02,3.448355399999999804e+02
2.360000000000000000e+02,3.452019999999999982e+02
2.370000000000000000e+02,3.455650600000000168e+02
2.380000000000000000e+02,3.459252599999999802e+02
2.390000000000000000e+02,3.462825900000000274e+02
2.400000000000000000e+02,3.466369599999999878e+02
2.410000000000000000e+02,3.469884299999999939e+02
2.420000000000000000e+02,3.473370699999999829e+02
2.430000000000000000e+02,3.476828899999999862e+02
2.440000000000000000e+02,3.480258499999999913e+02
2.450000000000000000e+02,3.483661500000000046e+02
2.460000000000000000e+02,3.487039800000000014e+02
2.470000000000000000e+02,3.490387900000000059e+02
2.480000000000000000e+02,3.493711900000000128e+02
2.490000000000000000e+02,3.497009899999999902e+02
2.500000000000000000e+02,3.500282300000000077e+02
2.510000000000000000e+02,3.503530299999999897e+02
2.520000000000000000e+02,3.506755400000000122e+02
2.530000000000000000e+02,3.509953300000000240e+02
2.540000000000000000e+02,3.513131399999999758e+02
2.550000000000000000e+02,3.516283000000000243e+02
2.560000000000000000e+02,3.519411600000000249e+02
2.570000000000000000e+02,3.522519500000000221e+02
2.580000000000000000e+02,3.525602400000000216e+02
2.590000000000000000e+02,3.528664600000000178e+02
2.600000000000000000e+02,3.531705900000000042e+02
2.610000000000000000e+02,3.534728700000000003e+02
2.620000000000000000e+02,3.537730700000000184e+02
2.630000000000000000e+02,3.540711400000000140e+02
2.640000000000000000e+02,3.543671299999999746e+02
2.650000000000000000e+02,3.546614400000000273e+02
2.660000000000000000e+02,3.549534600000000069e+02
2.670000000000000000e+02,3.552440799999999967e+02
2.680000000000000000e+02,3.555325900000000274e+02
2.690000000000000000e+02,3.558195499999999925e+02
2.700000000000000000e+02,3.561043999999999983e+02
2.710000000000000000e+02,3.563877600000000143e+02
2.720000000000000000e+02,3.566696499999999901e+02
2.730000000000000000e+02,3.569498899999999821e+02
2.740000000000000000e+02,3.572281500000000278e+02
2.750000000000000000e+02,3.575049700000000144e+02
2.760000000000000000e+02,3.577807599999999866e+02
2.770000000000000000e+02,3.580545000000000186e+02
2.780000000000000000e+02,3.583269999999999982e+02
2.790000000000000000e+02,3.585982999999999947e+02
2.800000000000000000e+02,3.588677700000000073e+02
2.810000000000000000e+02,3.591362599999999929e+02
2.820000000000000000e+02,3.594034100000000080e+02
2.830000000000000000e+02,3.596689499999999953e+02
2.840000000000000000e+02,3.599336200000000190e+02
2.850000000000000000e+02,3.601969900000000280e+02
2.860000000000000000e+02,3.604587999999999965e+02
2.870000000000000000e+02,3.607195100000000139e+02
2.880000000000000000e+02,3.609797399999999925e+02
2.890000000000000000e+02,3.612381899999999746e+02
2.900000000000000000e+02,3.614956099999999992e+02
2.910000000000000000e+02,3.617524700000000166e+02
2.920000000000000000e+02,3.620076900000000251e+02
2.930000000000000000e+02,3.622620499999999879e+02
2.940000000000000000e+02,3.625156200000000126e+02
2.950000000000000000e+02,3.627681000000000040e+02
2.960000000000000000e+02,3.630195299999999747e+02
2.970000000000000000e+02,3.632702899999999886e+02
2.980000000000000000e+02,3.635200199999999882e+02
2.990000000000000000e+02,3.637689799999999991e+02
3.000000000000000000e+02,3.640167200000000207e+02
3.010000000000000000e+02,3.642641300000000228e+02
3.020000000000000000e+02,3.645104699999999980e+02
3.030000000000000000e+02,3.647556500000000028e+02
3.040000000000000000e+02,3.650006399999999758e+02
3.050000000000000000e+02,3.652447799999999916e+02
3.060000000000000000e+02,3.654877000000000180e+02
3.070000000000000000e+02,3.657307400000000257e+02
3.080000000000000000e+02,3.659722300000000246e+02
3.090000000000000000e+02,3.662131999999999721e+02
3.100000000000000000e+02,3.664540400000000204e+02
3.110000000000000000e+02,3.666934800000000223e+02
3.120000000000000000e+02,3.669330100000000243e+02
3.130000000000000000e+02,3.671711700000000178e+02
3.140000000000000000e+02,3.674088399999999979e+02
3.150000000000000000e+02,3.676463600000000156e+02
3.160000000000000000e+02,3.678826000000000249e+02
3.170000000000000000e+02,3.681186500000000024e+02
3.180000000000000000e+02,3.683539700000000039e+02
3.190000000000000000e+02,3.685886499999999728e+02
3.200000000000000000e+02,3.688229999999999791e+02
3.210000000000000000e+02,3.690566400000000158e+02
3.220000000000000000e+02,3.692898599999999760e+02
3.230000000000000000e+02,3.695223700000000235e+02
3.240000000000000000e+02,3.697543299999999817e+02
3.250000000000000000e+02,3.699859599999999773e+02
3.260000000000000000e+02,3.702168899999999780e+02
3.270000000000000000e+02,3.704474799999999846e+02
3.280000000000000000e+02,3.706770300000000020e+02
3.290000000000000000e+02,3.709069499999999948e+02
3.300000000000000000e+02,3.711354099999999789e+02
3.310000000000000000e+02,3.713640700000000265e+02
3.320000000000000000e+02,3.715921000000000163e+02
3.330000000000000000e+02,3.718190599999999790e+02
3.340000000000000000e+02,3.720465399999999931e+02
3.350000000000000000e+02,3.722726099999999860e+02
3.360000000000000000e+02,3.724991499999999860e+02
3.370000000000000000e+02,3.727242699999999900e+02
3.380000000000000000e+02,3.729491300000000251e+02
3.390000000000000000e+02,3.731741299999999910e+02
3.400000000000000000e+02,3.733978599999999801e+02
3.410000000000000000e+02,3.736219500000000266e+02
3.420000000000000000e+02,3.738446700000000078e+02
3.430000000000000000e+02,3.740675699999999892e+02
3.440000000000000000e+02,3.742896700000000010e+02
3.450000000000000000e+02,3.745113499999999931e+02
3.460000000000000000e+02,3.747330600000000231e+02
3.470000000000000000e+02,3.749534300000000258e+02
3.480000000000000000e+02,3.751743200000000229e+02
3.490000000000000000e+02,3.753937999999999988e+02
3.500000000000000000e+02,3.756134299999999939e+02
3.510000000000000000e+02,3.758321799999999939e+02
3.520000000000000000e+02,3.760509000000000128e+02
3.530000000000000000e+02,3.762688299999999799e+02
3.540000000000000000e+02,3.764863300000000095e+02
3.550000000000000000e+02,3.767035200000000259e+02
3.560000000000000000e+02,3.769199499999999716e+02
3.570000000000000000e+02,3.771362899999999740e+02
3.580000000000000000e+02,3.773518700000000194e+02
3.590000000000000000e+02,3.775672900000000141e+02
3.600000000000000000e+02,3.777818899999999758e+02
3.610000000000000000e+02,3.779962199999999939e+02
3.620000000000000000e+02,3.782094700000000103e+02
3.630000000000000000e+02,3.784232799999999770e+02
3.640000000000000000e+02,3.786355599999999981e+02
3.650000000000000000e+02,3.788484500000000139e+02
3.660000000000000000e+02,3.790597200000000271e+02
3.670000000000000000e+02,3.792712999999999965e+02
3.680000000000000000e+02,3.794821499999999901e+02
3.690000000000000000e+02,3.796920200000000136e+02
3.700000000000000000e+02,3.799023399999999810e+02
3.710000000000000000e+02,3.801111500000000092e+02
3.720000000000000000e+02,3.803205300000000193e+02
3.730000000000000000e+02,3.805282599999999888e+02
3.740000000000000000e+02,3.807366599999999721e+02
3.750000000000000000e+02,3.809432699999999841e+02
3.760000000000000000e+02,3.811505999999999972e+02
3.770000000000000000e+02,3.813562299999999823e+02
3.780000000000000000e+02,3.815620999999999867e+02
3.790000000000000000e+02,3.817670899999999961e+02
3.800000000000000000e+02,3.819719499999999925e+02
3.810000000000000000e+02,3.821759299999999939e+02
3.820000000000000000e+02,3.823795799999999758e+02
3.830000000000000000e+02,3.825824900000000071e+02
3.840000000000000000e+02,3.827851900000000001e+02
3.850000000000000000e+02,3.829869699999999852e+02
3.860000000000000000e+02,3.831886299999999892e+02
3.870000000000000000e+02,3.833892799999999852e+02
3.880000000000000000e+02,3.835897800000000188e+02
3.890000000000000000e+02,3.837894000000000005e+02
3.900000000000000000e+02,3.839884599999999750e+02
3.910000000000000000e+02,3.841870400000000245e+02
3.920000000000000000e+02,3.843850100000000225e+02
3.930000000000000000e+02,3.845826400000000262e+02
3.940000000000000000e+02,3.845569800000000100e+02
3.950000000000000000e+02,3.836896699999999782e+02
3.960000000000000000e+02,3.838211999999999762e+02
3.970000000000000000e+02,3.838726199999999835e+02
3.980000000000000000e+02,3.840183400000000233e+02
3.990000000000000000e+02,3.841647899999999822e+02
