# Time [s], Convective Heat Transfer Coefficient [W/m2K]
1.000000000000000000e+00,0.000000000000000000e+00
2.000000000000000000e+00,0.000000000000000000e+00
3.000000000000000000e+00,0.000000000000000000e+00
4.000000000000000000e+00,0.000000000000000000e+00
5.000000000000000000e+00,2.762023300960968902e-02
6.000000000000000000e+00,4.559999999962457279e-02
7.000000000000000000e+00,7.348573953186271490e-02
8.000000000000000000e+00,1.109583836630503029e-01
9.000000000000000000e+00,1.589713745653834887e-01
1.000000000000000000e+01,2.177259111258498803e-01
1.100000000000000000e+01,2.868357940032650877e-01
1.200000000000000000e+01,3.654935878651673908e-01
1.300000000000000000e+01,4.527911013912866434e-01
1.400000000000000000e+01,5.475711473832358678e-01
1.500000000000000000e+01,6.486883310085894694e-01
1.600000000000000000e+01,7.550388313545374208e-01
1.700000000000000000e+01,8.656008225101907705e-01
1.800000000000000000e+01,9.794648455219151506e-01
1.900000000000000000e+01,1.095836795987471302e+00
2.000000000000000000e+01,1.214028722724027620e+00
2.100000000000000000e+01,1.333444264619319641e+00
2.200000000000000000e+01,1.453590063082364159e+00
2.300000000000000000e+01,1.574036313876038706e+00
2.400000000000000000e+01,1.694435629873727756e+00
2.500000000000000000e+01,1.814487420396509565e+00
2.600000000000000000e+01,1.933944458245655529e+00
2.700000000000000000e+01,2.052603652305616588e+00
2.800000000000000000e+01,2.170297898975092288e+00
2.900000000000000000e+01,2.286888300070450963e+00
3.000000000000000000e+01,2.402262072443779317e+00
3.100000000000000000e+01,2.516332056032267062e+00
3.200000000000000000e+01,2.629022257161645282e+00
3.300000000000000000e+01,2.740285719480875848e+00
3.400000000000000000e+01,2.850074525340090315e+00
3.500000000000000000e+01,2.958355898715877785e+00
3.600000000000000000e+01,3.065110029828993277e+00
3.700000000000000000e+01,3.170324521627739145e+00
3.800000000000000000e+01,3.273993917663445608e+00
3.900000000000000000e+01,3.376120292652239563e+00
4.000000000000000000e+01,3.476702502859220001e+00
4.100000000000000000e+01,3.575751309942961420e+00
4.200000000000000000e+01,3.673274892429996275e+00
4.300000000000000000e+01,3.769293441077711471e+00
4.400000000000000000e+01,3.863822350777960768e+00
4.500000000000000000e+01,3.956881427646383731e+00
4.600000000000000000e+01,4.048489532354969889e+00
4.700000000000000000e+01,4.138668878669578888e+00
4.800000000000000000e+01,4.227439769581643247e+00
4.900000000000000000e+01,4.314826165654125134e+00
5.000000000000000000e+01,4.400852308280177816e+00
5.100000000000000000e+01,4.485538597538382355e+00
5.200000000000000000e+01,4.568909652939918686e+00
5.300000000000000000e+01,4.655360169294351813e+00
5.400000000000000000e+01,4.737644191357238910e+00
5.500000000000000000e+01,4.817966902727937928e+00
5.600000000000000000e+01,4.896817742510146232e+00
5.700000000000000000e+01,4.974300814209349220e+00
5.800000000000000000e+01,5.050492156627623075e+00
5.900000000000000000e+01,5.125441878301164600e+00
6.000000000000000000e+01,5.199191995423147361e+00
6.100000000000000000e+01,5.271776723169532275e+00
6.200000000000000000e+01,5.343222480143600350e+00
6.300000000000000000e+01,5.413559878397508740e+00
6.400000000000000000e+01,5.482816112646961670e+00
6.500000000000000000e+01,5.551011439225996824e+00
6.600000000000000000e+01,5.618171069109566318e+00
6.700000000000000000e+01,5.684313199567300856e+00
6.800000000000000000e+01,5.749461055481597249e+00
6.900000000000000000e+01,5.813630169762971533e+00
7.000000000000000000e+01,5.876842185341573988e+00
7.100000000000000000e+01,5.939114057622824738e+00
7.200000000000000000e+01,6.000458535092405121e+00
7.300000000000000000e+01,6.060896593146079425e+00
7.400000000000000000e+01,6.120444139186226984e+00
7.500000000000000000e+01,6.179114618806171855e+00
7.600000000000000000e+01,6.236925150450673527e+00
7.700000000000000000e+01,6.293890588674222464e+00
7.800000000000000000e+01,6.350026698865633534e+00
7.900000000000000000e+01,6.405347039846235546e+00
8.000000000000000000e+01,6.459869140601809612e+00
8.100000000000000000e+01,6.513606739942963131e+00
8.200000000000000000e+01,6.566572717793451197e+00
8.300000000000000000e+01,6.618781665709262185e+00
8.400000000000000000e+01,6.670248379000343952e+00
8.500000000000000000e+01,6.720986540498591566e+00
8.600000000000000000e+01,6.771012117958273180e+00
8.700000000000000000e+01,6.820338917575389459e+00
8.800000000000000000e+01,6.868979728345117053e+00
8.900000000000000000e+01,6.916947124645673739e+00
9.000000000000000000e+01,6.964254444345345796e+00
9.100000000000000000e+01,7.010916213186302315e+00
9.200000000000000000e+01,7.056944776866923341e+00
9.300000000000000000e+01,7.102352762437452505e+00
9.400000000000000000e+01,7.147154665298361742e+00
9.500000000000000000e+01,7.191361982498502670e+00
9.600000000000000000e+01,7.234986079874359710e+00
9.700000000000000000e+01,7.278038642931979219e+00
9.800000000000000000e+01,7.320532751972407937e+00
9.900000000000000000e+01,7.362478485847641529e+00
1.000000000000000000e+02,7.403889285696060973e+00
1.010000000000000000e+02,7.444774168786350899e+00
1.020000000000000000e+02,7.485144029866408921e+00
1.030000000000000000e+02,7.525010095997697768e+00
1.040000000000000000e+02,7.564380638806875723e+00
1.050000000000000000e+02,7.603267000751322335e+00
1.060000000000000000e+02,7.641679032218864798e+00
1.070000000000000000e+02,7.679626756571533264e+00
1.080000000000000000e+02,7.717117809147358898e+00
1.090000000000000000e+02,7.754159695577715006e+00
1.100000000000000000e+02,7.790764042292176228e+00
1.110000000000000000e+02,7.826938000271261409e+00
1.120000000000000000e+02,7.862688239390206668e+00
1.130000000000000000e+02,7.898024161592463344e+00
1.140000000000000000e+02,7.932954433927585036e+00
1.150000000000000000e+02,7.967484072953005203e+00
1.160000000000000000e+02,8.001622098943812489e+00
1.170000000000000000e+02,8.035375748310430666e+00
1.180000000000000000e+02,8.068750370412965722e+00
1.190000000000000000e+02,8.101753964785991968e+00
1.200000000000000000e+02,8.134392122416938875e+00
1.210000000000000000e+02,8.166672160159732741e+00
1.220000000000000000e+02,8.198600094270654282e+00
1.230000000000000000e+02,8.230180519596892452e+00
1.240000000000000000e+02,8.261421124121012483e+00
1.250000000000000000e+02,8.292326105666882441e+00
1.260000000000000000e+02,8.322902047991838970e+00
1.270000000000000000e+02,8.353153473269696150e+00
1.280000000000000000e+02,8.383086082371994152e+00
1.290000000000000000e+02,8.412704067959049681e+00
1.300000000000000000e+02,8.442013453381811416e+00
1.310000000000000000e+02,8.471017626384570676e+00
1.320000000000000000e+02,8.499722128610761374e+00
1.330000000000000000e+02,8.528132009215932285e+00
1.340000000000000000e+02,8.556250563374021567e+00
1.350000000000000000e+02,8.584083203073562984e+00
1.360000000000000000e+02,8.611632023224906618e+00
1.370000000000000000e+02,8.638902181822343707e+00
1.380000000000000000e+02,8.665898998946543585e+00
1.390000000000000000e+02,8.692624080198024572e+00
1.400000000000000000e+02,8.719081282016004408e+00
1.410000000000000000e+02,8.745274960624620064e+00
1.420000000000000000e+02,8.771209501697461164e+00
1.430000000000000000e+02,8.796886749020568885e+00
1.440000000000000000e+02,8.822310440329506065e+00
1.450000000000000000e+02,8.847483611351655952e+00
1.460000000000000000e+02,8.872409211199856927e+00
1.470000000000000000e+02,8.897090844788310804e+00
1.480000000000000000e+02,8.921531284755532809e+00
1.490000000000000000e+02,8.945733226185760500e+00
1.500000000000000000e+02,8.969699289214997151e+00
1.510000000000000000e+02,8.993432310982800715e+00
1.520000000000000000e+02,9.016934188668720651e+00
1.530000000000000000e+02,9.040208196024790865e+00
1.540000000000000000e+02,9.063256668524662274e+00
1.550000000000000000e+02,9.086081878423790670e+00
1.560000000000000000e+02,9.108686318932132764e+00
1.570000000000000000e+02,9.131076770800165221e+00
1.580000000000000000e+02,9.153248270980599344e+00
1.590000000000000000e+02,9.175204418861158118e+00
1.600000000000000000e+02,9.196947484279936802e+00
1.610000000000000000e+02,9.218480781188338469e+00
1.620000000000000000e+02,9.239808095562747070e+00
1.630000000000000000e+02,9.260932992997144453e+00
1.640000000000000000e+02,9.281858824612330139e+00
1.650000000000000000e+02,9.302588056346051459e+00
1.660000000000000000e+02,9.323123635970452128e+00
1.670000000000000000e+02,9.343467642232520021e+00
1.680000000000000000e+02,9.363621437712644990e+00
1.690000000000000000e+02,9.383584487934230722e+00
1.700000000000000000e+02,9.403358372984355285e+00
1.710000000000000000e+02,9.422944370138139902e+00
1.720000000000000000e+02,9.442341228301762257e+00
1.730000000000000000e+02,9.461549665400113440e+00
1.740000000000000000e+02,9.480570374707228964e+00
1.750000000000000000e+02,9.499403895609859205e+00
1.760000000000000000e+02,9.518048549171330919e+00
1.770000000000000000e+02,9.536506916752713892e+00
1.780000000000000000e+02,9.554778449125763018e+00
1.790000000000000000e+02,9.572862847394510766e+00
1.800000000000000000e+02,9.590760821526529867e+00
1.810000000000000000e+02,9.608472296348466557e+00
1.820000000000000000e+02,9.625997183851511707e+00
1.830000000000000000e+02,9.643335634958241087e+00
1.840000000000000000e+02,9.660486780731034173e+00
1.850000000000000000e+02,9.677450874979829365e+00
1.860000000000000000e+02,9.694228527008263541e+00
1.870000000000000000e+02,9.710817592038065271e+00
1.880000000000000000e+02,9.727218661204018346e+00
1.890000000000000000e+02,9.743430699453639932e+00
1.900000000000000000e+02,9.759452178353242857e+00
1.910000000000000000e+02,9.775283533629011146e+00
1.920000000000000000e+02,9.790924080294878706e+00
1.930000000000000000e+02,9.806372517177523562e+00
1.940000000000000000e+02,9.821627178773013611e+00
1.950000000000000000e+02,9.836687733911661624e+00
1.960000000000000000e+02,9.851552511363387055e+00
1.970000000000000000e+02,9.866220323301742923e+00
1.980000000000000000e+02,9.880690217657923213e+00
1.990000000000000000e+02,9.894960517657349186e+00
2.000000000000000000e+02,9.909030500661970109e+00
2.010000000000000000e+02,9.922898006335580945e+00
2.020000000000000000e+02,9.936562301401011155e+00
2.030000000000000000e+02,9.950021694595694299e+00
2.040000000000000000e+02,9.963274256513861005e+00
2.050000000000000000e+02,9.976319939012771698e+00
2.060000000000000000e+02,9.989157030713464280e+00
2.070000000000000000e+02,1.000178405009866367e+01
2.080000000000000000e+02,1.001419962511046791e+01
2.090000000000000000e+02,1.002640342263391560e+01
2.100000000000000000e+02,1.003839381206175219e+01
2.110000000000000000e+02,1.005016961861368152e+01
2.120000000000000000e+02,1.006173092669160063e+01
2.130000000000000000e+02,1.007307664234880740e+01
2.140000000000000000e+02,1.008420680843456729e+01
2.150000000000000000e+02,1.009512040928725085e+01
2.160000000000000000e+02,1.010581767423133215e+01
2.170000000000000000e+02,1.011629972097222741e+01
2.180000000000000000e+02,1.012656557857781969e+01
2.190000000000000000e+02,1.013661642375488547e+01
2.200000000000000000e+02,1.014645271687427730e+01
2.210000000000000000e+02,1.015607568446361242e+01
2.220000000000000000e+02,1.016548708561224501e+01
2.230000000000000000e+02,1.017468830291961623e+01
2.240000000000000000e+02,1.018368102364712335e+01
2.250000000000000000e+02,1.019246735020213812e+01
2.260000000000000000e+02,1.020114282683070783e+01
2.270000000000000000e+02,1.020958424845510493e+01
2.280000000000000000e+02,1.021782897796644107e+01
2.290000000000000000e+02,1.022588959737864478e+01
2.300000000000000000e+02,1.023376808348910316e+01
2.310000000000000000e+02,1.024146381580154852e+01
2.320000000000000000e+02,1.024897615932825268e+01
2.330000000000000000e+02,1.025630535466751425e+01
2.340000000000000000e+02,1.026345351176735754e+01
2.350000000000000000e+02,1.027042415335395020e+01
2.360000000000000000e+02,1.027722264956570264e+01
2.370000000000000000e+02,1.028385366134878254e+01
2.380000000000000000e+02,1.029032435247414057e+01
2.390000000000000000e+02,1.029663973826974477e+01
2.400000000000000000e+02,1.030280733233112400e+01
2.410000000000000000e+02,1.030883239681634400e+01
2.420000000000000000e+02,1.031472246836271367e+01
2.430000000000000000e+02,1.032048240111859805e+01
2.440000000000000000e+02,1.032611943324101134e+01
2.450000000000000000e+02,1.033164010466607330e+01
2.460000000000000000e+02,1.033704960505996162e+01
2.470000000000000000e+02,1.034235462751948198e+01
2.480000000000000000e+02,1.034756073816756938e+01
2.490000000000000000e+02,1.035267402128315872e+01
2.500000000000000000e+02,1.035770064131942370e+01
2.510000000000000000e+02,1.036264553540753575e+01
2.520000000000000000e+02,1.036751448932803044e+01
2.530000000000000000e+02,1.037231359027186706e+01
2.540000000000000000e+02,1.037704748691697532e+01
2.550000000000000000e+02,1.038172113441900279e+01
2.560000000000000000e+02,1.038633979358661996e+01
2.570000000000000000e+02,1.039090913848216502e+01
2.580000000000000000e+02,1.039543341362204920e+01
2.590000000000000000e+02,1.039991706408023830e+01
2.600000000000000000e+02,1.040436451868679413e+01
2.610000000000000000e+02,1.040878051454490816e+01
2.620000000000000000e+02,1.041316869258514721e+01
2.630000000000000000e+02,1.041753311251119918e+01
2.640000000000000000e+02,1.042187814344743302e+01
2.650000000000000000e+02,1.042620695521307006e+01
2.660000000000000000e+02,1.043052367533942615e+01
2.670000000000000000e+02,1.043483102003072105e+01
2.680000000000000000e+02,1.043913309293585101e+01
2.690000000000000000e+02,1.044343291087010073e+01
2.700000000000000000e+02,1.044773380244789429e+01
2.710000000000000000e+02,1.045203865671648913e+01
2.720000000000000000e+02,1.045635046026681714e+01
2.730000000000000000e+02,1.046067133399805904e+01
2.740000000000000000e+02,1.046500403308109206e+01
2.750000000000000000e+02,1.046935151707865330e+01
2.760000000000000000e+02,1.047371609532921788e+01
2.770000000000000000e+02,1.047809985605072924e+01
2.780000000000000000e+02,1.048250530637184852e+01
2.790000000000000000e+02,1.048693473182377289e+01
2.800000000000000000e+02,1.049225603923771821e+01
2.810000000000000000e+02,1.049713524033584378e+01
2.820000000000000000e+02,1.050189050492457632e+01
2.830000000000000000e+02,1.050660445792341591e+01
2.840000000000000000e+02,1.051129458419677398e+01
2.850000000000000000e+02,1.051598148143611589e+01
2.860000000000000000e+02,1.052067964556217028e+01
2.870000000000000000e+02,1.052540066773983796e+01
2.880000000000000000e+02,1.053015356364341493e+01
2.890000000000000000e+02,1.053494467902815757e+01
2.900000000000000000e+02,1.053977907122702717e+01
2.910000000000000000e+02,1.054466072515008257e+01
2.920000000000000000e+02,1.054959245265507839e+01
2.930000000000000000e+02,1.055457757900590643e+01
2.940000000000000000e+02,1.055961983515090807e+01
2.950000000000000000e+02,1.056471978947293344e+01
2.960000000000000000e+02,1.056987957779581322e+01
2.970000000000000000e+02,1.057510153481259607e+01
2.980000000000000000e+02,1.058038725170295535e+01
2.990000000000000000e+02,1.058574165369537390e+01
3.000000000000000000e+02,1.059116359065333768e+01
3.010000000000000000e+02,1.059665525029354782e+01
3.020000000000000000e+02,1.060222182841143912e+01
3.030000000000000000e+02,1.060786152580998198e+01
3.040000000000000000e+02,1.061357888654763570e+01
3.050000000000000000e+02,1.061937884680355992e+01
3.060000000000000000e+02,1.062525854060339192e+01
3.070000000000000000e+02,1.063122505361238801e+01
3.080000000000000000e+02,1.063728015922406911e+01
3.090000000000000000e+02,1.064342613474380705e+01
3.100000000000000000e+02,1.064966802881788865e+01
3.110000000000000000e+02,1.065600807762105262e+01
3.120000000000000000e+02,1.066245045732119578e+01
3.130000000000000000e+02,1.066899561552883746e+01
3.140000000000000000e+02,1.067564964045202558e+01
3.150000000000000000e+02,1.068241335141703452e+01
3.160000000000000000e+02,1.068929493277363107e+01
3.170000000000000000e+02,1.069629873310925561e+01
3.180000000000000000e+02,1.070342723026139353e+01
3.190000000000000000e+02,1.071068226740911733e+01
3.200000000000000000e+02,1.071807331075326530e+01
3.210000000000000000e+02,1.072560355655085296e+01
3.220000000000000000e+02,1.073328013454977814e+01
3.230000000000000000e+02,1.074110748328574338e+01
3.240000000000000000e+02,1.074909375069678852e+01
3.250000000000000000e+02,1.075724257074659995e+01
3.260000000000000000e+02,1.076555814586448889e+01
3.270000000000000000e+02,1.077404866997412469e+01
3.280000000000000000e+02,1.078272156292701034e+01
3.290000000000000000e+02,1.079158719309696757e+01
3.300000000000000000e+02,1.080065493634090856e+01
3.310000000000000000e+02,1.080992476571133132e+01
3.320000000000000000e+02,1.081941063018520488e+01
3.330000000000000000e+02,1.082912056484592789e+01
3.340000000000000000e+02,1.083906192026545590e+01
3.350000000000000000e+02,1.084924514444691290e+01
3.360000000000000000e+02,1.085967858811192777e+01
3.370000000000000000e+02,1.087037713890581969e+01
3.380000000000000000e+02,1.088135088066490219e+01
3.390000000000000000e+02,1.089260582577324676e+01
3.400000000000000000e+02,1.090415301027440265e+01
3.410000000000000000e+02,1.091600774823804620e+01
3.420000000000000000e+02,1.092818340238991581e+01
3.430000000000000000e+02,1.094069286389537510e+01
3.440000000000000000e+02,1.095353703642760479e+01
3.450000000000000000e+02,1.096673465788962076e+01
3.460000000000000000e+02,1.098029702994931078e+01
3.470000000000000000e+02,1.099423478134854371e+01
3.480000000000000000e+02,1.100855081692584214e+01
3.490000000000000000e+02,1.102326045038706326e+01
3.500000000000000000e+02,1.103836932749198496e+01
3.510000000000000000e+02,1.105387958513086488e+01
3.520000000000000000e+02,1.106980002280717912e+01
3.530000000000000000e+02,1.108612485758070676e+01
3.540000000000000000e+02,1.110284941466197672e+01
3.550000000000000000e+02,1.111997191282521236e+01
3.560000000000000000e+02,1.113747992688679389e+01
3.570000000000000000e+02,1.115535526239089847e+01
3.580000000000000000e+02,1.117357733972526290e+01
3.590000000000000000e+02,1.119211259216082865e+01
3.600000000000000000e+02,1.121093090268027836e+01
3.610000000000000000e+02,1.122998997046691372e+01
3.620000000000000000e+02,1.124924617310662711e+01
3.630000000000000000e+02,1.126864750961379791e+01
3.640000000000000000e+02,1.128814395831114581e+01
3.650000000000000000e+02,1.130766942102614259e+01
3.660000000000000000e+02,1.132717020079572201e+01
3.670000000000000000e+02,1.134658751778480834e+01
3.680000000000000000e+02,1.136586719901660381e+01
3.690000000000000000e+02,1.138495914140145260e+01
3.700000000000000000e+02,1.140381984229801127e+01
3.710000000000000000e+02,1.142240985377423179e+01
3.720000000000000000e+02,1.144069906687079019e+01
3.730000000000000000e+02,1.145866761707562453e+01
3.740000000000000000e+02,1.147629771255204290e+01
3.750000000000000000e+02,1.149358014954282048e+01
3.760000000000000000e+02,1.151051470601551152e+01
3.770000000000000000e+02,1.152710604247683790e+01
3.780000000000000000e+02,1.154335827382189272e+01
3.790000000000000000e+02,1.155928041070679946e+01
3.800000000000000000e+02,1.157488708179420023e+01
3.810000000000000000e+02,1.159018774548508901e+01
3.820000000000000000e+02,1.160519797592223412e+01
3.830000000000000000e+02,1.161993271413131090e+01
3.840000000000000000e+02,1.163440342877477995e+01
3.850000000000000000e+02,1.164862713675225159e+01
3.860000000000000000e+02,1.166261317352947557e+01
3.870000000000000000e+02,1.167637187595048331e+01
3.880000000000000000e+02,1.168991543053855509e+01
3.890000000000000000e+02,1.170325529190907865e+01
3.900000000000000000e+02,1.171639776056556848e+01
3.910000000000000000e+02,1.172935085018487023e+01
3.920000000000000000e+02,1.174212172375847629e+01
3.930000000000000000e+02,1.175471831460990124e+01
3.940000000000000000e+02,1.176714712210944569e+01
3.950000000000000000e+02,1.177940892601390743e+01
3.960000000000000000e+02,1.179151442225028923e+01
3.970000000000000000e+02,1.180346664626087616e+01
3.980000000000000000e+02,1.181526725715525750e+01
