# Time [s], Thickness [m]
1.000000000000000000e+00,8.000000400000000303e-03
2.000000000000000000e+00,8.000000400000000303e-03
3.000000000000000000e+00,8.000000400000000303e-03
4.000000000000000000e+00,8.000000400000000303e-03
5.000000000000000000e+00,8.000000400000000303e-03
6.000000000000000000e+00,8.000000400000000303e-03
7.000000000000000000e+00,8.000000400000000303e-03
8.000000000000000000e+00,8.000000400000000303e-03
9.000000000000000000e+00,8.000000400000000303e-03
1.000000000000000000e+01,8.000000400000000303e-03
1.100000000000000000e+01,8.000000400000000303e-03
1.200000000000000000e+01,8.000000400000000303e-03
1.300000000000000000e+01,8.000000400000000303e-03
1.400000000000000000e+01,8.000000400000000303e-03
1.500000000000000000e+01,7.999999400000000829e-03
1.600000000000000000e+01,7.999999400000000829e-03
1.700000000000000000e+01,7.999999400000000829e-03
1.800000000000000000e+01,7.999999400000000829e-03
1.900000000000000000e+01,7.999998499999999221e-03
2.000000000000000000e+01,7.999998499999999221e-03
2.100000000000000000e+01,7.999996699999999475e-03
2.200000000000000000e+01,7.999994800000000128e-03
2.300000000000000000e+01,7.999991999999999173e-03
2.400000000000000000e+01,7.999988300000000080e-03
2.500000000000000000e+01,7.999982699999999905e-03
2.600000000000000000e+01,7.999974300000000510e-03
2.700000000000000000e+01,7.999962200000000287e-03
2.800000000000000000e+01,7.999946399999999236e-03
2.900000000000000000e+01,7.999924000000000271e-03
3.000000000000000000e+01,7.999894199999999650e-03
3.100000000000000000e+01,7.999855099999999761e-03
3.200000000000000000e+01,7.999802900000000175e-03
3.300000000000000000e+01,7.999736800000000619e-03
3.400000000000000000e+01,7.999652100000000793e-03
3.500000000000000000e+01,7.999545000000000267e-03
3.600000000000000000e+01,7.999410900000000074e-03
3.700000000000000000e+01,7.999244100000000440e-03
3.800000000000000000e+01,7.999040199999999864e-03
3.900000000000000000e+01,7.998792500000000832e-03
4.000000000000000000e+01,7.998493500000000353e-03
4.100000000000000000e+01,7.998136799999999713e-03
4.200000000000000000e+01,7.997713099999999645e-03
4.300000000000000000e+01,7.997216700000000372e-03
4.400000000000000000e+01,7.996637399999999285e-03
4.500000000000000000e+01,7.995968699999999804e-03
4.600000000000000000e+01,7.995201299999999192e-03
4.700000000000000000e+01,7.994330500000000617e-03
4.800000000000000000e+01,7.993346999999999605e-03
4.900000000000000000e+01,7.992246200000000661e-03
5.000000000000000000e+01,7.991026199999999233e-03
5.100000000000000000e+01,7.989678499999999794e-03
5.200000000000000000e+01,7.988203299999999812e-03
5.300000000000000000e+01,7.986603300000000641e-03
5.400000000000000000e+01,7.984869199999999542e-03
5.500000000000000000e+01,7.983010299999999254e-03
5.600000000000000000e+01,7.981031200000000478e-03
5.700000000000000000e+01,7.978921800000000203e-03
5.800000000000000000e+01,7.976696800000000406e-03
5.900000000000000000e+01,7.974364799999999684e-03
6.000000000000000000e+01,7.971910800000000727e-03
6.100000000000000000e+01,7.969357999999999304e-03
6.200000000000000000e+01,7.966713999999999740e-03
6.300000000000000000e+01,7.963958199999999349e-03
6.400000000000000000e+01,7.961120500000000086e-03
6.500000000000000000e+01,7.958208200000000537e-03
6.600000000000000000e+01,7.955195400000000111e-03
6.700000000000000000e+01,7.952115500000000656e-03
6.800000000000000000e+01,7.948975100000000085e-03
6.900000000000000000e+01,7.945744299999999913e-03
7.000000000000000000e+01,7.942458600000000535e-03
7.100000000000000000e+01,7.939123500000000791e-03
7.200000000000000000e+01,7.935707499999999914e-03
7.300000000000000000e+01,7.932245699999999899e-03
7.400000000000000000e+01,7.928743999999999723e-03
7.500000000000000000e+01,7.925167699999999260e-03
7.600000000000000000e+01,7.921554100000000390e-03
7.700000000000000000e+01,7.917907099999999671e-03
7.800000000000000000e+01,7.914193899999999796e-03
7.900000000000000000e+01,7.910449099999999553e-03
8.000000000000000000e+01,7.906675300000000697e-03
8.100000000000000000e+01,7.902844799999999420e-03
8.200000000000000000e+01,7.898987300000000211e-03
8.300000000000000000e+01,7.895106400000000829e-03
8.400000000000000000e+01,7.891176300000000282e-03
8.500000000000000000e+01,7.887224700000000643e-03
8.600000000000000000e+01,7.883255400000000607e-03
8.700000000000000000e+01,7.879244199999999726e-03
8.800000000000000000e+01,7.875215300000000182e-03
8.900000000000000000e+01,7.871172399999999333e-03
9.000000000000000000e+01,7.867096000000000505e-03
9.100000000000000000e+01,7.863004700000000499e-03
9.200000000000000000e+01,7.858902200000000143e-03
9.300000000000000000e+01,7.854772700000000121e-03
9.400000000000000000e+01,7.850631099999999876e-03
9.500000000000000000e+01,7.846480200000000363e-03
9.600000000000000000e+01,7.842306999999999750e-03
9.700000000000000000e+01,7.838123500000000396e-03
9.800000000000000000e+01,7.833931599999999912e-03
9.900000000000000000e+01,7.829722000000000764e-03
1.000000000000000000e+02,7.825503100000000614e-03
1.010000000000000000e+02,7.821277700000000416e-03
1.020000000000000000e+02,7.817036499999999166e-03
1.030000000000000000e+02,7.812786800000000656e-03
1.040000000000000000e+02,7.808532600000000178e-03
1.050000000000000000e+02,7.804264800000000266e-03
1.060000000000000000e+02,7.799989499999999965e-03
1.070000000000000000e+02,7.795709700000000297e-03
1.080000000000000000e+02,7.791418999999999949e-03
1.090000000000000000e+02,7.787120500000000410e-03
1.100000000000000000e+02,7.782818300000000043e-03
1.110000000000000000e+02,7.778505800000000067e-03
1.120000000000000000e+02,7.774186800000000043e-03
1.130000000000000000e+02,7.769862699999999581e-03
1.140000000000000000e+02,7.765530100000000123e-03
1.150000000000000000e+02,7.761190599999999613e-03
1.160000000000000000e+02,7.756846000000000400e-03
1.170000000000000000e+02,7.752492599999999921e-03
1.180000000000000000e+02,7.748132100000000057e-03
1.190000000000000000e+02,7.743765599999999881e-03
1.200000000000000000e+02,7.739390700000000310e-03
1.210000000000000000e+02,7.735008399999999951e-03
1.220000000000000000e+02,7.730619999999999679e-03
1.230000000000000000e+02,7.726222700000000276e-03
1.240000000000000000e+02,7.721818099999999685e-03
1.250000000000000000e+02,7.717405899999999971e-03
1.260000000000000000e+02,7.712984899999999859e-03
1.270000000000000000e+02,7.708555599999999952e-03
1.280000000000000000e+02,7.704118700000000056e-03
1.290000000000000000e+02,7.699672599999999624e-03
1.300000000000000000e+02,7.695217199999999924e-03
1.310000000000000000e+02,7.690753800000000098e-03
1.320000000000000000e+02,7.686280200000000264e-03
1.330000000000000000e+02,7.681796799999999689e-03
1.340000000000000000e+02,7.677304099999999847e-03
1.350000000000000000e+02,7.672800700000000258e-03
1.360000000000000000e+02,7.668287000000000193e-03
1.370000000000000000e+02,7.663763100000000120e-03
1.380000000000000000e+02,7.659228100000000164e-03
1.390000000000000000e+02,7.654681299999999654e-03
1.400000000000000000e+02,7.650123400000000129e-03
1.410000000000000000e+02,7.645553400000000381e-03
1.420000000000000000e+02,7.640970900000000274e-03
1.430000000000000000e+02,7.635750799999999582e-03
1.440000000000000000e+02,7.630555399999999940e-03
1.450000000000000000e+02,7.625608699999999671e-03
1.460000000000000000e+02,7.620703399999999642e-03
1.470000000000000000e+02,7.615843800000000018e-03
1.480000000000000000e+02,7.611001800000000324e-03
1.490000000000000000e+02,7.606164599999999665e-03
1.500000000000000000e+02,7.601331900000000107e-03
1.510000000000000000e+02,7.596490899999999886e-03
1.520000000000000000e+02,7.591647600000000183e-03
1.530000000000000000e+02,7.586791199999999916e-03
1.540000000000000000e+02,7.581927300000000126e-03
1.550000000000000000e+02,7.577048099999999890e-03
1.560000000000000000e+02,7.572157799999999772e-03
1.570000000000000000e+02,7.567251100000000133e-03
1.580000000000000000e+02,7.562330899999999793e-03
1.590000000000000000e+02,7.557393499999999660e-03
1.600000000000000000e+02,7.552439799999999606e-03
1.610000000000000000e+02,7.547467900000000285e-03
1.620000000000000000e+02,7.542478899999999903e-03
1.630000000000000000e+02,7.537470699999999912e-03
1.640000000000000000e+02,7.532443899999999651e-03
1.650000000000000000e+02,7.527396999999999908e-03
1.660000000000000000e+02,7.522329700000000147e-03
1.670000000000000000e+02,7.517241899999999900e-03
1.680000000000000000e+02,7.512132599999999695e-03
1.690000000000000000e+02,7.507001499999999862e-03
1.700000000000000000e+02,7.501847600000000060e-03
1.710000000000000000e+02,7.496671300000000426e-03
1.720000000000000000e+02,7.491471199999999615e-03
1.730000000000000000e+02,7.486246999999999693e-03
1.740000000000000000e+02,7.480998099999999588e-03
1.750000000000000000e+02,7.475723499999999827e-03
1.760000000000000000e+02,7.470423799999999746e-03
1.770000000000000000e+02,7.465097599999999736e-03
1.780000000000000000e+02,7.459744299999999592e-03
1.790000000000000000e+02,7.454363599999999646e-03
1.800000000000000000e+02,7.448954500000000423e-03
1.810000000000000000e+02,7.443516499999999585e-03
1.820000000000000000e+02,7.438049199999999597e-03
1.830000000000000000e+02,7.432551600000000119e-03
1.840000000000000000e+02,7.427023700000000284e-03
1.850000000000000000e+02,7.421464200000000080e-03
1.860000000000000000e+02,7.415872500000000173e-03
1.870000000000000000e+02,7.410248300000000024e-03
1.880000000000000000e+02,7.404589999999999957e-03
1.890000000000000000e+02,7.398897800000000038e-03
1.900000000000000000e+02,7.393170099999999724e-03
1.910000000000000000e+02,7.387407099999999949e-03
1.920000000000000000e+02,7.381607800000000372e-03
1.930000000000000000e+02,7.375771199999999785e-03
1.940000000000000000e+02,7.369896899999999786e-03
1.950000000000000000e+02,7.363983900000000034e-03
1.960000000000000000e+02,7.358031299999999789e-03
1.970000000000000000e+02,7.352039200000000385e-03
1.980000000000000000e+02,7.346005600000000274e-03
1.990000000000000000e+02,7.339930199999999787e-03
2.000000000000000000e+02,7.333812799999999722e-03
2.010000000000000000e+02,7.327652100000000071e-03
2.020000000000000000e+02,7.321447600000000229e-03
2.030000000000000000e+02,7.315198400000000323e-03
2.040000000000000000e+02,7.308904100000000216e-03
2.050000000000000000e+02,7.302564099999999704e-03
2.060000000000000000e+02,7.296177600000000249e-03
2.070000000000000000e+02,7.289743999999999911e-03
2.080000000000000000e+02,7.283262900000000289e-03
2.090000000000000000e+02,7.276733900000000380e-03
2.100000000000000000e+02,7.270156899999999714e-03
2.110000000000000000e+02,7.263530500000000417e-03
2.120000000000000000e+02,7.256854800000000355e-03
2.130000000000000000e+02,7.250129699999999927e-03
2.140000000000000000e+02,7.243355299999999601e-03
2.150000000000000000e+02,7.236531000000000040e-03
2.160000000000000000e+02,7.229455699999999888e-03
2.170000000000000000e+02,7.222375799999999901e-03
2.180000000000000000e+02,7.215279199999999858e-03
2.190000000000000000e+02,7.208154999999999944e-03
2.200000000000000000e+02,7.200999700000000267e-03
2.210000000000000000e+02,7.193808000000000320e-03
2.220000000000000000e+02,7.186577700000000221e-03
2.230000000000000000e+02,7.179307799999999629e-03
2.240000000000000000e+02,7.171996899999999800e-03
2.250000000000000000e+02,7.164644500000000131e-03
2.260000000000000000e+02,7.157251699999999696e-03
2.270000000000000000e+02,7.149817400000000288e-03
2.280000000000000000e+02,7.142343100000000250e-03
2.290000000000000000e+02,7.134829599999999855e-03
2.300000000000000000e+02,7.127277999999999912e-03
2.310000000000000000e+02,7.119689099999999826e-03
2.320000000000000000e+02,7.112064900000000280e-03
2.330000000000000000e+02,7.104406599999999947e-03
2.340000000000000000e+02,7.096716700000000114e-03
2.350000000000000000e+02,7.088995499999999582e-03
2.360000000000000000e+02,7.081246499999999978e-03
2.370000000000000000e+02,7.073469899999999637e-03
2.380000000000000000e+02,7.065669200000000184e-03
2.390000000000000000e+02,7.057845600000000295e-03
2.400000000000000000e+02,7.050001499999999921e-03
2.410000000000000000e+02,7.042138400000000006e-03
2.420000000000000000e+02,7.034258499999999567e-03
2.430000000000000000e+02,7.026364600000000425e-03
2.440000000000000000e+02,7.018458099999999589e-03
2.450000000000000000e+02,7.010540899999999874e-03
2.460000000000000000e+02,7.002615400000000365e-03
2.470000000000000000e+02,6.994683800000000076e-03
2.480000000000000000e+02,6.986748000000000090e-03
2.490000000000000000e+02,6.978809400000000017e-03
2.500000000000000000e+02,6.970869799999999603e-03
2.510000000000000000e+02,6.962931700000000133e-03
2.520000000000000000e+02,6.954995900000000147e-03
2.530000000000000000e+02,6.947064799999999596e-03
2.540000000000000000e+02,6.939140100000000359e-03
2.550000000000000000e+02,6.931223000000000245e-03
2.560000000000000000e+02,6.923314600000000062e-03
2.570000000000000000e+02,6.915417000000000092e-03
2.580000000000000000e+02,6.907531500000000345e-03
2.590000000000000000e+02,6.899658599999999690e-03
2.600000000000000000e+02,6.891800600000000214e-03
2.610000000000000000e+02,6.883957399999999713e-03
2.620000000000000000e+02,6.876131100000000204e-03
2.630000000000000000e+02,6.868322399999999758e-03
2.640000000000000000e+02,6.860531900000000315e-03
2.650000000000000000e+02,6.852760900000000148e-03
2.660000000000000000e+02,6.845010399999999599e-03
2.670000000000000000e+02,6.837280500000000004e-03
2.680000000000000000e+02,6.829435000000000019e-03
2.690000000000000000e+02,6.821637999999999660e-03
2.700000000000000000e+02,6.813883800000000018e-03
2.710000000000000000e+02,6.806166800000000051e-03
2.720000000000000000e+02,6.798486200000000354e-03
2.730000000000000000e+02,6.790838199999999630e-03
2.740000000000000000e+02,6.783223199999999752e-03
2.750000000000000000e+02,6.775638999999999967e-03
2.760000000000000000e+02,6.768086000000000414e-03
2.770000000000000000e+02,6.760562799999999747e-03
2.780000000000000000e+02,6.753070299999999575e-03
2.790000000000000000e+02,6.745607100000000286e-03
2.800000000000000000e+02,6.738174700000000225e-03
2.810000000000000000e+02,6.730770700000000308e-03
2.820000000000000000e+02,6.723397400000000017e-03
2.830000000000000000e+02,6.716052999999999606e-03
2.840000000000000000e+02,6.708739299999999690e-03
2.850000000000000000e+02,6.701454100000000386e-03
2.860000000000000000e+02,6.694199500000000240e-03
2.870000000000000000e+02,6.686973899999999575e-03
2.880000000000000000e+02,6.679778899999999804e-03
2.890000000000000000e+02,6.672611900000000040e-03
2.900000000000000000e+02,6.665476099999999640e-03
2.910000000000000000e+02,6.658367299999999774e-03
2.920000000000000000e+02,6.651317700000000145e-03
2.930000000000000000e+02,6.644316499999999674e-03
2.940000000000000000e+02,6.637384199999999713e-03
2.950000000000000000e+02,6.630509599999999913e-03
2.960000000000000000e+02,6.623677900000000431e-03
2.970000000000000000e+02,6.616879299999999658e-03
2.980000000000000000e+02,6.610114099999999868e-03
2.990000000000000000e+02,6.603378299999999694e-03
3.000000000000000000e+02,6.596674700000000093e-03
3.010000000000000000e+02,6.590001300000000381e-03
3.020000000000000000e+02,6.583361000000000247e-03
3.030000000000000000e+02,6.576753700000000091e-03
3.040000000000000000e+02,6.570181799999999864e-03
3.050000000000000000e+02,6.563644399999999691e-03
3.060000000000000000e+02,6.557144699999999798e-03
3.070000000000000000e+02,6.550682199999999580e-03
3.080000000000000000e+02,6.544258899999999719e-03
3.090000000000000000e+02,6.537874699999999747e-03
3.100000000000000000e+02,6.531531499999999879e-03
3.110000000000000000e+02,6.525228299999999773e-03
3.120000000000000000e+02,6.518966999999999644e-03
3.130000000000000000e+02,6.512775099999999762e-03
3.140000000000000000e+02,6.506639500000000430e-03
3.150000000000000000e+02,6.500579400000000389e-03
3.160000000000000000e+02,6.494594700000000040e-03
3.170000000000000000e+02,6.488679399999999937e-03
3.180000000000000000e+02,6.482825099999999820e-03
3.190000000000000000e+02,6.477032800000000028e-03
3.200000000000000000e+02,6.471297699999999792e-03
3.210000000000000000e+02,6.465623600000000408e-03
3.220000000000000000e+02,6.460008199999999791e-03
3.230000000000000000e+02,6.454455700000000240e-03
3.240000000000000000e+02,6.448965099999999680e-03
3.250000000000000000e+02,6.443542000000000020e-03
3.260000000000000000e+02,6.438184999999999915e-03
3.270000000000000000e+02,6.432900200000000145e-03
3.280000000000000000e+02,6.427644300000000255e-03
3.290000000000000000e+02,6.422469400000000231e-03
3.300000000000000000e+02,6.417373700000000326e-03
3.310000000000000000e+02,6.412390199999999651e-03
3.320000000000000000e+02,6.407498400000000323e-03
3.330000000000000000e+02,6.402699700000000216e-03
3.340000000000000000e+02,6.397996999999999886e-03
3.350000000000000000e+02,6.393399099999999731e-03
3.360000000000000000e+02,6.388913799999999810e-03
3.370000000000000000e+02,6.384548700000000111e-03
3.380000000000000000e+02,6.380306999999999992e-03
3.390000000000000000e+02,6.376194299999999628e-03
3.400000000000000000e+02,6.372211499999999758e-03
3.410000000000000000e+02,6.368363699999999954e-03
3.420000000000000000e+02,6.364650999999999816e-03
3.430000000000000000e+02,6.361078899999999918e-03
3.440000000000000000e+02,6.357645200000000378e-03
3.450000000000000000e+02,6.354355699999999704e-03
3.460000000000000000e+02,6.351233500000000136e-03
3.470000000000000000e+02,6.348260700000000339e-03
3.480000000000000000e+02,6.345441099999999876e-03
3.490000000000000000e+02,6.342773799999999740e-03
3.500000000000000000e+02,6.340264800000000242e-03
3.510000000000000000e+02,6.337914200000000116e-03
3.520000000000000000e+02,6.335723199999999770e-03
3.530000000000000000e+02,6.333685900000000230e-03
3.540000000000000000e+02,6.331800900000000148e-03
3.550000000000000000e+02,6.330057499999999782e-03
3.560000000000000000e+02,6.328452800000000308e-03
3.570000000000000000e+02,6.326974400000000102e-03
3.580000000000000000e+02,6.325618400000000002e-03
3.590000000000000000e+02,6.324396000000000358e-03
3.600000000000000000e+02,6.323280300000000236e-03
3.610000000000000000e+02,6.322266099999999597e-03
3.620000000000000000e+02,6.321343099999999701e-03
3.630000000000000000e+02,6.320508699999999661e-03
3.640000000000000000e+02,6.319751999999999661e-03
3.650000000000000000e+02,6.319070199999999617e-03
3.660000000000000000e+02,6.318450399999999897e-03
3.670000000000000000e+02,6.317891200000000027e-03
3.680000000000000000e+02,6.317378999999999703e-03
3.690000000000000000e+02,6.316915200000000272e-03
3.700000000000000000e+02,6.316507699999999656e-03
3.710000000000000000e+02,6.316136600000000177e-03
3.720000000000000000e+02,6.315800800000000159e-03
3.730000000000000000e+02,6.315493999999999622e-03
3.740000000000000000e+02,6.315216400000000369e-03
3.750000000000000000e+02,6.314961699999999817e-03
3.760000000000000000e+02,6.314730699999999974e-03
3.770000000000000000e+02,6.314516099999999653e-03
3.780000000000000000e+02,6.314320499999999739e-03
3.790000000000000000e+02,6.314134699999999698e-03
3.800000000000000000e+02,6.313977299999999800e-03
3.810000000000000000e+02,6.313833399999999735e-03
3.820000000000000000e+02,6.313702099999999630e-03
3.830000000000000000e+02,6.313581000000000401e-03
3.840000000000000000e+02,6.313469300000000041e-03
3.850000000000000000e+02,6.313365399999999739e-03
3.860000000000000000e+02,6.313267600000000215e-03
3.870000000000000000e+02,6.313175899999999736e-03
3.880000000000000000e+02,6.313087900000000086e-03
3.890000000000000000e+02,6.313003600000000395e-03
3.900000000000000000e+02,6.312934200000000148e-03
3.910000000000000000e+02,6.312868999999999599e-03
3.920000000000000000e+02,6.312807999999999614e-03
3.930000000000000000e+02,6.312750300000000321e-03
3.940000000000000000e+02,6.312696300000000121e-03
3.950000000000000000e+02,6.312644099999999668e-03
3.960000000000000000e+02,6.312595199999999906e-03
3.970000000000000000e+02,6.312545900000000008e-03
3.980000000000000000e+02,6.312498399999999857e-03
3.990000000000000000e+02,6.312461099999999714e-03
