# Time [s], Convective Heat Transfer Coefficient [W/m2K]
1.000000000000000000e+00,0.000000000000000000e+00
2.000000000000000000e+00,0.000000000000000000e+00
3.000000000000000000e+00,0.000000000000000000e+00
4.000000000000000000e+00,0.000000000000000000e+00
5.000000000000000000e+00,2.412849599104084641e-02
6.000000000000000000e+00,3.908348017778424249e-02
7.000000000000000000e+00,6.294042979074807032e-02
8.000000000000000000e+00,9.549797183258768030e-02
9.000000000000000000e+00,1.378552141071554271e-01
1.000000000000000000e+01,1.898661457223069782e-01
1.100000000000000000e+01,2.515399025574309166e-01
1.200000000000000000e+01,3.222949141016735464e-01
1.300000000000000000e+01,4.013690772558443087e-01
1.400000000000000000e+01,4.877864090808869957e-01
1.500000000000000000e+01,5.805324552517716619e-01
1.600000000000000000e+01,6.786234619695510339e-01
1.700000000000000000e+01,7.811174468398284221e-01
1.800000000000000000e+01,8.871586943519017554e-01
1.900000000000000000e+01,9.959903059544740200e-01
2.000000000000000000e+01,1.106937156386097687e+00
2.100000000000000000e+01,1.219427745221481674e+00
2.200000000000000000e+01,1.332960857228742801e+00
2.300000000000000000e+01,1.447113003402092035e+00
2.400000000000000000e+01,1.561522300916043493e+00
2.500000000000000000e+01,1.675886013585160761e+00
2.600000000000000000e+01,1.789942465178169462e+00
2.700000000000000000e+01,1.903478844582813689e+00
2.800000000000000000e+01,2.016313866056428594e+00
2.900000000000000000e+01,2.128299563270013905e+00
3.000000000000000000e+01,2.239309094878465523e+00
3.100000000000000000e+01,2.349247110460481736e+00
3.200000000000000000e+01,2.458021921268052967e+00
3.300000000000000000e+01,2.565568711134421864e+00
3.400000000000000000e+01,2.671841178913846981e+00
3.500000000000000000e+01,2.776796463361836498e+00
3.600000000000000000e+01,2.880400088182804463e+00
3.700000000000000000e+01,2.982632029799613171e+00
3.800000000000000000e+01,3.083476905884054986e+00
3.900000000000000000e+01,3.182926267292765399e+00
4.000000000000000000e+01,3.280977811553923651e+00
4.100000000000000000e+01,3.377634244552725207e+00
4.200000000000000000e+01,3.472893897341651215e+00
4.300000000000000000e+01,3.566769526597110662e+00
4.400000000000000000e+01,3.659268310246704736e+00
4.500000000000000000e+01,3.750409629322055682e+00
4.600000000000000000e+01,3.840205982608033697e+00
4.700000000000000000e+01,3.928669195393531322e+00
4.800000000000000000e+01,4.015820090256379871e+00
4.900000000000000000e+01,4.101675523187376271e+00
5.000000000000000000e+01,4.186254477283615216e+00
5.100000000000000000e+01,4.269579496955908660e+00
5.200000000000000000e+01,4.351664518680679272e+00
5.300000000000000000e+01,4.432529537895735672e+00
5.400000000000000000e+01,4.512198022964041044e+00
5.500000000000000000e+01,4.590685969641175923e+00
5.600000000000000000e+01,4.668012997964868127e+00
5.700000000000000000e+01,4.744196106321790118e+00
5.800000000000000000e+01,4.819257947119458763e+00
5.900000000000000000e+01,4.893215728800112352e+00
6.000000000000000000e+01,4.966083599063188636e+00
6.100000000000000000e+01,5.037883071810727920e+00
6.200000000000000000e+01,5.108631689512214358e+00
6.300000000000000000e+01,5.178345430995655363e+00
6.400000000000000000e+01,5.247041810959103714e+00
6.500000000000000000e+01,5.314737623004870848e+00
6.600000000000000000e+01,5.381447952017666125e+00
6.700000000000000000e+01,5.447187068743009064e+00
6.800000000000000000e+01,5.511970819938447619e+00
6.900000000000000000e+01,5.575816925345670860e+00
7.000000000000000000e+01,5.638738576466430175e+00
7.100000000000000000e+01,5.700751983277710266e+00
7.200000000000000000e+01,5.761870939826000182e+00
7.300000000000000000e+01,5.822112945778987303e+00
7.400000000000000000e+01,5.881488718790176762e+00
7.500000000000000000e+01,5.940014015291444238e+00
7.600000000000000000e+01,5.997705443296114325e+00
7.700000000000000000e+01,6.054574646088559220e+00
7.800000000000000000e+01,6.110638143239597753e+00
7.900000000000000000e+01,6.165907515600905775e+00
8.000000000000000000e+01,6.220397749350262906e+00
8.100000000000000000e+01,6.274124402286362923e+00
8.200000000000000000e+01,6.327098515842266124e+00
8.300000000000000000e+01,6.379336150708664555e+00
8.400000000000000000e+01,6.430848888991651968e+00
8.500000000000000000e+01,6.481652509826964170e+00
8.600000000000000000e+01,6.531758950503407490e+00
8.700000000000000000e+01,6.581181185402978251e+00
8.800000000000000000e+01,6.629933597197699591e+00
8.900000000000000000e+01,6.678028459780795068e+00
9.000000000000000000e+01,6.725479190631067361e+00
9.100000000000000000e+01,6.772296696221436818e+00
9.200000000000000000e+01,6.818495583663504611e+00
9.300000000000000000e+01,6.864085714503879387e+00
9.400000000000000000e+01,6.909081587701362714e+00
9.500000000000000000e+01,6.953492842466686419e+00
9.600000000000000000e+01,6.997333649308639103e+00
9.700000000000000000e+01,7.040613929862312048e+00
9.800000000000000000e+01,7.083344281661344333e+00
9.900000000000000000e+01,7.125536860477539314e+00
1.000000000000000000e+02,7.167201872697075871e+00
1.010000000000000000e+02,7.208350617480338229e+00
1.020000000000000000e+02,7.250310191141446481e+00
1.030000000000000000e+02,7.290950290522263622e+00
1.040000000000000000e+02,7.330898798545649520e+00
1.050000000000000000e+02,7.370300883079486276e+00
1.060000000000000000e+02,7.409189524505981339e+00
1.070000000000000000e+02,7.447587848913270747e+00
1.080000000000000000e+02,7.485514242660872064e+00
1.090000000000000000e+02,7.522981566060755299e+00
1.100000000000000000e+02,7.560003781392804711e+00
1.110000000000000000e+02,7.596590630781536291e+00
1.120000000000000000e+02,7.632753668289032234e+00
1.130000000000000000e+02,7.668502794503047504e+00
1.140000000000000000e+02,7.703848505967626714e+00
1.150000000000000000e+02,7.738798353133911512e+00
1.160000000000000000e+02,7.773362305226080515e+00
1.170000000000000000e+02,7.807545733139856559e+00
1.180000000000000000e+02,7.841357987395245033e+00
1.190000000000000000e+02,7.874803735599961385e+00
1.200000000000000000e+02,7.907891210240596713e+00
1.210000000000000000e+02,7.940627421199479841e+00
1.220000000000000000e+02,7.973016918742091619e+00
1.230000000000000000e+02,8.005066825858634161e+00
1.240000000000000000e+02,8.036783837759140070e+00
1.250000000000000000e+02,8.068171722840617122e+00
1.260000000000000000e+02,8.099237860772630526e+00
1.270000000000000000e+02,8.129986022351399555e+00
1.280000000000000000e+02,8.160421779582479829e+00
1.290000000000000000e+02,8.190551218529986244e+00
1.300000000000000000e+02,8.220379536184214686e+00
1.310000000000000000e+02,8.249909525882474171e+00
1.320000000000000000e+02,8.279147299003287941e+00
1.330000000000000000e+02,8.308099286628955582e+00
1.340000000000000000e+02,8.336768019516664907e+00
1.350000000000000000e+02,8.365157113344691808e+00
1.360000000000000000e+02,8.393271731063649099e+00
1.370000000000000000e+02,8.421116056377533354e+00
1.380000000000000000e+02,8.448694802889614053e+00
1.390000000000000000e+02,8.476010753845738321e+00
1.400000000000000000e+02,8.503068062658934778e+00
1.410000000000000000e+02,8.529869796952020522e+00
1.420000000000000000e+02,8.556419891805875366e+00
1.430000000000000000e+02,8.582721693499346216e+00
1.440000000000000000e+02,8.608778136103207856e+00
1.450000000000000000e+02,8.634593324512138679e+00
1.460000000000000000e+02,8.660169222655301979e+00
1.470000000000000000e+02,8.685509596152465761e+00
1.480000000000000000e+02,8.710617183560083632e+00
1.490000000000000000e+02,8.735494800225033885e+00
1.500000000000000000e+02,8.760145031505544466e+00
1.510000000000000000e+02,8.784570543043015434e+00
1.520000000000000000e+02,8.808774078984910716e+00
1.530000000000000000e+02,8.832757560058215773e+00
1.540000000000000000e+02,8.856523449286440197e+00
1.550000000000000000e+02,8.880073847157973432e+00
1.560000000000000000e+02,8.903411092219338130e+00
1.570000000000000000e+02,8.926537755218161507e+00
1.580000000000000000e+02,8.949455610463161293e+00
1.590000000000000000e+02,8.972165656431711156e+00
1.600000000000000000e+02,8.994671029177370158e+00
1.610000000000000000e+02,9.016972630238955233e+00
1.620000000000000000e+02,9.039072763684472989e+00
1.630000000000000000e+02,9.060973533826244264e+00
1.640000000000000000e+02,9.082675573304927141e+00
1.650000000000000000e+02,9.104180479082693012e+00
1.660000000000000000e+02,9.125489805846259017e+00
1.670000000000000000e+02,9.146605347035789535e+00
1.680000000000000000e+02,9.167528711746635750e+00
1.690000000000000000e+02,9.188259387961359437e+00
1.700000000000000000e+02,9.208800035539288942e+00
1.710000000000000000e+02,9.229151743256544194e+00
1.720000000000000000e+02,9.249315158244879598e+00
1.730000000000000000e+02,9.269290359338517860e+00
1.740000000000000000e+02,9.289079853724482305e+00
1.750000000000000000e+02,9.308682986823500372e+00
1.760000000000000000e+02,9.328101255291437965e+00
1.770000000000000000e+02,9.347335180868967086e+00
1.780000000000000000e+02,9.366384730723744667e+00
1.790000000000000000e+02,9.385251321991697537e+00
1.800000000000000000e+02,9.403933689292090392e+00
1.810000000000000000e+02,9.422433870860388083e+00
1.820000000000000000e+02,9.440750182899007470e+00
1.830000000000000000e+02,9.458883702289856643e+00
1.840000000000000000e+02,9.476834042692175331e+00
1.850000000000000000e+02,9.494601719408395368e+00
1.860000000000000000e+02,9.512184768672639734e+00
1.870000000000000000e+02,9.529588073824225347e+00
1.880000000000000000e+02,9.546806287301196292e+00
1.890000000000000000e+02,9.563840267633491266e+00
1.900000000000000000e+02,9.580691612186933881e+00
1.910000000000000000e+02,9.597362136074087502e+00
1.920000000000000000e+02,9.613850829078975480e+00
1.930000000000000000e+02,9.630158069256406606e+00
1.940000000000000000e+02,9.646282328380825888e+00
1.950000000000000000e+02,9.662220830259048654e+00
1.960000000000000000e+02,9.677971195098944435e+00
1.970000000000000000e+02,9.693529438788765162e+00
1.980000000000000000e+02,9.708893101918278035e+00
1.990000000000000000e+02,9.724059738874565539e+00
2.000000000000000000e+02,9.739026422909249803e+00
2.010000000000000000e+02,9.753791351936037302e+00
2.020000000000000000e+02,9.768352603743343465e+00
2.030000000000000000e+02,9.782707402994320844e+00
2.040000000000000000e+02,9.796853962110782632e+00
2.050000000000000000e+02,9.810790736292615222e+00
2.060000000000000000e+02,9.824515691575307130e+00
2.070000000000000000e+02,9.838027762113702224e+00
2.080000000000000000e+02,9.851325026830867415e+00
2.090000000000000000e+02,9.864405923148330757e+00
2.100000000000000000e+02,9.877269121375928052e+00
2.110000000000000000e+02,9.889912563471284557e+00
2.120000000000000000e+02,9.902336217201025192e+00
2.130000000000000000e+02,9.914538001231548492e+00
2.140000000000000000e+02,9.926517254843208349e+00
2.150000000000000000e+02,9.938272705264243001e+00
2.160000000000000000e+02,9.949804484458040221e+00
2.170000000000000000e+02,9.961111281046722610e+00
2.180000000000000000e+02,9.972194123072362970e+00
2.190000000000000000e+02,9.983052005889993197e+00
2.200000000000000000e+02,9.993685313092523614e+00
2.210000000000000000e+02,1.000409474880236793e+01
2.220000000000000000e+02,1.001428191804859047e+01
2.230000000000000000e+02,1.002424698806523473e+01
2.240000000000000000e+02,1.003399137694870191e+01
2.250000000000000000e+02,1.004351669729387098e+01
2.260000000000000000e+02,1.005282579734583059e+01
2.270000000000000000e+02,1.006192043789289237e+01
2.280000000000000000e+02,1.007080349587227452e+01
2.290000000000000000e+02,1.007947826403454705e+01
2.300000000000000000e+02,1.008794752826525887e+01
2.310000000000000000e+02,1.009621541035750880e+01
2.320000000000000000e+02,1.010428598245154674e+01
2.330000000000000000e+02,1.011216361232496119e+01
2.340000000000000000e+02,1.011985239105421108e+01
2.350000000000000000e+02,1.012735739205021801e+01
2.360000000000000000e+02,1.013468329770508802e+01
2.370000000000000000e+02,1.014183622477414382e+01
2.380000000000000000e+02,1.014882076106058761e+01
2.390000000000000000e+02,1.015564338259700961e+01
2.400000000000000000e+02,1.016230915548965541e+01
2.410000000000000000e+02,1.016882480341135420e+01
2.420000000000000000e+02,1.017519553288316558e+01
2.430000000000000000e+02,1.018142843216492643e+01
2.440000000000000000e+02,1.018752862649573920e+01
2.450000000000000000e+02,1.019350300909555607e+01
2.460000000000000000e+02,1.019959777500296383e+01
2.470000000000000000e+02,1.020547880233565508e+01
2.480000000000000000e+02,1.021123518023087762e+01
2.490000000000000000e+02,1.021688695112975154e+01
2.500000000000000000e+02,1.022243322606611571e+01
2.510000000000000000e+02,1.022787613518018013e+01
2.520000000000000000e+02,1.023322025284890557e+01
2.530000000000000000e+02,1.023847146885176862e+01
2.540000000000000000e+02,1.024363765191292153e+01
2.550000000000000000e+02,1.024872652337150569e+01
2.560000000000000000e+02,1.025374510240503412e+01
2.570000000000000000e+02,1.025870137894016487e+01
2.580000000000000000e+02,1.026360208740076629e+01
2.590000000000000000e+02,1.026845337962185312e+01
2.600000000000000000e+02,1.027326049547792941e+01
2.610000000000000000e+02,1.027802920820346877e+01
2.620000000000000000e+02,1.028276449380628499e+01
2.630000000000000000e+02,1.028747108813379363e+01
2.640000000000000000e+02,1.029215426180370940e+01
2.650000000000000000e+02,1.029681827228120383e+01
2.660000000000000000e+02,1.030146658925958469e+01
2.670000000000000000e+02,1.030610233916614682e+01
2.680000000000000000e+02,1.031072962811380478e+01
2.690000000000000000e+02,1.031535298750469565e+01
2.700000000000000000e+02,1.031997429457371140e+01
2.710000000000000000e+02,1.032459717688687206e+01
2.720000000000000000e+02,1.032922393242357550e+01
2.730000000000000000e+02,1.033385783749221609e+01
2.740000000000000000e+02,1.033850204710361531e+01
2.750000000000000000e+02,1.034315839181055274e+01
2.760000000000000000e+02,1.034782902344381128e+01
2.770000000000000000e+02,1.035251597670873203e+01
2.780000000000000000e+02,1.035722237001576929e+01
2.790000000000000000e+02,1.036195076508412960e+01
2.800000000000000000e+02,1.036670414968047460e+01
2.810000000000000000e+02,1.037148071194016197e+01
2.820000000000000000e+02,1.037628408248673395e+01
2.830000000000000000e+02,1.038111679183960945e+01
2.840000000000000000e+02,1.038597984126541185e+01
2.850000000000000000e+02,1.039087607080902842e+01
2.860000000000000000e+02,1.039580657607892533e+01
2.870000000000000000e+02,1.040077277241595688e+01
2.880000000000000000e+02,1.040577520408116285e+01
2.890000000000000000e+02,1.041081722050221536e+01
2.900000000000000000e+02,1.041589956761844959e+01
2.910000000000000000e+02,1.042102352638607599e+01
2.920000000000000000e+02,1.042619187923523150e+01
2.930000000000000000e+02,1.043140492206607206e+01
2.940000000000000000e+02,1.043666499024752703e+01
2.950000000000000000e+02,1.044197215380662946e+01
2.960000000000000000e+02,1.044732991308401182e+01
2.970000000000000000e+02,1.045273735980522289e+01
2.980000000000000000e+02,1.045819744085413738e+01
2.990000000000000000e+02,1.046371116465910234e+01
3.000000000000000000e+02,1.047070225193567872e+01
3.010000000000000000e+02,1.047679070137309587e+01
3.020000000000000000e+02,1.048264741788678123e+01
3.030000000000000000e+02,1.048846280111389184e+01
3.040000000000000000e+02,1.049428056505901274e+01
3.050000000000000000e+02,1.050013722234138491e+01
3.060000000000000000e+02,1.050604653255637899e+01
3.070000000000000000e+02,1.051201975545865608e+01
3.080000000000000000e+02,1.051806079630508250e+01
3.090000000000000000e+02,1.052417607621007711e+01
3.100000000000000000e+02,1.053036849956750132e+01
3.110000000000000000e+02,1.053663821207541140e+01
3.120000000000000000e+02,1.054298883035471057e+01
3.130000000000000000e+02,1.054942068894988338e+01
3.140000000000000000e+02,1.055593842393036574e+01
3.150000000000000000e+02,1.056254318161070849e+01
3.160000000000000000e+02,1.056923138234430759e+01
3.170000000000000000e+02,1.057601160026894327e+01
3.180000000000000000e+02,1.058288222219360541e+01
3.190000000000000000e+02,1.058984779676358023e+01
3.200000000000000000e+02,1.059691075843210406e+01
3.210000000000000000e+02,1.060406987930226919e+01
3.220000000000000000e+02,1.061132549172593187e+01
3.230000000000000000e+02,1.061868819834190347e+01
3.240000000000000000e+02,1.062615619959948887e+01
3.250000000000000000e+02,1.063372966605508374e+01
3.260000000000000000e+02,1.064141000089510491e+01
3.270000000000000000e+02,1.064920158565471908e+01
3.280000000000000000e+02,1.065711031484102023e+01
3.290000000000000000e+02,1.066513771741853667e+01
3.300000000000000000e+02,1.067328468799008334e+01
3.310000000000000000e+02,1.068155426147411724e+01
3.320000000000000000e+02,1.068994893269536206e+01
3.330000000000000000e+02,1.069847147810673071e+01
3.340000000000000000e+02,1.070712413598934454e+01
3.350000000000000000e+02,1.071590911983017413e+01
3.360000000000000000e+02,1.072483340120065165e+01
3.370000000000000000e+02,1.073389535935080907e+01
3.380000000000000000e+02,1.074309347406618720e+01
3.390000000000000000e+02,1.075243402020784167e+01
3.400000000000000000e+02,1.076192311583702299e+01
3.410000000000000000e+02,1.077155895317985390e+01
3.420000000000000000e+02,1.078134083170699675e+01
3.430000000000000000e+02,1.079127558187076907e+01
3.440000000000000000e+02,1.080135893300218797e+01
3.450000000000000000e+02,1.081160005169520133e+01
3.460000000000000000e+02,1.082199062858369665e+01
3.470000000000000000e+02,1.083253926267333789e+01
3.480000000000000000e+02,1.084323764522584455e+01
3.490000000000000000e+02,1.085409351570950953e+01
3.500000000000000000e+02,1.086510263742779259e+01
3.510000000000000000e+02,1.087626168351375355e+01
3.520000000000000000e+02,1.088756901870350902e+01
3.530000000000000000e+02,1.089902458393646612e+01
3.540000000000000000e+02,1.091062368488390355e+01
3.550000000000000000e+02,1.092235949481788460e+01
3.560000000000000000e+02,1.093422846412924798e+01
3.570000000000000000e+02,1.094622745299012934e+01
3.580000000000000000e+02,1.095834748893133792e+01
3.590000000000000000e+02,1.097058258635637529e+01
3.600000000000000000e+02,1.098292398941713621e+01
3.610000000000000000e+02,1.099536330309063992e+01
3.620000000000000000e+02,1.100788901308630230e+01
3.630000000000000000e+02,1.102049355918645723e+01
3.640000000000000000e+02,1.103316511794080057e+01
3.650000000000000000e+02,1.104589360137198284e+01
3.660000000000000000e+02,1.105866680973254645e+01
3.670000000000000000e+02,1.107146854714053674e+01
3.680000000000000000e+02,1.108428810148911658e+01
3.690000000000000000e+02,1.109711257749983204e+01
3.700000000000000000e+02,1.110993422502218664e+01
3.710000000000000000e+02,1.112273543008238619e+01
3.720000000000000000e+02,1.113550270546223686e+01
3.730000000000000000e+02,1.114822871534221171e+01
3.740000000000000000e+02,1.116089763880009933e+01
3.750000000000000000e+02,1.117349867318529277e+01
3.760000000000000000e+02,1.118602588300102774e+01
3.770000000000000000e+02,1.119846591648213874e+01
3.780000000000000000e+02,1.121081159183870035e+01
3.790000000000000000e+02,1.122305430021815020e+01
3.800000000000000000e+02,1.123518921322659203e+01
3.810000000000000000e+02,1.124720904104533048e+01
3.820000000000000000e+02,1.125910904406208779e+01
3.830000000000000000e+02,1.127088580689635400e+01
3.840000000000000000e+02,1.128253510870806764e+01
3.850000000000000000e+02,1.129405642750895034e+01
3.860000000000000000e+02,1.130544777312640825e+01
3.870000000000000000e+02,1.131670944925362932e+01
3.880000000000000000e+02,1.132783846571608599e+01
3.890000000000000000e+02,1.133883612744621416e+01
3.900000000000000000e+02,1.134970472122975593e+01
3.910000000000000000e+02,1.136044560190849140e+01
3.920000000000000000e+02,1.137105847724126484e+01
3.930000000000000000e+02,1.138154820079123475e+01
3.940000000000000000e+02,1.139191570483221838e+01
3.950000000000000000e+02,1.140216343888815587e+01
3.960000000000000000e+02,1.141229499690015992e+01
3.970000000000000000e+02,1.142231295428890903e+01
3.980000000000000000e+02,1.143221959394532838e+01
