# Time [s], Temperature [C]
1.000000000000000000e+00,2.499997099999999861e+01
2.000000000000000000e+00,4.681507899999999722e+01
3.000000000000000000e+00,5.888273600000000130e+01
4.000000000000000000e+00,6.873129299999999375e+01
5.000000000000000000e+00,7.692247799999999813e+01
6.000000000000000000e+00,8.411701999999999657e+01
7.000000000000000000e+00,9.055554999999999666e+01
8.000000000000000000e+00,9.642244700000000535e+01
9.000000000000000000e+00,1.018292600000000050e+02
1.000000000000000000e+01,1.068586899999999957e+02
1.100000000000000000e+01,1.115688600000000008e+02
1.200000000000000000e+01,1.160066099999999949e+02
1.300000000000000000e+01,1.202070800000000048e+02
1.400000000000000000e+01,1.241983900000000034e+02
1.500000000000000000e+01,1.280041200000000003e+02
1.600000000000000000e+01,1.316437999999999988e+02
1.700000000000000000e+01,1.351326599999999871e+02
1.800000000000000000e+01,1.384847000000000037e+02
1.900000000000000000e+01,1.417117800000000045e+02
2.000000000000000000e+01,1.448245400000000132e+02
2.100000000000000000e+01,1.478308600000000013e+02
2.200000000000000000e+01,1.507389400000000137e+02
2.300000000000000000e+01,1.535559100000000115e+02
2.400000000000000000e+01,1.562875400000000070e+02
2.500000000000000000e+01,1.589389199999999960e+02
2.600000000000000000e+01,1.615160099999999943e+02
2.700000000000000000e+01,1.640215599999999938e+02
2.800000000000000000e+01,1.664611199999999940e+02
2.900000000000000000e+01,1.688378899999999874e+02
3.000000000000000000e+01,1.711548300000000040e+02
3.100000000000000000e+01,1.734149600000000078e+02
3.200000000000000000e+01,1.756218399999999917e+02
3.300000000000000000e+01,1.777779400000000010e+02
3.400000000000000000e+01,1.798842600000000118e+02
3.500000000000000000e+01,1.819453300000000127e+02
3.600000000000000000e+01,1.839610099999999875e+02
3.700000000000000000e+01,1.859342499999999916e+02
3.800000000000000000e+01,1.878673200000000065e+02
3.900000000000000000e+01,1.897608899999999892e+02
4.000000000000000000e+01,1.916167299999999898e+02
4.100000000000000000e+01,1.934368599999999958e+02
4.200000000000000000e+01,1.952226400000000126e+02
4.300000000000000000e+01,1.969741199999999992e+02
4.400000000000000000e+01,1.986942300000000046e+02
4.500000000000000000e+01,2.003830399999999941e+02
4.600000000000000000e+01,2.020418899999999951e+02
4.700000000000000000e+01,2.036725000000000136e+02
4.800000000000000000e+01,2.052750499999999931e+02
4.900000000000000000e+01,2.068507700000000114e+02
5.000000000000000000e+01,2.084009200000000135e+02
5.100000000000000000e+01,2.099255799999999965e+02
5.200000000000000000e+01,2.114259000000000128e+02
5.300000000000000000e+01,2.129031799999999919e+02
5.400000000000000000e+01,2.143577400000000068e+02
5.500000000000000000e+01,2.157898600000000044e+02
5.600000000000000000e+01,2.172012300000000096e+02
5.700000000000000000e+01,2.185924699999999916e+02
5.800000000000000000e+01,2.199628899999999874e+02
5.900000000000000000e+01,2.213146099999999876e+02
6.000000000000000000e+01,2.226474300000000142e+02
6.100000000000000000e+01,2.239620500000000050e+02
6.200000000000000000e+01,2.252596699999999998e+02
6.300000000000000000e+01,2.265394300000000101e+02
6.400000000000000000e+01,2.278032399999999882e+02
6.500000000000000000e+01,2.290514799999999980e+02
6.600000000000000000e+01,2.302835399999999879e+02
6.700000000000000000e+01,2.315008500000000140e+02
6.800000000000000000e+01,2.327039900000000046e+02
6.900000000000000000e+01,2.338927300000000002e+02
7.000000000000000000e+01,2.350677799999999991e+02
7.100000000000000000e+01,2.362298700000000053e+02
7.200000000000000000e+01,2.373787199999999871e+02
7.300000000000000000e+01,2.385149800000000084e+02
7.400000000000000000e+01,2.396395599999999888e+02
7.500000000000000000e+01,2.407520800000000065e+02
7.600000000000000000e+01,2.418530399999999929e+02
7.700000000000000000e+01,2.429435000000000002e+02
7.800000000000000000e+01,2.440226399999999956e+02
7.900000000000000000e+01,2.450913099999999929e+02
8.000000000000000000e+01,2.461505600000000129e+02
8.100000000000000000e+01,2.471997399999999914e+02
8.200000000000000000e+01,2.482388300000000072e+02
8.300000000000000000e+01,2.492688100000000020e+02
8.400000000000000000e+01,2.502899800000000141e+02
8.500000000000000000e+01,2.513014799999999980e+02
8.600000000000000000e+01,2.523049200000000098e+02
8.700000000000000000e+01,2.532995099999999979e+02
8.800000000000000000e+01,2.542855500000000006e+02
8.900000000000000000e+01,2.552637000000000000e+02
9.000000000000000000e+01,2.562335800000000177e+02
9.100000000000000000e+01,2.571952800000000252e+02
9.200000000000000000e+01,2.581494799999999827e+02
9.300000000000000000e+01,2.590957300000000032e+02
9.400000000000000000e+01,2.600343300000000113e+02
9.500000000000000000e+01,2.609660000000000082e+02
9.600000000000000000e+01,2.618898300000000177e+02
9.700000000000000000e+01,2.628061500000000024e+02
9.800000000000000000e+01,2.637158200000000079e+02
9.900000000000000000e+01,2.646174899999999752e+02
1.000000000000000000e+02,2.655125699999999824e+02
1.010000000000000000e+02,2.664010000000000105e+02
1.020000000000000000e+02,2.672819499999999948e+02
1.030000000000000000e+02,2.681561300000000188e+02
1.040000000000000000e+02,2.690241399999999885e+02
1.050000000000000000e+02,2.698852200000000039e+02
1.060000000000000000e+02,2.707394100000000208e+02
1.070000000000000000e+02,2.715875899999999774e+02
1.080000000000000000e+02,2.724291999999999803e+02
1.090000000000000000e+02,2.732643400000000042e+02
1.100000000000000000e+02,2.740939599999999814e+02
1.110000000000000000e+02,2.749171400000000176e+02
1.120000000000000000e+02,2.757340399999999931e+02
1.130000000000000000e+02,2.765457200000000171e+02
1.140000000000000000e+02,2.773513199999999870e+02
1.150000000000000000e+02,2.781512099999999919e+02
1.160000000000000000e+02,2.789458900000000199e+02
1.170000000000000000e+02,2.797349199999999882e+02
1.180000000000000000e+02,2.805185500000000047e+02
1.190000000000000000e+02,2.812970900000000256e+02
1.200000000000000000e+02,2.820701599999999871e+02
1.210000000000000000e+02,2.828382300000000100e+02
1.220000000000000000e+02,2.836015300000000252e+02
1.230000000000000000e+02,2.843598600000000260e+02
1.240000000000000000e+02,2.851133100000000127e+02
1.250000000000000000e+02,2.858623699999999985e+02
1.260000000000000000e+02,2.866068099999999959e+02
1.270000000000000000e+02,2.873463699999999790e+02
1.280000000000000000e+02,2.880817299999999932e+02
1.290000000000000000e+02,2.888123800000000188e+02
1.300000000000000000e+02,2.895387000000000057e+02
1.310000000000000000e+02,2.902610199999999736e+02
1.320000000000000000e+02,2.909792499999999791e+02
1.330000000000000000e+02,2.916929900000000089e+02
1.340000000000000000e+02,2.924030200000000264e+02
1.350000000000000000e+02,2.931088300000000118e+02
1.360000000000000000e+02,2.938106399999999780e+02
1.370000000000000000e+02,2.945093400000000088e+02
1.380000000000000000e+02,2.952034300000000258e+02
1.390000000000000000e+02,2.958937399999999798e+02
1.400000000000000000e+02,2.965804699999999912e+02
1.410000000000000000e+02,2.972636100000000283e+02
1.420000000000000000e+02,2.979427499999999895e+02
1.430000000000000000e+02,2.986188399999999774e+02
1.440000000000000000e+02,2.992908600000000092e+02
1.450000000000000000e+02,2.999594399999999723e+02
1.460000000000000000e+02,3.006243299999999863e+02
1.470000000000000000e+02,3.012856100000000197e+02
1.480000000000000000e+02,3.019439399999999978e+02
1.490000000000000000e+02,3.025984199999999760e+02
1.500000000000000000e+02,3.032493600000000242e+02
1.510000000000000000e+02,3.038972200000000043e+02
1.520000000000000000e+02,3.045418099999999981e+02
1.530000000000000000e+02,3.051830100000000243e+02
1.540000000000000000e+02,3.058204000000000065e+02
1.550000000000000000e+02,3.064546199999999772e+02
1.560000000000000000e+02,3.070859399999999937e+02
1.570000000000000000e+02,3.077134699999999725e+02
1.580000000000000000e+02,3.083380999999999972e+02
1.590000000000000000e+02,3.089592900000000100e+02
1.600000000000000000e+02,3.095769700000000171e+02
1.610000000000000000e+02,3.101916499999999814e+02
1.620000000000000000e+02,3.108031300000000101e+02
1.630000000000000000e+02,3.114113500000000272e+02
1.640000000000000000e+02,3.120158999999999878e+02
1.650000000000000000e+02,3.126178899999999885e+02
1.660000000000000000e+02,3.132160600000000272e+02
1.670000000000000000e+02,3.138111000000000104e+02
1.680000000000000000e+02,3.144028900000000135e+02
1.690000000000000000e+02,3.149916699999999992e+02
1.700000000000000000e+02,3.155770899999999983e+02
1.710000000000000000e+02,3.161592999999999734e+02
1.720000000000000000e+02,3.167379799999999932e+02
1.730000000000000000e+02,3.173139300000000276e+02
1.740000000000000000e+02,3.178860799999999927e+02
1.750000000000000000e+02,3.184556600000000230e+02
1.760000000000000000e+02,3.190211499999999774e+02
1.770000000000000000e+02,3.195840499999999906e+02
1.780000000000000000e+02,3.201434600000000046e+02
1.790000000000000000e+02,3.206993699999999876e+02
1.800000000000000000e+02,3.212521399999999971e+02
1.810000000000000000e+02,3.218016400000000203e+02
1.820000000000000000e+02,3.223475599999999872e+02
1.830000000000000000e+02,3.228906200000000126e+02
1.840000000000000000e+02,3.234299599999999941e+02
1.850000000000000000e+02,3.239661600000000021e+02
1.860000000000000000e+02,3.244989600000000110e+02
1.870000000000000000e+02,3.250285299999999893e+02
1.880000000000000000e+02,3.255544100000000185e+02
1.890000000000000000e+02,3.260774200000000178e+02
1.900000000000000000e+02,3.265969499999999925e+02
1.910000000000000000e+02,3.271126100000000179e+02
1.920000000000000000e+02,3.276254599999999755e+02
1.930000000000000000e+02,3.281345200000000091e+02
1.940000000000000000e+02,3.286401099999999929e+02
1.950000000000000000e+02,3.291427299999999718e+02
1.960000000000000000e+02,3.296417799999999829e+02
1.970000000000000000e+02,3.301366300000000251e+02
1.980000000000000000e+02,3.306286600000000249e+02
1.990000000000000000e+02,3.311175799999999754e+02
2.000000000000000000e+02,3.316023299999999949e+02
2.010000000000000000e+02,3.320837399999999775e+02
2.020000000000000000e+02,3.325624099999999999e+02
2.030000000000000000e+02,3.330367400000000089e+02
2.040000000000000000e+02,3.335083000000000197e+02
2.050000000000000000e+02,3.339762299999999868e+02
2.060000000000000000e+02,3.344397000000000162e+02
2.070000000000000000e+02,3.349008499999999913e+02
2.080000000000000000e+02,3.353584000000000174e+02
2.090000000000000000e+02,3.358115500000000111e+02
2.100000000000000000e+02,3.362621199999999817e+02
2.110000000000000000e+02,3.367095600000000104e+02
2.120000000000000000e+02,3.371516399999999862e+02
2.130000000000000000e+02,3.374433300000000031e+02
2.140000000000000000e+02,3.375029900000000112e+02
2.150000000000000000e+02,3.379088699999999790e+02
2.160000000000000000e+02,3.383020300000000020e+02
2.170000000000000000e+02,3.387185999999999808e+02
2.180000000000000000e+02,3.391333300000000008e+02
2.190000000000000000e+02,3.395507200000000125e+02
2.200000000000000000e+02,3.399667400000000157e+02
2.210000000000000000e+02,3.403793600000000197e+02
2.220000000000000000e+02,3.407902799999999957e+02
2.230000000000000000e+02,3.411988799999999742e+02
2.240000000000000000e+02,3.416027799999999957e+02
2.250000000000000000e+02,3.420049700000000144e+02
2.260000000000000000e+02,3.424042999999999779e+02
2.270000000000000000e+02,3.427985199999999963e+02
2.280000000000000000e+02,3.431909200000000055e+02
2.290000000000000000e+02,3.435804699999999912e+02
2.300000000000000000e+02,3.439648700000000190e+02
2.310000000000000000e+02,3.443475999999999999e+02
2.320000000000000000e+02,3.447270500000000197e+02
2.330000000000000000e+02,3.451014700000000062e+02
2.340000000000000000e+02,3.454744600000000219e+02
2.350000000000000000e+02,3.458447600000000079e+02
2.360000000000000000e+02,3.462096900000000232e+02
2.370000000000000000e+02,3.465733299999999986e+02
2.380000000000000000e+02,3.469343600000000265e+02
2.390000000000000000e+02,3.472899199999999951e+02
2.400000000000000000e+02,3.476443499999999744e+02
2.410000000000000000e+02,3.479963399999999751e+02
2.420000000000000000e+02,3.483431100000000242e+02
2.430000000000000000e+02,3.486887199999999893e+02
2.440000000000000000e+02,3.490320399999999950e+02
2.450000000000000000e+02,3.493699599999999919e+02
2.460000000000000000e+02,3.497072400000000130e+02
2.470000000000000000e+02,3.500423299999999927e+02
2.480000000000000000e+02,3.503722500000000082e+02
2.490000000000000000e+02,3.507018100000000231e+02
2.500000000000000000e+02,3.510288400000000024e+02
2.510000000000000000e+02,3.513504599999999982e+02
2.520000000000000000e+02,3.516719100000000253e+02
2.530000000000000000e+02,3.519914200000000051e+02
2.540000000000000000e+02,3.523056900000000269e+02
2.550000000000000000e+02,3.526196600000000103e+02
2.560000000000000000e+02,3.529319800000000100e+02
2.570000000000000000e+02,3.532386799999999880e+02
2.580000000000000000e+02,3.535461399999999799e+02
2.590000000000000000e+02,3.538519000000000005e+02
2.600000000000000000e+02,3.541516700000000242e+02
2.610000000000000000e+02,3.544522400000000175e+02
2.620000000000000000e+02,3.547511900000000082e+02
2.630000000000000000e+02,3.550449199999999905e+02
2.640000000000000000e+02,3.553393599999999992e+02
2.650000000000000000e+02,3.556322599999999738e+02
2.660000000000000000e+02,3.559195300000000088e+02
2.670000000000000000e+02,3.562082800000000020e+02
2.680000000000000000e+02,3.564952700000000050e+02
2.690000000000000000e+02,3.567771900000000187e+02
2.700000000000000000e+02,3.570603899999999840e+02
2.710000000000000000e+02,3.573418899999999780e+02
2.720000000000000000e+02,3.576179799999999886e+02
2.730000000000000000e+02,3.578955700000000206e+02
2.740000000000000000e+02,3.581729100000000017e+02
2.750000000000000000e+02,3.584438799999999787e+02
2.760000000000000000e+02,3.587167400000000157e+02
2.770000000000000000e+02,3.589888900000000262e+02
2.780000000000000000e+02,3.592553100000000086e+02
2.790000000000000000e+02,3.595235900000000129e+02
2.800000000000000000e+02,3.597914099999999848e+02
2.810000000000000000e+02,3.600530999999999722e+02
2.820000000000000000e+02,3.603174999999999955e+02
2.830000000000000000e+02,3.605811800000000176e+02
2.840000000000000000e+02,3.608386499999999728e+02
2.850000000000000000e+02,3.610991799999999898e+02
2.860000000000000000e+02,3.613590399999999931e+02
2.870000000000000000e+02,3.616126100000000179e+02
2.880000000000000000e+02,3.618689299999999776e+02
2.890000000000000000e+02,3.621254000000000133e+02
2.900000000000000000e+02,3.623754900000000134e+02
2.910000000000000000e+02,3.626285100000000057e+02
2.920000000000000000e+02,3.628816800000000171e+02
2.930000000000000000e+02,3.631283300000000054e+02
2.940000000000000000e+02,3.633785100000000057e+02
2.950000000000000000e+02,3.636279599999999732e+02
2.960000000000000000e+02,3.638718600000000265e+02
2.970000000000000000e+02,3.641189299999999776e+02
2.980000000000000000e+02,3.643654500000000098e+02
2.990000000000000000e+02,3.646064499999999953e+02
3.000000000000000000e+02,3.648507399999999734e+02
3.010000000000000000e+02,3.650945100000000139e+02
3.020000000000000000e+02,3.653332800000000020e+02
3.030000000000000000e+02,3.655741600000000062e+02
3.040000000000000000e+02,3.658156099999999924e+02
3.050000000000000000e+02,3.660517600000000016e+02
3.060000000000000000e+02,3.662903400000000147e+02
3.070000000000000000e+02,3.665298799999999915e+02
3.080000000000000000e+02,3.667628500000000145e+02
3.090000000000000000e+02,3.669995400000000245e+02
3.100000000000000000e+02,3.672367600000000039e+02
3.110000000000000000e+02,3.674676200000000108e+02
3.120000000000000000e+02,3.677025800000000118e+02
3.130000000000000000e+02,3.679367700000000241e+02
3.140000000000000000e+02,3.681664700000000039e+02
3.150000000000000000e+02,3.683989300000000071e+02
3.160000000000000000e+02,3.686311600000000226e+02
3.170000000000000000e+02,3.688587600000000180e+02
3.180000000000000000e+02,3.690893199999999865e+02
3.190000000000000000e+02,3.693201000000000249e+02
3.200000000000000000e+02,3.695449499999999716e+02
3.210000000000000000e+02,3.697741399999999885e+02
3.220000000000000000e+02,3.700029900000000112e+02
3.230000000000000000e+02,3.702266799999999876e+02
3.240000000000000000e+02,3.704541600000000017e+02
3.250000000000000000e+02,3.706802999999999884e+02
3.260000000000000000e+02,3.709033200000000079e+02
3.270000000000000000e+02,3.711279900000000112e+02
3.280000000000000000e+02,3.713541599999999789e+02
3.290000000000000000e+02,3.715738799999999742e+02
3.300000000000000000e+02,3.717974899999999820e+02
3.310000000000000000e+02,3.720219700000000103e+02
3.320000000000000000e+02,3.722402299999999968e+02
3.330000000000000000e+02,3.724633200000000102e+02
3.340000000000000000e+02,3.726845999999999890e+02
3.350000000000000000e+02,3.729025599999999940e+02
3.360000000000000000e+02,3.731228600000000029e+02
3.370000000000000000e+02,3.733432300000000055e+02
3.380000000000000000e+02,3.735601800000000026e+02
3.390000000000000000e+02,3.737785900000000083e+02
3.400000000000000000e+02,3.739981099999999969e+02
3.410000000000000000e+02,3.742124299999999835e+02
3.420000000000000000e+02,3.744305400000000077e+02
3.430000000000000000e+02,3.746478599999999801e+02
3.440000000000000000e+02,3.748616299999999910e+02
3.450000000000000000e+02,3.750776099999999929e+02
3.460000000000000000e+02,3.752939799999999764e+02
3.470000000000000000e+02,3.755049999999999955e+02
3.480000000000000000e+02,3.757208600000000160e+02
3.490000000000000000e+02,3.759345400000000268e+02
3.500000000000000000e+02,3.761456299999999828e+02
3.510000000000000000e+02,3.763590399999999931e+02
3.520000000000000000e+02,3.765720800000000281e+02
3.530000000000000000e+02,3.767817400000000134e+02
3.540000000000000000e+02,3.769926800000000071e+02
3.550000000000000000e+02,3.772055700000000229e+02
3.560000000000000000e+02,3.774125099999999975e+02
3.570000000000000000e+02,3.776242100000000050e+02
3.580000000000000000e+02,3.778332500000000209e+02
3.590000000000000000e+02,3.780410499999999843e+02
3.600000000000000000e+02,3.782490199999999732e+02
3.610000000000000000e+02,3.784590499999999906e+02
3.620000000000000000e+02,3.786632399999999734e+02
3.630000000000000000e+02,3.788713099999999940e+02
3.640000000000000000e+02,3.790782800000000066e+02
3.650000000000000000e+02,3.792825000000000273e+02
3.660000000000000000e+02,3.794882200000000125e+02
3.670000000000000000e+02,3.796938200000000165e+02
3.680000000000000000e+02,3.798973700000000235e+02
3.690000000000000000e+02,3.801010400000000118e+02
3.700000000000000000e+02,3.803066099999999778e+02
3.710000000000000000e+02,3.805067399999999793e+02
3.720000000000000000e+02,3.807108799999999746e+02
3.730000000000000000e+02,3.809125399999999786e+02
3.740000000000000000e+02,3.811128199999999993e+02
3.750000000000000000e+02,3.813140000000000214e+02
3.760000000000000000e+02,3.815157800000000066e+02
3.770000000000000000e+02,3.817137500000000045e+02
3.780000000000000000e+02,3.819143399999999815e+02
3.790000000000000000e+02,3.821136500000000069e+02
3.800000000000000000e+02,3.823110699999999724e+02
3.810000000000000000e+02,3.825089699999999766e+02
3.820000000000000000e+02,3.827076400000000262e+02
3.830000000000000000e+02,3.829027399999999943e+02
3.840000000000000000e+02,3.831001600000000167e+02
3.850000000000000000e+02,3.832963899999999740e+02
3.860000000000000000e+02,3.834909099999999853e+02
3.870000000000000000e+02,3.836859099999999785e+02
3.880000000000000000e+02,3.838814100000000167e+02
3.890000000000000000e+02,3.840736099999999738e+02
3.900000000000000000e+02,3.842677899999999909e+02
3.910000000000000000e+02,3.844599000000000046e+02
3.920000000000000000e+02,3.846521599999999808e+02
3.930000000000000000e+02,3.848430200000000241e+02
3.940000000000000000e+02,3.850360999999999763e+02
3.950000000000000000e+02,3.850583199999999806e+02
3.960000000000000000e+02,3.841981799999999794e+02
3.970000000000000000e+02,3.843329200000000014e+02
3.980000000000000000e+02,3.843837899999999763e+02
3.990000000000000000e+02,3.845275599999999940e+02
