# Time [s], Convective Heat Transfer Coefficient [W/m2K]
1.000000000000000000e+00,0.000000000000000000e+00
2.000000000000000000e+00,0.000000000000000000e+00
3.000000000000000000e+00,0.000000000000000000e+00
4.000000000000000000e+00,0.000000000000000000e+00
5.000000000000000000e+00,1.915079995362458862e-02
6.000000000000000000e+00,3.274740728807139234e-02
7.000000000000000000e+00,5.283560500250115977e-02
8.000000000000000000e+00,8.129691486700800496e-02
9.000000000000000000e+00,1.180958225773333092e-01
1.000000000000000000e+01,1.636059418815904720e-01
1.100000000000000000e+01,2.179725703501657619e-01
1.200000000000000000e+01,2.808943355035918299e-01
1.300000000000000000e+01,3.517229362467254039e-01
1.400000000000000000e+01,4.296521139358575603e-01
1.500000000000000000e+01,5.138199890270087611e-01
1.600000000000000000e+01,6.033539203860709410e-01
1.700000000000000000e+01,6.974043400996347009e-01
1.800000000000000000e+01,7.951809829641719451e-01
1.900000000000000000e+01,8.959666681903198926e-01
2.000000000000000000e+01,9.991311164921073962e-01
2.100000000000000000e+01,1.104112621151112084e+00
2.200000000000000000e+01,1.210424895043221927e+00
2.300000000000000000e+01,1.317643581102086570e+00
2.400000000000000000e+01,1.425411132571053896e+00
2.500000000000000000e+01,1.533412840442043734e+00
2.600000000000000000e+01,1.641391468710442059e+00
2.700000000000000000e+01,1.749116061053970217e+00
2.800000000000000000e+01,1.856401154222041328e+00
2.900000000000000000e+01,1.963085722594510862e+00
3.000000000000000000e+01,2.069038373289552091e+00
3.100000000000000000e+01,2.174145949873811379e+00
3.200000000000000000e+01,2.278313692359083209e+00
3.300000000000000000e+01,2.381464966115290682e+00
3.400000000000000000e+01,2.483541253623419376e+00
3.500000000000000000e+01,2.584495526652095254e+00
3.600000000000000000e+01,2.684278394527233047e+00
3.700000000000000000e+01,2.782866808287713489e+00
3.800000000000000000e+01,2.880231331685620955e+00
3.900000000000000000e+01,2.976359822720048509e+00
4.000000000000000000e+01,3.071240158282461774e+00
4.100000000000000000e+01,3.164865997530450503e+00
4.200000000000000000e+01,3.257234972971551290e+00
4.300000000000000000e+01,3.348348535553313354e+00
4.400000000000000000e+01,3.438213983625348913e+00
4.500000000000000000e+01,3.526840491942591527e+00
4.600000000000000000e+01,3.614230235416025394e+00
4.700000000000000000e+01,3.700396412504013188e+00
4.800000000000000000e+01,3.785355608394722182e+00
4.900000000000000000e+01,3.869119567446972052e+00
5.000000000000000000e+01,3.951698375402079577e+00
5.100000000000000000e+01,4.033112051233203488e+00
5.200000000000000000e+01,4.113373522935066973e+00
5.300000000000000000e+01,4.192499511781729638e+00
5.400000000000000000e+01,4.270507978376350877e+00
5.500000000000000000e+01,4.347411833777385048e+00
5.600000000000000000e+01,4.423227582560055104e+00
5.700000000000000000e+01,4.497972552917684830e+00
5.800000000000000000e+01,4.571665406148165189e+00
5.900000000000000000e+01,4.644322976676559911e+00
6.000000000000000000e+01,4.715955585168031483e+00
6.100000000000000000e+01,4.786581525892056987e+00
6.200000000000000000e+01,4.856219728271739200e+00
6.300000000000000000e+01,4.924880359914150851e+00
6.400000000000000000e+01,4.992581610235895972e+00
6.500000000000000000e+01,5.059337816226941342e+00
6.600000000000000000e+01,5.125159529481790877e+00
6.700000000000000000e+01,5.190067091533454580e+00
6.800000000000000000e+01,5.254075608223988780e+00
6.900000000000000000e+01,5.317193861604081029e+00
7.000000000000000000e+01,5.379441090228797684e+00
7.100000000000000000e+01,5.440828133499731045e+00
7.200000000000000000e+01,5.501369105731794384e+00
7.300000000000000000e+01,5.561078397107866778e+00
7.400000000000000000e+01,5.619969463731785631e+00
7.500000000000000000e+01,5.678055438419962186e+00
7.600000000000000000e+01,5.735350346142110034e+00
7.700000000000000000e+01,5.791867876487136080e+00
7.800000000000000000e+01,5.847622044778745476e+00
7.900000000000000000e+01,5.902627949111676209e+00
8.000000000000000000e+01,5.956897366817700323e+00
8.100000000000000000e+01,6.010443312314570186e+00
8.200000000000000000e+01,6.063279469233082253e+00
8.300000000000000000e+01,6.115419244988367531e+00
8.400000000000000000e+01,6.166874490778792683e+00
8.500000000000000000e+01,6.217658616909877090e+00
8.600000000000000000e+01,6.267787889955566349e+00
8.700000000000000000e+01,6.317271288934587226e+00
8.800000000000000000e+01,6.366120995283172768e+00
8.900000000000000000e+01,6.414349413735212835e+00
9.000000000000000000e+01,6.461970945546979372e+00
9.100000000000000000e+01,6.508998829567490318e+00
9.200000000000000000e+01,6.555439339201322824e+00
9.300000000000000000e+01,6.601305694604633345e+00
9.400000000000000000e+01,6.646610430420138549e+00
9.500000000000000000e+01,6.691367794194619911e+00
9.600000000000000000e+01,6.735583313105742320e+00
9.700000000000000000e+01,6.779268364516661372e+00
9.800000000000000000e+01,6.822435527296404345e+00
9.900000000000000000e+01,6.865096272214775475e+00
1.000000000000000000e+02,6.907254896871154237e+00
1.010000000000000000e+02,6.948923985794653646e+00
1.020000000000000000e+02,6.990114097549846583e+00
1.030000000000000000e+02,7.030834357653805711e+00
1.040000000000000000e+02,7.071089731737831841e+00
1.050000000000000000e+02,7.110891676044470699e+00
1.060000000000000000e+02,7.150251368333991664e+00
1.070000000000000000e+02,7.189172930604186718e+00
1.080000000000000000e+02,7.227663890120883394e+00
1.090000000000000000e+02,7.265733447593588856e+00
1.100000000000000000e+02,7.303392391672757000e+00
1.110000000000000000e+02,7.340643461659258406e+00
1.120000000000000000e+02,7.377493795543608179e+00
1.130000000000000000e+02,7.413951730969261078e+00
1.140000000000000000e+02,7.450026537259525128e+00
1.150000000000000000e+02,7.485721061179224201e+00
1.160000000000000000e+02,7.521041963421375875e+00
1.170000000000000000e+02,7.555995850849330786e+00
1.180000000000000000e+02,7.590591108485929439e+00
1.190000000000000000e+02,7.624830975049654569e+00
1.200000000000000000e+02,7.658721355920935281e+00
1.210000000000000000e+02,7.692267541257548302e+00
1.220000000000000000e+02,7.725476390808737825e+00
1.230000000000000000e+02,7.758352184185581812e+00
1.240000000000000000e+02,7.790900201343787579e+00
1.250000000000000000e+02,7.823124769060177286e+00
1.260000000000000000e+02,7.855031197613676852e+00
1.270000000000000000e+02,7.886623671670742297e+00
1.280000000000000000e+02,7.917908656558968694e+00
1.290000000000000000e+02,7.948888696232355500e+00
1.300000000000000000e+02,7.979568816006828769e+00
1.310000000000000000e+02,8.009952961836985352e+00
1.320000000000000000e+02,8.040045490312980547e+00
1.330000000000000000e+02,8.069850075517795318e+00
1.340000000000000000e+02,8.099370448371603359e+00
1.350000000000000000e+02,8.128611458045222449e+00
1.360000000000000000e+02,8.157575162855895456e+00
1.370000000000000000e+02,8.186265994580450567e+00
1.380000000000000000e+02,8.214688074294517861e+00
1.390000000000000000e+02,8.242844534698763326e+00
1.400000000000000000e+02,8.270737896428688174e+00
1.410000000000000000e+02,8.298371788704228535e+00
1.420000000000000000e+02,8.325940047651744891e+00
1.430000000000000000e+02,8.353143239421877198e+00
1.440000000000000000e+02,8.380067546205300033e+00
1.450000000000000000e+02,8.406735803493395665e+00
1.460000000000000000e+02,8.433153794587115115e+00
1.470000000000000000e+02,8.459327471105364538e+00
1.480000000000000000e+02,8.485261648723561478e+00
1.490000000000000000e+02,8.510961982264939607e+00
1.500000000000000000e+02,8.536432692889748708e+00
1.510000000000000000e+02,8.561677729623275113e+00
1.520000000000000000e+02,8.586700936981561227e+00
1.530000000000000000e+02,8.611506374529026786e+00
1.540000000000000000e+02,8.636095957253683508e+00
1.550000000000000000e+02,8.660471077454189981e+00
1.560000000000000000e+02,8.684633240265519305e+00
1.570000000000000000e+02,8.708582053993538352e+00
1.580000000000000000e+02,8.732320501179623662e+00
1.590000000000000000e+02,8.755849656010941118e+00
1.600000000000000000e+02,8.779171773134862633e+00
1.610000000000000000e+02,8.802287386059866492e+00
1.620000000000000000e+02,8.825197456338502278e+00
1.630000000000000000e+02,8.847901717562749013e+00
1.640000000000000000e+02,8.870403764686095371e+00
1.650000000000000000e+02,8.892705331831082916e+00
1.660000000000000000e+02,8.914806781061789920e+00
1.670000000000000000e+02,8.936707869056352393e+00
1.680000000000000000e+02,8.958411845728186051e+00
1.690000000000000000e+02,8.979919999123270102e+00
1.700000000000000000e+02,9.001231269103769250e+00
1.710000000000000000e+02,9.022348629716418600e+00
1.720000000000000000e+02,9.043273556038114336e+00
1.730000000000000000e+02,9.064004634224975376e+00
1.740000000000000000e+02,9.084544435330743184e+00
1.750000000000000000e+02,9.104893353669291756e+00
1.760000000000000000e+02,9.125050498900714402e+00
1.770000000000000000e+02,9.145018762891647057e+00
1.780000000000000000e+02,9.164797072382071974e+00
1.790000000000000000e+02,9.184387135299294513e+00
1.800000000000000000e+02,9.203787992195115564e+00
1.810000000000000000e+02,9.223000613337910991e+00
1.820000000000000000e+02,9.242024432261494837e+00
1.830000000000000000e+02,9.260861062342353733e+00
1.840000000000000000e+02,9.279507999203248758e+00
1.850000000000000000e+02,9.297967233163237921e+00
1.860000000000000000e+02,9.316237337439243760e+00
1.870000000000000000e+02,9.334317833963103439e+00
1.880000000000000000e+02,9.352209977588911372e+00
1.890000000000000000e+02,9.369910989674918866e+00
1.900000000000000000e+02,9.387420642433237816e+00
1.910000000000000000e+02,9.404738696246580432e+00
1.920000000000000000e+02,9.421865690790992787e+00
1.930000000000000000e+02,9.438797806400319956e+00
1.940000000000000000e+02,9.455534927839877923e+00
1.950000000000000000e+02,9.472076272536080310e+00
1.960000000000000000e+02,9.488420011740057447e+00
1.970000000000000000e+02,9.504566138604682024e+00
1.980000000000000000e+02,9.520511270896376388e+00
1.990000000000000000e+02,9.536255142584851185e+00
2.000000000000000000e+02,9.551796061102487911e+00
2.010000000000000000e+02,9.567132080924373838e+00
2.020000000000000000e+02,9.582261771655490534e+00
2.030000000000000000e+02,9.597183319432621929e+00
2.040000000000000000e+02,9.611895545670343211e+00
2.050000000000000000e+02,9.626394991163488513e+00
2.060000000000000000e+02,9.640681490940993470e+00
2.070000000000000000e+02,9.654754106083817788e+00
2.080000000000000000e+02,9.668609256203801294e+00
2.090000000000000000e+02,9.682246375181332354e+00
2.100000000000000000e+02,9.695663260406393036e+00
2.110000000000000000e+02,9.708859323408526976e+00
2.120000000000000000e+02,9.721832842400401020e+00
2.130000000000000000e+02,9.734582211970311150e+00
2.140000000000000000e+02,9.747107296005593113e+00
2.150000000000000000e+02,9.759447630980494282e+00
2.160000000000000000e+02,9.771551367656122977e+00
2.170000000000000000e+02,9.783433797346607008e+00
2.180000000000000000e+02,9.795101983375678500e+00
2.190000000000000000e+02,9.806555958791848937e+00
2.200000000000000000e+02,9.817794274573596880e+00
2.210000000000000000e+02,9.828814137264636486e+00
2.220000000000000000e+02,9.839612390222329807e+00
2.230000000000000000e+02,9.850186360713005129e+00
2.240000000000000000e+02,9.860536020432169479e+00
2.250000000000000000e+02,9.870662635447100541e+00
2.260000000000000000e+02,9.880568633149991342e+00
2.270000000000000000e+02,9.890255915862105951e+00
2.280000000000000000e+02,9.899728494493613695e+00
2.290000000000000000e+02,9.908990085097553191e+00
2.300000000000000000e+02,9.918044470081428088e+00
2.310000000000000000e+02,9.926897874804254229e+00
2.320000000000000000e+02,9.935555271587601212e+00
2.330000000000000000e+02,9.944022049996119605e+00
2.340000000000000000e+02,9.952304251493155007e+00
2.350000000000000000e+02,9.960407386073294234e+00
2.360000000000000000e+02,9.968337263154641192e+00
2.370000000000000000e+02,9.976102108237418165e+00
2.380000000000000000e+02,9.983708318408558213e+00
2.390000000000000000e+02,9.991161533872876532e+00
2.400000000000000000e+02,9.998470392414258612e+00
2.410000000000000000e+02,1.000564113080008077e+01
2.420000000000000000e+02,1.001268192420368486e+01
2.430000000000000000e+02,1.001959890990943691e+01
2.440000000000000000e+02,1.002640155952080292e+01
2.450000000000000000e+02,1.003309602962324121e+01
2.460000000000000000e+02,1.003969076006516303e+01
2.470000000000000000e+02,1.004619274883793345e+01
2.480000000000000000e+02,1.005260987955335494e+01
2.490000000000000000e+02,1.005894918164645091e+01
2.500000000000000000e+02,1.006521787681696267e+01
2.510000000000000000e+02,1.007142303259720961e+01
2.520000000000000000e+02,1.007757202524715012e+01
2.530000000000000000e+02,1.008367288404391182e+01
2.540000000000000000e+02,1.008973118340772857e+01
2.550000000000000000e+02,1.009575407794400981e+01
2.560000000000000000e+02,1.010174857275705307e+01
2.570000000000000000e+02,1.010771992063185110e+01
2.580000000000000000e+02,1.011367506595238375e+01
2.590000000000000000e+02,1.011962034876070149e+01
2.600000000000000000e+02,1.012556013832752377e+01
2.610000000000000000e+02,1.013150197660172758e+01
2.620000000000000000e+02,1.013745075032343479e+01
2.630000000000000000e+02,1.014341098196323010e+01
2.640000000000000000e+02,1.014938819541830206e+01
2.650000000000000000e+02,1.015538811540766773e+01
2.660000000000000000e+02,1.016141417187095009e+01
2.670000000000000000e+02,1.016821538104861844e+01
2.680000000000000000e+02,1.017469384360034113e+01
2.690000000000000000e+02,1.018108715981676760e+01
2.700000000000000000e+02,1.018746264373177191e+01
2.710000000000000000e+02,1.019382858073768539e+01
2.720000000000000000e+02,1.020020592851861707e+01
2.730000000000000000e+02,1.020660992156207847e+01
2.740000000000000000e+02,1.021305560537471813e+01
2.750000000000000000e+02,1.021955357733209091e+01
2.760000000000000000e+02,1.022611135694685913e+01
2.770000000000000000e+02,1.023273575223136511e+01
2.780000000000000000e+02,1.023943442644522506e+01
2.790000000000000000e+02,1.024621254638302403e+01
2.800000000000000000e+02,1.025307669519069442e+01
2.810000000000000000e+02,1.026003019140635608e+01
2.820000000000000000e+02,1.026707488693962667e+01
2.830000000000000000e+02,1.027422060270418847e+01
2.840000000000000000e+02,1.028146835058058528e+01
2.850000000000000000e+02,1.028882288986807580e+01
2.860000000000000000e+02,1.029628927688073858e+01
2.870000000000000000e+02,1.030387131807583856e+01
2.880000000000000000e+02,1.031157058734921961e+01
2.890000000000000000e+02,1.031939699492911267e+01
2.900000000000000000e+02,1.032735346660765607e+01
2.910000000000000000e+02,1.033544596799640836e+01
2.920000000000000000e+02,1.034367866546446812e+01
2.930000000000000000e+02,1.035205535901698326e+01
2.940000000000000000e+02,1.036056290783968059e+01
2.950000000000000000e+02,1.036916679758681070e+01
2.960000000000000000e+02,1.037784197358291394e+01
2.970000000000000000e+02,1.038661996832728995e+01
2.980000000000000000e+02,1.039556730024411735e+01
2.990000000000000000e+02,1.040472893103118857e+01
3.000000000000000000e+02,1.041411418662398347e+01
3.010000000000000000e+02,1.042372755541830820e+01
3.020000000000000000e+02,1.043357421376968652e+01
3.030000000000000000e+02,1.044365271900353243e+01
3.040000000000000000e+02,1.045396406973413939e+01
3.050000000000000000e+02,1.046451478185197459e+01
3.060000000000000000e+02,1.047530509649904928e+01
3.070000000000000000e+02,1.048635320779809810e+01
3.080000000000000000e+02,1.049765629750839047e+01
3.090000000000000000e+02,1.050922711147683053e+01
3.100000000000000000e+02,1.052108627748906144e+01
3.110000000000000000e+02,1.053324268822890453e+01
3.120000000000000000e+02,1.054571573189164013e+01
3.130000000000000000e+02,1.055850449844131056e+01
3.140000000000000000e+02,1.057161881325098918e+01
3.150000000000000000e+02,1.058501881746254014e+01
3.160000000000000000e+02,1.059860955859783971e+01
3.170000000000000000e+02,1.061240002724444409e+01
3.180000000000000000e+02,1.062653748770693873e+01
3.190000000000000000e+02,1.064115352391704228e+01
3.200000000000000000e+02,1.065625280985100787e+01
3.210000000000000000e+02,1.067185585988240248e+01
3.220000000000000000e+02,1.068796250865331210e+01
3.230000000000000000e+02,1.070458612688610778e+01
3.240000000000000000e+02,1.072173751867621405e+01
3.250000000000000000e+02,1.073942921174159437e+01
3.260000000000000000e+02,1.075769079075547552e+01
3.270000000000000000e+02,1.077966871893073986e+01
3.280000000000000000e+02,1.080009416182009119e+01
3.290000000000000000e+02,1.082037554924063549e+01
3.300000000000000000e+02,1.084137662042360972e+01
3.310000000000000000e+02,1.086301727348289425e+01
3.320000000000000000e+02,1.088541470382434717e+01
3.330000000000000000e+02,1.090859218678445686e+01
3.340000000000000000e+02,1.093261983705969342e+01
3.350000000000000000e+02,1.095750908935120194e+01
3.360000000000000000e+02,1.098312807144264269e+01
3.370000000000000000e+02,1.100946277993962674e+01
3.380000000000000000e+02,1.103664099854655767e+01
3.390000000000000000e+02,1.106468950363818138e+01
3.400000000000000000e+02,1.109362370080276605e+01
3.410000000000000000e+02,1.112351041448427225e+01
3.420000000000000000e+02,1.115433180086820286e+01
3.430000000000000000e+02,1.118612439347663923e+01
3.440000000000000000e+02,1.121888835215926861e+01
3.450000000000000000e+02,1.125258708937911400e+01
3.460000000000000000e+02,1.128729769839291741e+01
3.470000000000000000e+02,1.132284459721964964e+01
3.480000000000000000e+02,1.135918551511531938e+01
3.490000000000000000e+02,1.139632604572699925e+01
3.500000000000000000e+02,1.143408640434246770e+01
3.510000000000000000e+02,1.147207460734858664e+01
3.520000000000000000e+02,1.151029337814678577e+01
3.530000000000000000e+02,1.154878199839224351e+01
3.540000000000000000e+02,1.158734202798419766e+01
3.550000000000000000e+02,1.162596722065858224e+01
3.560000000000000000e+02,1.166454987757799699e+01
3.570000000000000000e+02,1.170300230546497211e+01
3.580000000000000000e+02,1.174124513323626395e+01
3.590000000000000000e+02,1.177930178143978601e+01
3.600000000000000000e+02,1.181685699391008093e+01
3.610000000000000000e+02,1.185381086910165571e+01
3.620000000000000000e+02,1.189024680144330937e+01
3.630000000000000000e+02,1.192590064402743621e+01
3.640000000000000000e+02,1.196039512196261612e+01
3.650000000000000000e+02,1.199393048297709896e+01
3.660000000000000000e+02,1.202662788426969342e+01
3.670000000000000000e+02,1.205841870999529775e+01
3.680000000000000000e+02,1.208945092633877749e+01
3.690000000000000000e+02,1.211975836931455675e+01
3.700000000000000000e+02,1.214940737957561900e+01
3.710000000000000000e+02,1.217821041922348435e+01
3.720000000000000000e+02,1.220611066918976206e+01
3.730000000000000000e+02,1.223331390699334698e+01
3.740000000000000000e+02,1.225959577287497737e+01
3.750000000000000000e+02,1.228470308317331927e+01
3.760000000000000000e+02,1.230891791367964494e+01
3.770000000000000000e+02,1.233242951561954648e+01
3.780000000000000000e+02,1.235517548207184113e+01
3.790000000000000000e+02,1.237743610288234386e+01
3.800000000000000000e+02,1.239917213422162412e+01
3.810000000000000000e+02,1.242002120153244960e+01
3.820000000000000000e+02,1.243930013884712338e+01
3.830000000000000000e+02,1.245715352725142999e+01
3.840000000000000000e+02,1.247453945740900849e+01
3.850000000000000000e+02,1.249171367312023939e+01
3.860000000000000000e+02,1.250852470266221772e+01
3.870000000000000000e+02,1.252500473005592596e+01
3.880000000000000000e+02,1.254134750478341154e+01
3.890000000000000000e+02,1.255748366748151312e+01
3.900000000000000000e+02,1.257350531079090139e+01
3.910000000000000000e+02,1.258897777277250185e+01
3.920000000000000000e+02,1.260372273666231457e+01
3.930000000000000000e+02,1.261819684006469267e+01
3.940000000000000000e+02,1.263208492320499055e+01
3.950000000000000000e+02,1.264522177370677625e+01
3.960000000000000000e+02,1.265792291565576022e+01
3.970000000000000000e+02,1.267055107903271960e+01
3.980000000000000000e+02,1.268293420455839993e+01
