# Time [s], Temperature [C]
1.000000000000000000e+00,2.499997700000000123e+01
2.000000000000000000e+00,5.957899100000000203e+01
3.000000000000000000e+00,8.242751300000000469e+01
4.000000000000000000e+00,1.011619799999999998e+02
5.000000000000000000e+00,1.171594099999999941e+02
6.000000000000000000e+00,1.313013799999999947e+02
7.000000000000000000e+00,1.440373800000000131e+02
8.000000000000000000e+00,1.556699500000000000e+02
9.000000000000000000e+00,1.664009700000000009e+02
1.000000000000000000e+01,1.763785100000000057e+02
1.100000000000000000e+01,1.857128600000000063e+02
1.200000000000000000e+01,1.944928600000000074e+02
1.300000000000000000e+01,2.027893500000000131e+02
1.400000000000000000e+01,2.106657099999999900e+02
1.500000000000000000e+01,2.181822799999999916e+02
1.600000000000000000e+01,2.254020199999999932e+02
1.700000000000000000e+01,2.323989599999999882e+02
1.800000000000000000e+01,2.392600700000000131e+02
1.900000000000000000e+01,2.460884700000000009e+02
2.000000000000000000e+01,2.529908000000000072e+02
2.100000000000000000e+01,2.600404100000000085e+02
2.200000000000000000e+01,2.672248799999999846e+02
2.300000000000000000e+01,2.744102199999999812e+02
2.400000000000000000e+01,2.813667599999999993e+02
2.500000000000000000e+01,2.878926999999999907e+02
2.600000000000000000e+01,2.939048500000000104e+02
2.700000000000000000e+01,2.994223000000000070e+02
2.800000000000000000e+01,3.045167500000000018e+02
2.900000000000000000e+01,3.092639800000000037e+02
3.000000000000000000e+01,3.137221700000000055e+02
3.100000000000000000e+01,3.179386600000000271e+02
3.200000000000000000e+01,3.219483299999999986e+02
3.300000000000000000e+01,3.257753599999999778e+02
3.400000000000000000e+01,3.294388099999999895e+02
3.500000000000000000e+01,3.329560900000000174e+02
3.600000000000000000e+01,3.363354499999999803e+02
3.700000000000000000e+01,3.395859699999999748e+02
3.800000000000000000e+01,3.427133799999999724e+02
3.900000000000000000e+01,3.457214999999999918e+02
4.000000000000000000e+01,3.486146899999999960e+02
4.100000000000000000e+01,3.513943800000000124e+02
4.200000000000000000e+01,3.540633900000000267e+02
4.300000000000000000e+01,3.566248800000000188e+02
4.400000000000000000e+01,3.590788000000000011e+02
4.500000000000000000e+01,3.614322199999999725e+02
4.600000000000000000e+01,3.636865799999999922e+02
4.700000000000000000e+01,3.658406699999999887e+02
4.800000000000000000e+01,3.679054899999999861e+02
4.900000000000000000e+01,3.698834200000000010e+02
5.000000000000000000e+01,3.717701999999999884e+02
5.100000000000000000e+01,3.735834699999999771e+02
5.200000000000000000e+01,3.753232699999999795e+02
5.300000000000000000e+01,3.769829700000000230e+02
5.400000000000000000e+01,3.785875199999999836e+02
5.500000000000000000e+01,3.801343100000000277e+02
5.600000000000000000e+01,3.816143500000000017e+02
5.700000000000000000e+01,3.830570999999999913e+02
5.800000000000000000e+01,3.844571799999999939e+02
5.900000000000000000e+01,3.858025799999999776e+02
6.000000000000000000e+01,3.871257600000000139e+02
6.100000000000000000e+01,3.884214799999999741e+02
6.200000000000000000e+01,3.896690699999999765e+02
6.300000000000000000e+01,3.909099100000000249e+02
6.400000000000000000e+01,3.921304000000000087e+02
6.500000000000000000e+01,3.933131399999999758e+02
6.600000000000000000e+01,3.944975299999999834e+02
6.700000000000000000e+01,3.956726699999999823e+02
6.800000000000000000e+01,3.968087199999999939e+02
6.900000000000000000e+01,3.979567900000000122e+02
7.000000000000000000e+01,3.990966199999999731e+02
7.100000000000000000e+01,4.002043199999999956e+02
7.200000000000000000e+01,4.013272999999999797e+02
7.300000000000000000e+01,4.024483900000000176e+02
7.400000000000000000e+01,4.035356100000000197e+02
7.500000000000000000e+01,4.046401999999999930e+02
7.600000000000000000e+01,4.057432600000000207e+02
7.700000000000000000e+01,4.068193699999999922e+02
7.800000000000000000e+01,4.079104300000000194e+02
7.900000000000000000e+01,4.090010100000000079e+02
8.000000000000000000e+01,4.100667399999999816e+02
8.100000000000000000e+01,4.111458400000000211e+02
8.200000000000000000e+01,4.122244000000000028e+02
8.300000000000000000e+01,4.132801499999999919e+02
8.400000000000000000e+01,4.143466799999999921e+02
8.500000000000000000e+01,4.154120500000000220e+02
8.600000000000000000e+01,4.164566699999999742e+02
8.700000000000000000e+01,4.175087899999999763e+02
8.800000000000000000e+01,4.185607299999999782e+02
8.900000000000000000e+01,4.195919499999999971e+02
9.000000000000000000e+01,4.206264600000000087e+02
9.100000000000000000e+01,4.216600300000000061e+02
9.200000000000000000e+01,4.226697700000000282e+02
9.300000000000000000e+01,4.236875000000000000e+02
9.400000000000000000e+01,4.246940900000000170e+02
9.500000000000000000e+01,4.256877099999999814e+02
9.600000000000000000e+01,4.266812100000000214e+02
9.700000000000000000e+01,4.276664999999999850e+02
9.800000000000000000e+01,4.286336400000000140e+02
9.900000000000000000e+01,4.296049199999999928e+02
1.000000000000000000e+02,4.305613399999999729e+02
1.010000000000000000e+02,4.315098300000000222e+02
1.020000000000000000e+02,4.324489100000000121e+02
1.030000000000000000e+02,4.333886699999999905e+02
1.040000000000000000e+02,4.343138700000000085e+02
1.050000000000000000e+02,4.352319600000000150e+02
1.060000000000000000e+02,4.361502699999999777e+02
1.070000000000000000e+02,4.370560899999999833e+02
1.080000000000000000e+02,4.379611800000000130e+02
1.090000000000000000e+02,4.388539400000000228e+02
1.100000000000000000e+02,4.397456999999999994e+02
1.110000000000000000e+02,4.406346100000000092e+02
1.120000000000000000e+02,4.415153799999999933e+02
1.130000000000000000e+02,4.423917799999999829e+02
1.140000000000000000e+02,4.432648300000000177e+02
1.150000000000000000e+02,4.441356200000000172e+02
1.160000000000000000e+02,4.449984699999999975e+02
1.170000000000000000e+02,4.458607499999999959e+02
1.180000000000000000e+02,4.467116100000000074e+02
1.190000000000000000e+02,4.475654299999999921e+02
1.200000000000000000e+02,4.484093899999999735e+02
1.210000000000000000e+02,4.492528699999999731e+02
1.220000000000000000e+02,4.500908499999999890e+02
1.230000000000000000e+02,4.509205900000000042e+02
1.240000000000000000e+02,4.517484400000000164e+02
1.250000000000000000e+02,4.525670200000000136e+02
1.260000000000000000e+02,4.533844599999999900e+02
1.270000000000000000e+02,4.541966199999999958e+02
1.280000000000000000e+02,4.550016499999999837e+02
1.290000000000000000e+02,4.558013900000000262e+02
1.300000000000000000e+02,4.565979899999999816e+02
1.310000000000000000e+02,4.573908400000000256e+02
1.320000000000000000e+02,4.581780099999999720e+02
1.330000000000000000e+02,4.589571199999999749e+02
1.340000000000000000e+02,4.597382799999999747e+02
1.350000000000000000e+02,4.605104999999999791e+02
1.360000000000000000e+02,4.612801200000000108e+02
1.370000000000000000e+02,4.620455900000000042e+02
1.380000000000000000e+02,4.628027599999999779e+02
1.390000000000000000e+02,4.635595999999999890e+02
1.400000000000000000e+02,4.643129900000000134e+02
1.410000000000000000e+02,4.650633900000000267e+02
1.420000000000000000e+02,4.658087499999999750e+02
1.430000000000000000e+02,4.665511500000000069e+02
1.440000000000000000e+02,4.672900700000000143e+02
1.450000000000000000e+02,4.680264900000000239e+02
1.460000000000000000e+02,4.687554900000000089e+02
1.470000000000000000e+02,4.694825099999999907e+02
1.480000000000000000e+02,4.702038000000000011e+02
1.490000000000000000e+02,4.709218399999999747e+02
1.500000000000000000e+02,4.716329000000000065e+02
1.510000000000000000e+02,4.723458600000000160e+02
1.520000000000000000e+02,4.730500200000000177e+02
1.530000000000000000e+02,4.737548800000000142e+02
1.540000000000000000e+02,4.744527899999999931e+02
1.550000000000000000e+02,4.742855500000000006e+02
1.560000000000000000e+02,4.731312899999999786e+02
1.570000000000000000e+02,4.736181900000000269e+02
1.580000000000000000e+02,4.740189199999999801e+02
1.590000000000000000e+02,4.745689100000000167e+02
1.600000000000000000e+02,4.751478000000000179e+02
1.610000000000000000e+02,4.757635500000000093e+02
1.620000000000000000e+02,4.763952300000000264e+02
1.630000000000000000e+02,4.770440100000000143e+02
1.640000000000000000e+02,4.776997700000000009e+02
1.650000000000000000e+02,4.783632200000000125e+02
1.660000000000000000e+02,4.790323799999999892e+02
1.670000000000000000e+02,4.797010799999999904e+02
1.680000000000000000e+02,4.803704500000000053e+02
1.690000000000000000e+02,4.810444600000000150e+02
1.700000000000000000e+02,4.817129199999999969e+02
1.710000000000000000e+02,4.823791800000000194e+02
1.720000000000000000e+02,4.830415600000000040e+02
1.730000000000000000e+02,4.837026999999999930e+02
1.740000000000000000e+02,4.843583100000000172e+02
1.750000000000000000e+02,4.850130300000000148e+02
1.760000000000000000e+02,4.856617400000000089e+02
1.770000000000000000e+02,4.863070999999999913e+02
1.780000000000000000e+02,4.869500400000000013e+02
1.790000000000000000e+02,4.875895100000000184e+02
1.800000000000000000e+02,4.882229300000000194e+02
1.810000000000000000e+02,4.888541599999999789e+02
1.820000000000000000e+02,4.894797699999999736e+02
1.830000000000000000e+02,4.901038500000000226e+02
1.840000000000000000e+02,4.907212799999999788e+02
1.850000000000000000e+02,4.913410600000000272e+02
1.860000000000000000e+02,4.919521799999999985e+02
1.870000000000000000e+02,4.925599399999999832e+02
1.880000000000000000e+02,4.931657099999999900e+02
1.890000000000000000e+02,4.937677899999999909e+02
1.900000000000000000e+02,4.943665500000000179e+02
1.910000000000000000e+02,4.949593800000000101e+02
1.920000000000000000e+02,4.955504500000000121e+02
1.930000000000000000e+02,4.961375699999999824e+02
1.940000000000000000e+02,4.967220199999999863e+02
1.950000000000000000e+02,4.973005099999999743e+02
1.960000000000000000e+02,4.978808900000000222e+02
1.970000000000000000e+02,4.984545299999999770e+02
1.980000000000000000e+02,4.990223399999999856e+02
1.990000000000000000e+02,4.995912200000000212e+02
2.000000000000000000e+02,5.001526499999999942e+02
2.010000000000000000e+02,5.007121900000000210e+02
2.020000000000000000e+02,5.012690400000000182e+02
2.030000000000000000e+02,5.018238799999999742e+02
2.040000000000000000e+02,5.023757899999999950e+02
2.050000000000000000e+02,5.029205299999999852e+02
2.060000000000000000e+02,5.034641100000000051e+02
2.070000000000000000e+02,5.040048199999999952e+02
2.080000000000000000e+02,5.045429100000000062e+02
2.090000000000000000e+02,5.050791300000000206e+02
2.100000000000000000e+02,5.056081199999999853e+02
2.110000000000000000e+02,5.061385799999999904e+02
2.120000000000000000e+02,5.066636700000000246e+02
2.130000000000000000e+02,5.071853899999999840e+02
2.140000000000000000e+02,5.077037700000000200e+02
2.150000000000000000e+02,5.082215600000000109e+02
2.160000000000000000e+02,5.087342199999999934e+02
2.170000000000000000e+02,5.092436500000000024e+02
2.180000000000000000e+02,5.097512800000000084e+02
2.190000000000000000e+02,5.102571699999999737e+02
2.200000000000000000e+02,5.107558599999999842e+02
2.210000000000000000e+02,5.112565599999999790e+02
2.220000000000000000e+02,5.117511299999999892e+02
2.230000000000000000e+02,5.122442600000000539e+02
2.240000000000000000e+02,5.127320600000000468e+02
2.250000000000000000e+02,5.131602199999999812e+02
2.260000000000000000e+02,5.135405299999999897e+02
2.270000000000000000e+02,5.139589200000000346e+02
2.280000000000000000e+02,5.143904400000000123e+02
2.290000000000000000e+02,5.148219599999999900e+02
2.300000000000000000e+02,5.152582400000000007e+02
2.310000000000000000e+02,5.156955000000000382e+02
2.320000000000000000e+02,5.161344599999999900e+02
2.330000000000000000e+02,5.165725700000000415e+02
2.340000000000000000e+02,5.170131199999999581e+02
2.350000000000000000e+02,5.174532500000000255e+02
2.360000000000000000e+02,5.178945899999999938e+02
2.370000000000000000e+02,5.183360599999999749e+02
2.380000000000000000e+02,5.187774699999999939e+02
2.390000000000000000e+02,5.192188099999999622e+02
2.400000000000000000e+02,5.196566199999999753e+02
2.410000000000000000e+02,5.200950299999999515e+02
2.420000000000000000e+02,5.205325299999999515e+02
2.430000000000000000e+02,5.209685100000000375e+02
2.440000000000000000e+02,5.214001500000000533e+02
2.450000000000000000e+02,5.218314800000000560e+02
2.460000000000000000e+02,5.222626299999999446e+02
2.470000000000000000e+02,5.226908600000000433e+02
2.480000000000000000e+02,5.231154800000000478e+02
2.490000000000000000e+02,5.235391200000000254e+02
2.500000000000000000e+02,5.239613600000000133e+02
2.510000000000000000e+02,5.243814700000000357e+02
2.520000000000000000e+02,5.247964500000000498e+02
2.530000000000000000e+02,5.252105699999999615e+02
2.540000000000000000e+02,5.256226199999999835e+02
2.550000000000000000e+02,5.260327099999999518e+02
2.560000000000000000e+02,5.264400000000000546e+02
2.570000000000000000e+02,5.268428999999999860e+02
2.580000000000000000e+02,5.272453000000000429e+02
2.590000000000000000e+02,5.276450800000000072e+02
2.600000000000000000e+02,5.280430300000000443e+02
2.610000000000000000e+02,5.284387199999999893e+02
2.620000000000000000e+02,5.288319699999999557e+02
2.630000000000000000e+02,5.292227199999999812e+02
2.640000000000000000e+02,5.296082199999999602e+02
2.650000000000000000e+02,5.299935299999999643e+02
2.660000000000000000e+02,5.303766500000000406e+02
2.670000000000000000e+02,5.307569600000000491e+02
2.680000000000000000e+02,5.311356200000000172e+02
2.690000000000000000e+02,5.315126299999999446e+02
2.700000000000000000e+02,5.318864700000000312e+02
2.710000000000000000e+02,5.322578700000000254e+02
2.720000000000000000e+02,5.326279899999999543e+02
2.730000000000000000e+02,5.329954800000000432e+02
2.740000000000000000e+02,5.333589500000000498e+02
2.750000000000000000e+02,5.337219199999999546e+02
2.760000000000000000e+02,5.340822100000000319e+02
2.770000000000000000e+02,5.344421399999999949e+02
2.780000000000000000e+02,5.347987699999999904e+02
2.790000000000000000e+02,5.351537499999999454e+02
2.800000000000000000e+02,5.355081199999999626e+02
2.810000000000000000e+02,5.358572400000000471e+02
2.820000000000000000e+02,5.361969000000000278e+02
2.830000000000000000e+02,5.365298500000000104e+02
2.840000000000000000e+02,5.368604699999999639e+02
2.850000000000000000e+02,5.371901900000000296e+02
2.860000000000000000e+02,5.375164800000000014e+02
2.870000000000000000e+02,5.378425899999999729e+02
2.880000000000000000e+02,5.381672399999999925e+02
2.890000000000000000e+02,5.384930399999999509e+02
2.900000000000000000e+02,5.388169599999999946e+02
2.910000000000000000e+02,5.391404999999999745e+02
2.920000000000000000e+02,5.394610599999999749e+02
2.930000000000000000e+02,5.397816199999999753e+02
2.940000000000000000e+02,5.401008299999999736e+02
2.950000000000000000e+02,5.404198000000000093e+02
2.960000000000000000e+02,5.407395000000000209e+02
2.970000000000000000e+02,5.410562700000000405e+02
2.980000000000000000e+02,5.413730500000000347e+02
2.990000000000000000e+02,5.416895100000000411e+02
3.000000000000000000e+02,5.420050700000000461e+02
3.010000000000000000e+02,5.423209200000000010e+02
3.020000000000000000e+02,5.426344000000000278e+02
3.030000000000000000e+02,5.429493400000000065e+02
3.040000000000000000e+02,5.432618999999999687e+02
3.050000000000000000e+02,5.435751999999999953e+02
3.060000000000000000e+02,5.438856799999999794e+02
3.070000000000000000e+02,5.441961700000000519e+02
3.080000000000000000e+02,5.445059199999999464e+02
3.090000000000000000e+02,5.448146400000000540e+02
3.100000000000000000e+02,5.451235400000000482e+02
3.110000000000000000e+02,5.454304200000000264e+02
3.120000000000000000e+02,5.457373000000000047e+02
3.130000000000000000e+02,5.460451699999999846e+02
3.140000000000000000e+02,5.463523599999999760e+02
3.150000000000000000e+02,5.466566199999999753e+02
3.160000000000000000e+02,5.469608200000000124e+02
3.170000000000000000e+02,5.472645300000000361e+02
3.180000000000000000e+02,5.475676300000000083e+02
3.190000000000000000e+02,5.478710899999999810e+02
3.200000000000000000e+02,5.481729699999999639e+02
3.210000000000000000e+02,5.484749799999999595e+02
3.220000000000000000e+02,5.487780199999999695e+02
3.230000000000000000e+02,5.490805699999999661e+02
3.240000000000000000e+02,5.493804900000000089e+02
3.250000000000000000e+02,5.496809700000000021e+02
3.260000000000000000e+02,5.499813199999999824e+02
3.270000000000000000e+02,5.502821699999999510e+02
3.280000000000000000e+02,5.505812399999999798e+02
3.290000000000000000e+02,5.508814099999999598e+02
3.300000000000000000e+02,5.511828000000000429e+02
3.310000000000000000e+02,5.514835799999999608e+02
3.320000000000000000e+02,5.517827099999999518e+02
3.330000000000000000e+02,5.520825200000000450e+02
3.340000000000000000e+02,5.523822599999999738e+02
3.350000000000000000e+02,5.526834700000000566e+02
3.360000000000000000e+02,5.529830899999999474e+02
3.370000000000000000e+02,5.532855200000000195e+02
3.380000000000000000e+02,5.535872200000000021e+02
3.390000000000000000e+02,5.538896499999999605e+02
3.400000000000000000e+02,5.541906699999999546e+02
3.410000000000000000e+02,5.544933499999999640e+02
3.420000000000000000e+02,5.547963300000000118e+02
3.430000000000000000e+02,5.551009500000000116e+02
3.440000000000000000e+02,5.554050899999999729e+02
3.450000000000000000e+02,5.557106899999999996e+02
3.460000000000000000e+02,5.560184900000000425e+02
3.470000000000000000e+02,5.563261700000000474e+02
3.480000000000000000e+02,5.566353100000000040e+02
3.490000000000000000e+02,5.569440299999999979e+02
3.500000000000000000e+02,5.572552500000000464e+02
3.510000000000000000e+02,5.575673799999999574e+02
3.520000000000000000e+02,5.578811600000000226e+02
3.530000000000000000e+02,5.581948200000000497e+02
3.540000000000000000e+02,5.585111699999999928e+02
3.550000000000000000e+02,5.588290399999999636e+02
3.560000000000000000e+02,5.591493500000000267e+02
3.570000000000000000e+02,5.594735100000000330e+02
3.580000000000000000e+02,5.597966900000000123e+02
3.590000000000000000e+02,5.601230500000000347e+02
3.600000000000000000e+02,5.604511700000000474e+02
3.610000000000000000e+02,5.607815600000000131e+02
3.620000000000000000e+02,5.611150499999999965e+02
3.630000000000000000e+02,5.614492800000000443e+02
3.640000000000000000e+02,5.617821000000000140e+02
3.650000000000000000e+02,5.621141400000000203e+02
3.660000000000000000e+02,5.624556900000000041e+02
3.670000000000000000e+02,5.627991899999999532e+02
3.680000000000000000e+02,5.631461199999999963e+02
3.690000000000000000e+02,5.634959700000000566e+02
3.700000000000000000e+02,5.638472900000000436e+02
3.710000000000000000e+02,5.642025800000000118e+02
3.720000000000000000e+02,5.645602999999999838e+02
3.730000000000000000e+02,5.649218799999999874e+02
3.740000000000000000e+02,5.652871099999999842e+02
3.750000000000000000e+02,5.656554599999999482e+02
3.760000000000000000e+02,5.660266699999999673e+02
3.770000000000000000e+02,5.664000200000000405e+02
3.780000000000000000e+02,5.667780199999999695e+02
3.790000000000000000e+02,5.671593000000000302e+02
3.800000000000000000e+02,5.675438199999999824e+02
3.810000000000000000e+02,5.679315800000000536e+02
3.820000000000000000e+02,5.683211099999999760e+02
3.830000000000000000e+02,5.687143600000000561e+02
3.840000000000000000e+02,5.691097399999999880e+02
3.850000000000000000e+02,5.695066500000000360e+02
3.860000000000000000e+02,5.699071699999999510e+02
3.870000000000000000e+02,5.703095100000000457e+02
3.880000000000000000e+02,5.707141699999999673e+02
3.890000000000000000e+02,5.711207299999999805e+02
3.900000000000000000e+02,5.715284400000000460e+02
3.910000000000000000e+02,5.719365199999999732e+02
3.920000000000000000e+02,5.723464999999999918e+02
3.930000000000000000e+02,5.727585400000000391e+02
3.940000000000000000e+02,5.731707800000000361e+02
3.950000000000000000e+02,5.735842900000000100e+02
3.960000000000000000e+02,5.739970700000000079e+02
3.970000000000000000e+02,5.744110100000000330e+02
3.980000000000000000e+02,5.748256199999999581e+02
3.990000000000000000e+02,5.752403000000000475e+02
