# Time [s], Thickness [m]
1.000000000000000000e+00,8.000000400000000303e-03
2.000000000000000000e+00,8.000000400000000303e-03
3.000000000000000000e+00,8.000000400000000303e-03
4.000000000000000000e+00,8.000000400000000303e-03
5.000000000000000000e+00,8.000000400000000303e-03
6.000000000000000000e+00,8.000000400000000303e-03
7.000000000000000000e+00,8.000000400000000303e-03
8.000000000000000000e+00,8.000000400000000303e-03
9.000000000000000000e+00,8.000000400000000303e-03
1.000000000000000000e+01,8.000000400000000303e-03
1.100000000000000000e+01,8.000000400000000303e-03
1.200000000000000000e+01,8.000000400000000303e-03
1.300000000000000000e+01,8.000000400000000303e-03
1.400000000000000000e+01,8.000000400000000303e-03
1.500000000000000000e+01,7.999999400000000829e-03
1.600000000000000000e+01,7.999999400000000829e-03
1.700000000000000000e+01,7.999999400000000829e-03
1.800000000000000000e+01,7.999999400000000829e-03
1.900000000000000000e+01,7.999998499999999221e-03
2.000000000000000000e+01,7.999997599999999348e-03
2.100000000000000000e+01,7.999996699999999475e-03
2.200000000000000000e+01,7.999993900000000255e-03
2.300000000000000000e+01,7.999991099999999300e-03
2.400000000000000000e+01,7.999985500000000860e-03
2.500000000000000000e+01,7.999977999999999603e-03
2.600000000000000000e+01,7.999967800000000462e-03
2.700000000000000000e+01,7.999952899999999284e-03
2.800000000000000000e+01,7.999933299999999539e-03
2.900000000000000000e+01,7.999905400000000000e-03
3.000000000000000000e+01,7.999869099999999331e-03
3.100000000000000000e+01,7.999820600000000573e-03
3.200000000000000000e+01,7.999759199999999584e-03
3.300000000000000000e+01,7.999679100000000459e-03
3.400000000000000000e+01,7.999579399999999854e-03
3.500000000000000000e+01,7.999453700000000791e-03
3.600000000000000000e+01,7.999298199999999373e-03
3.700000000000000000e+01,7.999108200000000501e-03
3.800000000000000000e+01,7.998877200000000659e-03
3.900000000000000000e+01,7.998599699999999271e-03
4.000000000000000000e+01,7.998267200000000812e-03
4.100000000000000000e+01,7.997875099999999376e-03
4.200000000000000000e+01,7.997414099999999165e-03
4.300000000000000000e+01,7.996876700000000657e-03
4.400000000000000000e+01,7.996256499999999934e-03
4.500000000000000000e+01,7.995544000000000262e-03
4.600000000000000000e+01,7.994733800000000667e-03
4.700000000000000000e+01,7.993819200000000166e-03
4.800000000000000000e+01,7.992791900000000699e-03
4.900000000000000000e+01,7.991648299999999303e-03
5.000000000000000000e+01,7.990385399999999291e-03
5.100000000000000000e+01,7.988995900000000344e-03
5.200000000000000000e+01,7.987479699999999391e-03
5.300000000000000000e+01,7.985836799999999902e-03
5.400000000000000000e+01,7.984063600000000649e-03
5.500000000000000000e+01,7.982162799999999517e-03
5.600000000000000000e+01,7.980139900000000550e-03
5.700000000000000000e+01,7.977987599999999957e-03
5.800000000000000000e+01,7.975718899999999570e-03
5.900000000000000000e+01,7.973337500000000216e-03
6.000000000000000000e+01,7.970837899999999587e-03
6.100000000000000000e+01,7.968233899999999786e-03
6.200000000000000000e+01,7.965534899999999682e-03
6.300000000000000000e+01,7.962728900000000387e-03
6.400000000000000000e+01,7.959494399999999387e-03
6.500000000000000000e+01,7.956453599999999821e-03
6.600000000000000000e+01,7.953316000000000205e-03
6.700000000000000000e+01,7.950131799999999443e-03
6.800000000000000000e+01,7.946884300000000081e-03
6.900000000000000000e+01,7.943563199999999908e-03
7.000000000000000000e+01,7.940185299999999446e-03
7.100000000000000000e+01,7.936759899999999701e-03
7.200000000000000000e+01,7.933266499999999319e-03
7.300000000000000000e+01,7.929731199999999827e-03
7.400000000000000000e+01,7.926157700000000320e-03
7.500000000000000000e+01,7.922527400000000525e-03
7.600000000000000000e+01,7.918863599999999281e-03
7.700000000000000000e+01,7.915170900000000759e-03
7.800000000000000000e+01,7.911429700000000009e-03
7.900000000000000000e+01,7.907661599999999194e-03
8.000000000000000000e+01,7.903870199999999541e-03
8.100000000000000000e+01,7.900036900000000778e-03
8.200000000000000000e+01,7.896180299999999708e-03
8.300000000000000000e+01,7.892305000000000501e-03
8.400000000000000000e+01,7.888393500000000225e-03
8.500000000000000000e+01,7.884462400000000204e-03
8.600000000000000000e+01,7.880514499999999659e-03
8.700000000000000000e+01,7.876534899999999145e-03
8.800000000000000000e+01,7.872538599999999442e-03
8.900000000000000000e+01,7.868527400000000296e-03
9.000000000000000000e+01,7.864490199999999223e-03
9.100000000000000000e+01,7.860438000000000841e-03
9.200000000000000000e+01,7.856373700000000501e-03
9.300000000000000000e+01,7.852288000000000670e-03
9.400000000000000000e+01,7.848190099999999281e-03
9.500000000000000000e+01,7.844082100000000085e-03
9.600000000000000000e+01,7.839956299999999156e-03
9.700000000000000000e+01,7.835820300000000821e-03
9.800000000000000000e+01,7.831675899999999621e-03
9.900000000000000000e+01,7.827517600000000186e-03
1.000000000000000000e+02,7.823349900000000148e-03
1.010000000000000000e+02,7.819175700000000062e-03
1.020000000000000000e+02,7.814989399999999753e-03
1.030000000000000000e+02,7.810794700000000049e-03
1.040000000000000000e+02,7.806593100000000160e-03
1.050000000000000000e+02,7.802381599999999931e-03
1.060000000000000000e+02,7.798161399999999771e-03
1.070000000000000000e+02,7.793934599999999963e-03
1.080000000000000000e+02,7.789698000000000282e-03
1.090000000000000000e+02,7.785453500000000075e-03
1.100000000000000000e+02,7.781202000000000084e-03
1.110000000000000000e+02,7.776941199999999957e-03
1.120000000000000000e+02,7.772671999999999567e-03
1.130000000000000000e+02,7.768395800000000261e-03
1.140000000000000000e+02,7.764110299999999951e-03
1.150000000000000000e+02,7.759816899999999983e-03
1.160000000000000000e+02,7.755516100000000093e-03
1.170000000000000000e+02,7.751206400000000205e-03
1.180000000000000000e+02,7.746888799999999790e-03
1.190000000000000000e+02,7.742562799999999981e-03
1.200000000000000000e+02,7.738228399999999910e-03
1.210000000000000000e+02,7.733884699999999703e-03
1.220000000000000000e+02,7.729533099999999837e-03
1.230000000000000000e+02,7.725172699999999573e-03
1.240000000000000000e+02,7.720802899999999573e-03
1.250000000000000000e+02,7.716423800000000305e-03
1.260000000000000000e+02,7.712035400000000034e-03
1.270000000000000000e+02,7.707636799999999754e-03
1.280000000000000000e+02,7.703228900000000205e-03
1.290000000000000000e+02,7.698809699999999839e-03
1.300000000000000000e+02,7.694380399999999932e-03
1.310000000000000000e+02,7.689940299999999812e-03
1.320000000000000000e+02,7.685488600000000073e-03
1.330000000000000000e+02,7.681025699999999984e-03
1.340000000000000000e+02,7.676550699999999672e-03
1.350000000000000000e+02,7.672064000000000140e-03
1.360000000000000000e+02,7.667564800000000250e-03
1.370000000000000000e+02,7.663053500000000136e-03
1.380000000000000000e+02,7.658529100000000325e-03
1.390000000000000000e+02,7.653991700000000419e-03
1.400000000000000000e+02,7.649440799999999811e-03
1.410000000000000000e+02,7.644876400000000238e-03
1.420000000000000000e+02,7.640298000000000228e-03
1.430000000000000000e+02,7.635705599999999781e-03
1.440000000000000000e+02,7.631098400000000358e-03
1.450000000000000000e+02,7.626475800000000020e-03
1.460000000000000000e+02,7.621838199999999772e-03
1.470000000000000000e+02,7.617185400000000411e-03
1.480000000000000000e+02,7.612516199999999796e-03
1.490000000000000000e+02,7.607830700000000126e-03
1.500000000000000000e+02,7.603128899999999669e-03
1.510000000000000000e+02,7.598409900000000286e-03
1.520000000000000000e+02,7.593673199999999637e-03
1.530000000000000000e+02,7.588918800000000325e-03
1.540000000000000000e+02,7.584146200000000011e-03
1.550000000000000000e+02,7.579355500000000030e-03
1.560000000000000000e+02,7.574545200000000304e-03
1.570000000000000000e+02,7.569715799999999703e-03
1.580000000000000000e+02,7.564866899999999825e-03
1.590000000000000000e+02,7.559998000000000065e-03
1.600000000000000000e+02,7.555108500000000220e-03
1.610000000000000000e+02,7.550198099999999753e-03
1.620000000000000000e+02,7.545266299999999794e-03
1.630000000000000000e+02,7.540312599999999740e-03
1.640000000000000000e+02,7.534994700000000392e-03
1.650000000000000000e+02,7.529625699999999665e-03
1.660000000000000000e+02,7.524297600000000308e-03
1.670000000000000000e+02,7.519009499999999846e-03
1.680000000000000000e+02,7.513728499999999637e-03
1.690000000000000000e+02,7.508456200000000226e-03
1.700000000000000000e+02,7.503178000000000104e-03
1.710000000000000000e+02,7.497890899999999983e-03
1.720000000000000000e+02,7.492588799999999952e-03
1.730000000000000000e+02,7.487269999999999863e-03
1.740000000000000000e+02,7.481931199999999893e-03
1.750000000000000000e+02,7.476570600000000295e-03
1.760000000000000000e+02,7.471186599999999657e-03
1.770000000000000000e+02,7.465776999999999830e-03
1.780000000000000000e+02,7.460341799999999947e-03
1.790000000000000000e+02,7.454878699999999657e-03
1.800000000000000000e+02,7.449388000000000364e-03
1.810000000000000000e+02,7.443867600000000050e-03
1.820000000000000000e+02,7.438317399999999982e-03
1.830000000000000000e+02,7.432735999999999683e-03
1.840000000000000000e+02,7.427122900000000284e-03
1.850000000000000000e+02,7.421477699999999914e-03
1.860000000000000000e+02,7.415798999999999828e-03
1.870000000000000000e+02,7.410086199999999824e-03
1.880000000000000000e+02,7.404339000000000233e-03
1.890000000000000000e+02,7.398555999999999709e-03
1.900000000000000000e+02,7.392737100000000387e-03
1.910000000000000000e+02,7.386880900000000055e-03
1.920000000000000000e+02,7.380987500000000048e-03
1.930000000000000000e+02,7.375055900000000025e-03
1.940000000000000000e+02,7.369085200000000113e-03
1.950000000000000000e+02,7.363074499999999571e-03
1.960000000000000000e+02,7.357023699999999666e-03
1.970000000000000000e+02,7.350931899999999658e-03
1.980000000000000000e+02,7.344798199999999673e-03
1.990000000000000000e+02,7.338622599999999711e-03
2.000000000000000000e+02,7.332403700000000163e-03
2.010000000000000000e+02,7.326141500000000160e-03
2.020000000000000000e+02,7.319835000000000230e-03
2.030000000000000000e+02,7.313484299999999973e-03
2.040000000000000000e+02,7.307087999999999778e-03
2.050000000000000000e+02,7.300646000000000045e-03
2.060000000000000000e+02,7.294158499999999976e-03
2.070000000000000000e+02,7.287623800000000290e-03
2.080000000000000000e+02,7.281042599999999927e-03
2.090000000000000000e+02,7.274414400000000017e-03
2.100000000000000000e+02,7.267738699999999955e-03
2.110000000000000000e+02,7.261015499999999741e-03
2.120000000000000000e+02,7.254244800000000243e-03
2.130000000000000000e+02,7.247426500000000126e-03
2.140000000000000000e+02,7.240560400000000188e-03
2.150000000000000000e+02,7.233647200000000235e-03
2.160000000000000000e+02,7.226686000000000394e-03
2.170000000000000000e+02,7.219678299999999875e-03
2.180000000000000000e+02,7.212623999999999945e-03
2.190000000000000000e+02,7.205523099999999737e-03
2.200000000000000000e+02,7.198376599999999591e-03
2.210000000000000000e+02,7.191185400000000248e-03
2.220000000000000000e+02,7.183949499999999974e-03
2.230000000000000000e+02,7.176670199999999646e-03
2.240000000000000000e+02,7.169348699999999672e-03
2.250000000000000000e+02,7.161985200000000121e-03
2.260000000000000000e+02,7.154581600000000340e-03
2.270000000000000000e+02,7.147138499999999665e-03
2.280000000000000000e+02,7.139657199999999843e-03
2.290000000000000000e+02,7.132139099999999614e-03
2.300000000000000000e+02,7.124585999999999593e-03
2.310000000000000000e+02,7.116998999999999721e-03
2.320000000000000000e+02,7.109167500000000174e-03
2.330000000000000000e+02,7.101343500000000149e-03
2.340000000000000000e+02,7.093519900000000260e-03
2.350000000000000000e+02,7.085690700000000196e-03
2.360000000000000000e+02,7.077853200000000337e-03
2.370000000000000000e+02,7.070005899999999739e-03
2.380000000000000000e+02,7.062147799999999795e-03
2.390000000000000000e+02,7.054279099999999705e-03
2.400000000000000000e+02,7.046399600000000270e-03
2.410000000000000000e+02,7.038509899999999958e-03
2.420000000000000000e+02,7.030611400000000115e-03
2.430000000000000000e+02,7.022704000000000273e-03
2.440000000000000000e+02,7.014789599999999778e-03
2.450000000000000000e+02,7.006869699999999576e-03
2.460000000000000000e+02,6.998945000000000340e-03
2.470000000000000000e+02,6.991016699999999875e-03
2.480000000000000000e+02,6.983086900000000201e-03
2.490000000000000000e+02,6.975157200000000127e-03
2.500000000000000000e+02,6.967228399999999926e-03
2.510000000000000000e+02,6.959302799999999949e-03
2.520000000000000000e+02,6.951381000000000400e-03
2.530000000000000000e+02,6.943464699999999691e-03
2.540000000000000000e+02,6.935555999999999839e-03
2.550000000000000000e+02,6.927655500000000181e-03
2.560000000000000000e+02,6.919764400000000260e-03
2.570000000000000000e+02,6.911885000000000424e-03
2.580000000000000000e+02,6.904017600000000345e-03
2.590000000000000000e+02,6.896163799999999698e-03
2.600000000000000000e+02,6.888324900000000230e-03
2.610000000000000000e+02,6.880501800000000077e-03
2.620000000000000000e+02,6.872695399999999982e-03
2.630000000000000000e+02,6.864906799999999885e-03
2.640000000000000000e+02,6.857137200000000196e-03
2.650000000000000000e+02,6.849387699999999989e-03
2.660000000000000000e+02,6.841658599999999799e-03
2.670000000000000000e+02,6.833950999999999568e-03
2.680000000000000000e+02,6.826265699999999569e-03
2.690000000000000000e+02,6.818603300000000006e-03
2.700000000000000000e+02,6.810965000000000422e-03
2.710000000000000000e+02,6.803351000000000016e-03
2.720000000000000000e+02,6.795762099999999931e-03
2.730000000000000000e+02,6.788198799999999901e-03
2.740000000000000000e+02,6.780661599999999664e-03
2.750000000000000000e+02,6.773151899999999698e-03
2.760000000000000000e+02,6.765669200000000265e-03
2.770000000000000000e+02,6.758214400000000371e-03
2.780000000000000000e+02,6.750788500000000358e-03
2.790000000000000000e+02,6.743390999999999622e-03
2.800000000000000000e+02,6.736023399999999973e-03
2.810000000000000000e+02,6.728685499999999611e-03
2.820000000000000000e+02,6.721377800000000007e-03
2.830000000000000000e+02,6.714101400000000233e-03
2.840000000000000000e+02,6.706855700000000087e-03
2.850000000000000000e+02,6.699641699999999908e-03
2.860000000000000000e+02,6.692332199999999690e-03
2.870000000000000000e+02,6.685074400000000187e-03
2.880000000000000000e+02,6.677863699999999833e-03
2.890000000000000000e+02,6.670697100000000206e-03
2.900000000000000000e+02,6.663574400000000370e-03
2.910000000000000000e+02,6.656493500000000042e-03
2.920000000000000000e+02,6.649454100000000423e-03
2.930000000000000000e+02,6.642455700000000039e-03
2.940000000000000000e+02,6.635497800000000022e-03
2.950000000000000000e+02,6.628580900000000109e-03
2.960000000000000000e+02,6.621704400000000094e-03
2.970000000000000000e+02,6.614868999999999784e-03
2.980000000000000000e+02,6.608074499999999976e-03
2.990000000000000000e+02,6.601321500000000009e-03
3.000000000000000000e+02,6.594609900000000281e-03
3.010000000000000000e+02,6.587940300000000131e-03
3.020000000000000000e+02,6.581313400000000230e-03
3.030000000000000000e+02,6.574728999999999643e-03
3.040000000000000000e+02,6.568188299999999646e-03
3.050000000000000000e+02,6.561691899999999578e-03
3.060000000000000000e+02,6.555240099999999973e-03
3.070000000000000000e+02,6.548833999999999905e-03
3.080000000000000000e+02,6.542474000000000380e-03
3.090000000000000000e+02,6.536161500000000138e-03
3.100000000000000000e+02,6.529896999999999785e-03
3.110000000000000000e+02,6.523681800000000197e-03
3.120000000000000000e+02,6.517516400000000244e-03
3.130000000000000000e+02,6.511401899999999868e-03
3.140000000000000000e+02,6.505340299999999749e-03
3.150000000000000000e+02,6.499331900000000425e-03
3.160000000000000000e+02,6.493378400000000307e-03
3.170000000000000000e+02,6.487481300000000339e-03
3.180000000000000000e+02,6.481641399999999928e-03
3.190000000000000000e+02,6.475861200000000359e-03
3.200000000000000000e+02,6.470141000000000434e-03
3.210000000000000000e+02,6.464483699999999840e-03
3.220000000000000000e+02,6.458890200000000185e-03
3.230000000000000000e+02,6.453362800000000087e-03
3.240000000000000000e+02,6.447903300000000157e-03
3.250000000000000000e+02,6.442513799999999811e-03
3.260000000000000000e+02,6.437196899999999937e-03
3.270000000000000000e+02,6.431954000000000143e-03
3.280000000000000000e+02,6.426787899999999651e-03
3.290000000000000000e+02,6.421701099999999746e-03
3.300000000000000000e+02,6.416696099999999979e-03
3.310000000000000000e+02,6.411775500000000370e-03
3.320000000000000000e+02,6.406942799999999945e-03
3.330000000000000000e+02,6.402200099999999852e-03
3.340000000000000000e+02,6.397551399999999722e-03
3.350000000000000000e+02,6.392999100000000372e-03
3.360000000000000000e+02,6.388546900000000028e-03
3.370000000000000000e+02,6.384198100000000251e-03
3.380000000000000000e+02,6.379956400000000132e-03
3.390000000000000000e+02,6.375824999999999895e-03
3.400000000000000000e+02,6.371808199999999707e-03
3.410000000000000000e+02,6.367909700000000395e-03
3.420000000000000000e+02,6.364132699999999580e-03
3.430000000000000000e+02,6.360481000000000294e-03
3.440000000000000000e+02,6.356958299999999895e-03
3.450000000000000000e+02,6.353568300000000078e-03
3.460000000000000000e+02,6.350314200000000200e-03
3.470000000000000000e+02,6.347199399999999686e-03
3.480000000000000000e+02,6.344225700000000016e-03
3.490000000000000000e+02,6.341396400000000148e-03
3.500000000000000000e+02,6.338712300000000355e-03
3.510000000000000000e+02,6.336175399999999583e-03
3.520000000000000000e+02,6.333786099999999704e-03
3.530000000000000000e+02,6.331543900000000114e-03
3.540000000000000000e+02,6.329447499999999935e-03
3.550000000000000000e+02,6.327495899999999694e-03
3.560000000000000000e+02,6.325685400000000298e-03
3.570000000000000000e+02,6.324013199999999925e-03
3.580000000000000000e+02,6.322474199999999871e-03
3.590000000000000000e+02,6.321063299999999698e-03
3.600000000000000000e+02,6.319774299999999893e-03
3.610000000000000000e+02,6.318600800000000010e-03
3.620000000000000000e+02,6.317536300000000000e-03
3.630000000000000000e+02,6.316573399999999942e-03
3.640000000000000000e+02,6.315704400000000246e-03
3.650000000000000000e+02,6.314922100000000191e-03
3.660000000000000000e+02,6.314219000000000255e-03
3.670000000000000000e+02,6.313588499999999923e-03
3.680000000000000000e+02,6.313023600000000277e-03
3.690000000000000000e+02,6.312517900000000001e-03
3.700000000000000000e+02,6.312065799999999789e-03
3.710000000000000000e+02,6.311661100000000128e-03
3.720000000000000000e+02,6.311299700000000054e-03
3.730000000000000000e+02,6.310976599999999596e-03
3.740000000000000000e+02,6.310687399999999857e-03
3.750000000000000000e+02,6.310428499999999608e-03
3.760000000000000000e+02,6.310196599999999892e-03
3.770000000000000000e+02,6.309988899999999755e-03
3.780000000000000000e+02,6.309802199999999840e-03
3.790000000000000000e+02,6.309634500000000333e-03
3.800000000000000000e+02,6.309483700000000084e-03
3.810000000000000000e+02,6.309348200000000281e-03
3.820000000000000000e+02,6.309225699999999708e-03
3.830000000000000000e+02,6.309114900000000088e-03
3.840000000000000000e+02,6.309014699999999747e-03
3.850000000000000000e+02,6.308924399999999745e-03
3.860000000000000000e+02,6.308842000000000269e-03
3.870000000000000000e+02,6.308767499999999584e-03
3.880000000000000000e+02,6.308700000000000419e-03
3.890000000000000000e+02,6.308638000000000093e-03
3.900000000000000000e+02,6.308581700000000410e-03
3.910000000000000000e+02,6.308529999999999693e-03
3.920000000000000000e+02,6.308483000000000146e-03
3.930000000000000000e+02,6.308440099999999828e-03
3.940000000000000000e+02,6.308400500000000202e-03
3.950000000000000000e+02,6.308364200000000400e-03
3.960000000000000000e+02,6.308330699999999819e-03
3.970000000000000000e+02,6.308300000000000192e-03
3.980000000000000000e+02,6.308271499999999581e-03
3.990000000000000000e+02,6.308245500000000255e-03
