# Time [s], Convective Heat Transfer Coefficient [W/m2K]
1.000000000000000000e+00,0.000000000000000000e+00
2.000000000000000000e+00,0.000000000000000000e+00
3.000000000000000000e+00,0.000000000000000000e+00
4.000000000000000000e+00,0.000000000000000000e+00
5.000000000000000000e+00,1.915079995362458862e-02
6.000000000000000000e+00,3.748642353082986406e-02
7.000000000000000000e+00,5.983475718274645916e-02
8.000000000000000000e+00,9.063352575787672616e-02
9.000000000000000000e+00,1.293313542995548626e-01
1.000000000000000000e+01,1.766621339448939954e-01
1.100000000000000000e+01,2.319833360999474237e-01
1.200000000000000000e+01,2.948479024120045922e-01
1.300000000000000000e+01,3.644654339967919876e-01
1.400000000000000000e+01,4.399126023657949913e-01
1.500000000000000000e+01,5.202828195633676378e-01
1.600000000000000000e+01,6.046982691447585490e-01
1.700000000000000000e+01,6.923789155165933629e-01
1.800000000000000000e+01,7.826072482342425474e-01
1.900000000000000000e+01,8.747588620263534454e-01
2.000000000000000000e+01,9.683013639005946249e-01
2.100000000000000000e+01,1.062780534860854775e+00
2.200000000000000000e+01,1.157806395653811382e+00
2.300000000000000000e+01,1.253049687112117505e+00
2.400000000000000000e+01,1.348239289685248199e+00
2.500000000000000000e+01,1.443146723958961708e+00
2.600000000000000000e+01,1.537581377494435575e+00
2.700000000000000000e+01,1.631388949056018278e+00
2.800000000000000000e+01,1.724438862883962864e+00
2.900000000000000000e+01,1.816629927185283044e+00
3.000000000000000000e+01,1.907874561412661540e+00
3.100000000000000000e+01,1.998106259749217406e+00
3.200000000000000000e+01,2.087274113741605763e+00
3.300000000000000000e+01,2.175337466801920083e+00
3.400000000000000000e+01,2.262264628220295837e+00
3.500000000000000000e+01,2.348033664050912073e+00
3.600000000000000000e+01,2.432630399080042416e+00
3.700000000000000000e+01,2.516047689145052502e+00
3.800000000000000000e+01,2.598282023675434704e+00
3.900000000000000000e+01,2.679333666268781666e+00
4.000000000000000000e+01,2.759207464094763917e+00
4.100000000000000000e+01,2.837913059546345096e+00
4.200000000000000000e+01,2.915457284052176412e+00
4.300000000000000000e+01,2.991853077498598523e+00
4.400000000000000000e+01,3.067117388404545508e+00
4.500000000000000000e+01,3.141261685728572228e+00
4.600000000000000000e+01,3.214305416409437122e+00
4.700000000000000000e+01,3.286263247619210404e+00
4.800000000000000000e+01,3.357152832230251072e+00
4.900000000000000000e+01,3.426994050565286276e+00
5.000000000000000000e+01,3.495804505766455961e+00
5.100000000000000000e+01,3.563602682168989677e+00
5.200000000000000000e+01,3.630406256711825375e+00
5.300000000000000000e+01,3.696235661641324111e+00
5.400000000000000000e+01,3.761108818595264580e+00
5.500000000000000000e+01,3.825045167226918785e+00
5.600000000000000000e+01,3.888061727460206729e+00
5.700000000000000000e+01,3.950177633162653912e+00
5.800000000000000000e+01,4.011411158491910989e+00
5.900000000000000000e+01,4.071780099673055986e+00
6.000000000000000000e+01,4.131302029712638380e+00
6.100000000000000000e+01,4.189994316760746074e+00
6.200000000000000000e+01,4.247873431472354966e+00
6.300000000000000000e+01,4.304956516540252132e+00
6.400000000000000000e+01,4.361258411075310093e+00
6.500000000000000000e+01,4.416797586455742497e+00
6.600000000000000000e+01,4.471587225698672619e+00
6.700000000000000000e+01,4.525642839153575459e+00
6.800000000000000000e+01,4.578981118015835072e+00
6.900000000000000000e+01,4.631614963924964634e+00
7.000000000000000000e+01,4.683558198641264880e+00
7.100000000000000000e+01,4.734827002208624513e+00
7.200000000000000000e+01,4.785432278045981036e+00
7.300000000000000000e+01,4.835389485487630701e+00
7.400000000000000000e+01,4.884709525126065266e+00
7.500000000000000000e+01,4.933406864235863054e+00
7.600000000000000000e+01,4.981492241570278701e+00
7.700000000000000000e+01,5.028978835359117383e+00
7.800000000000000000e+01,5.075876935456910211e+00
7.900000000000000000e+01,5.122199768520594887e+00
8.000000000000000000e+01,5.167956214161897321e+00
8.100000000000000000e+01,5.213160001060275661e+00
8.200000000000000000e+01,5.257819335303569375e+00
8.300000000000000000e+01,5.301944847155469986e+00
8.400000000000000000e+01,5.345547582726393188e+00
8.500000000000000000e+01,5.388636182647366546e+00
8.600000000000000000e+01,5.431220239169288533e+00
8.700000000000000000e+01,5.473310217120425314e+00
8.800000000000000000e+01,5.514914419824518355e+00
8.900000000000000000e+01,5.556040813312856486e+00
9.000000000000000000e+01,5.596700073469225600e+00
9.100000000000000000e+01,5.636898979120815056e+00
9.200000000000000000e+01,5.676645949370330513e+00
9.300000000000000000e+01,5.715949745084328626e+00
9.400000000000000000e+01,5.754818241730254691e+00
9.500000000000000000e+01,5.793258869817471179e+00
9.600000000000000000e+01,5.831277953379248480e+00
9.700000000000000000e+01,5.868884143411175813e+00
9.800000000000000000e+01,5.906084141853008340e+00
9.900000000000000000e+01,5.942885274071894486e+00
1.000000000000000000e+02,5.979293157688521099e+00
1.010000000000000000e+02,6.015316074148729264e+00
1.020000000000000000e+02,6.050959215814597947e+00
1.030000000000000000e+02,6.086229984151439787e+00
1.040000000000000000e+02,6.121133332685534612e+00
1.050000000000000000e+02,6.155676568893794887e+00
1.060000000000000000e+02,6.189865312796611008e+00
1.070000000000000000e+02,6.223704948770074630e+00
1.080000000000000000e+02,6.257201325427162786e+00
1.090000000000000000e+02,6.290359754590234331e+00
1.100000000000000000e+02,6.323186561546883411e+00
1.110000000000000000e+02,6.355686627966267821e+00
1.120000000000000000e+02,6.387865559129743964e+00
1.130000000000000000e+02,6.419727915353768744e+00
1.140000000000000000e+02,6.451278613373077064e+00
1.150000000000000000e+02,6.482523410532041730e+00
1.160000000000000000e+02,6.513466574969839940e+00
1.170000000000000000e+02,6.544113033239868038e+00
1.180000000000000000e+02,6.574466715058156829e+00
1.190000000000000000e+02,6.604533014253854972e+00
1.200000000000000000e+02,6.634316595517133486e+00
1.210000000000000000e+02,6.663821163716185936e+00
1.220000000000000000e+02,6.693051335364897270e+00
1.230000000000000000e+02,6.722010526990787049e+00
1.240000000000000000e+02,6.750703318376098494e+00
1.250000000000000000e+02,6.779134385068772417e+00
1.260000000000000000e+02,6.807306979331518626e+00
1.270000000000000000e+02,6.835225243822963925e+00
1.280000000000000000e+02,6.862891939050223655e+00
1.290000000000000000e+02,6.890312197259752303e+00
1.300000000000000000e+02,6.917489270716093763e+00
1.310000000000000000e+02,6.944426547343176992e+00
1.320000000000000000e+02,6.971126823157975494e+00
1.330000000000000000e+02,6.997594476524847451e+00
1.340000000000000000e+02,7.023832799225964152e+00
1.350000000000000000e+02,7.049844979363074415e+00
1.360000000000000000e+02,7.075633404052531716e+00
1.370000000000000000e+02,7.101202009952974237e+00
1.380000000000000000e+02,7.126554153938545078e+00
1.390000000000000000e+02,7.151692405230714478e+00
1.400000000000000000e+02,7.176619255035376455e+00
1.410000000000000000e+02,7.201338473797199491e+00
1.420000000000000000e+02,7.225852826108525306e+00
1.430000000000000000e+02,7.250164327728368718e+00
1.440000000000000000e+02,7.274276040475524674e+00
1.450000000000000000e+02,7.298191378782957983e+00
1.460000000000000000e+02,7.321912351913272943e+00
1.470000000000000000e+02,7.345441345122949883e+00
1.480000000000000000e+02,7.368781107911963169e+00
1.490000000000000000e+02,7.391934314427905051e+00
1.500000000000000000e+02,7.414902927450852665e+00
1.510000000000000000e+02,7.437689913395847618e+00
1.520000000000000000e+02,7.460297319162378038e+00
1.530000000000000000e+02,7.482727345473358049e+00
1.540000000000000000e+02,7.504982966024469349e+00
1.550000000000000000e+02,7.527065219131446661e+00
1.560000000000000000e+02,7.548976756376521990e+00
1.570000000000000000e+02,7.570719958157685170e+00
1.580000000000000000e+02,7.592296941790543485e+00
1.590000000000000000e+02,7.613708761482036458e+00
1.600000000000000000e+02,7.634958852001172858e+00
1.610000000000000000e+02,7.656048569561653139e+00
1.620000000000000000e+02,7.676979433888722504e+00
1.630000000000000000e+02,7.697754111655672027e+00
1.640000000000000000e+02,7.718373438547351029e+00
1.650000000000000000e+02,7.738840377246327229e+00
1.660000000000000000e+02,7.759155878592349787e+00
1.670000000000000000e+02,7.779322222497909500e+00
1.680000000000000000e+02,7.799341059495647599e+00
1.690000000000000000e+02,7.819213427052058130e+00
1.700000000000000000e+02,7.838942051163408919e+00
1.710000000000000000e+02,7.858527892444737262e+00
1.720000000000000000e+02,7.877972264882715514e+00
1.730000000000000000e+02,7.897277390331254310e+00
1.740000000000000000e+02,7.916444322009943413e+00
1.750000000000000000e+02,7.935474831760276793e+00
1.760000000000000000e+02,7.954370282996574559e+00
1.770000000000000000e+02,7.973132929527779744e+00
1.780000000000000000e+02,7.991763145709526839e+00
1.790000000000000000e+02,8.010262571590242686e+00
1.800000000000000000e+02,8.028632994290610725e+00
1.810000000000000000e+02,8.046874898626521500e+00
1.820000000000000000e+02,8.064990916012213518e+00
1.830000000000000000e+02,8.082981118272630994e+00
1.840000000000000000e+02,8.100847712356328501e+00
1.850000000000000000e+02,8.118591441568471012e+00
1.860000000000000000e+02,8.136213562735914451e+00
1.870000000000000000e+02,8.153715130927153609e+00
1.880000000000000000e+02,8.171097880511956291e+00
1.890000000000000000e+02,8.188362639656723729e+00
1.900000000000000000e+02,8.205510392632641370e+00
1.910000000000000000e+02,8.222542449782196172e+00
1.920000000000000000e+02,8.239460096060584604e+00
1.930000000000000000e+02,8.256264248247491722e+00
1.940000000000000000e+02,8.272955633552479426e+00
1.950000000000000000e+02,8.289535985951575370e+00
1.960000000000000000e+02,8.306005650800477369e+00
1.970000000000000000e+02,8.322366485531912161e+00
1.980000000000000000e+02,8.339477144231384642e+00
1.990000000000000000e+02,8.355925922340823320e+00
2.000000000000000000e+02,8.372129328866133591e+00
2.010000000000000000e+02,8.388182913821855990e+00
2.020000000000000000e+02,8.404101200021020901e+00
2.030000000000000000e+02,8.419895841441666917e+00
2.040000000000000000e+02,8.435573541193850389e+00
2.050000000000000000e+02,8.451137783990677832e+00
2.060000000000000000e+02,8.466592325447843237e+00
2.070000000000000000e+02,8.481939560665866296e+00
2.080000000000000000e+02,8.497181684141574820e+00
2.090000000000000000e+02,8.512321178357199258e+00
2.100000000000000000e+02,8.527359199199459283e+00
2.110000000000000000e+02,8.542297845394646316e+00
2.120000000000000000e+02,8.557137584474807213e+00
2.130000000000000000e+02,8.571880626722750307e+00
2.140000000000000000e+02,8.586527720048001910e+00
2.150000000000000000e+02,8.601079757368401246e+00
2.160000000000000000e+02,8.615537931951424255e+00
2.170000000000000000e+02,8.629902946609814052e+00
2.180000000000000000e+02,8.644175648578464433e+00
2.190000000000000000e+02,8.658356714915241170e+00
2.200000000000000000e+02,8.672447589199146378e+00
2.210000000000000000e+02,8.686447831856634494e+00
2.220000000000000000e+02,8.700358707253460722e+00
2.230000000000000000e+02,8.714180844258898162e+00
2.240000000000000000e+02,8.727915168405830926e+00
2.250000000000000000e+02,8.741561518602619429e+00
2.260000000000000000e+02,8.755120649357987617e+00
2.270000000000000000e+02,8.768593759917264308e+00
2.280000000000000000e+02,8.781981121509481625e+00
2.290000000000000000e+02,8.795282999458974516e+00
2.300000000000000000e+02,8.808499653275983832e+00
2.310000000000000000e+02,8.821632239277468202e+00
2.320000000000000000e+02,8.834680997616029430e+00
2.330000000000000000e+02,8.847646312599703577e+00
2.340000000000000000e+02,8.860529754327620466e+00
2.350000000000000000e+02,8.873330344757064836e+00
2.360000000000000000e+02,8.886048893564748141e+00
2.370000000000000000e+02,8.898685903008164644e+00
2.380000000000000000e+02,8.911241867161150410e+00
2.390000000000000000e+02,8.923717419067994427e+00
2.400000000000000000e+02,8.936112889077820753e+00
2.410000000000000000e+02,8.948428747634451952e+00
2.420000000000000000e+02,8.960665749171493388e+00
2.430000000000000000e+02,8.972823765138489449e+00
2.440000000000000000e+02,8.984903535998716606e+00
2.450000000000000000e+02,8.996905213416102498e+00
2.460000000000000000e+02,9.008829377767499480e+00
2.470000000000000000e+02,9.020676600938720924e+00
2.480000000000000000e+02,9.032447159522844160e+00
2.490000000000000000e+02,9.044141181799075113e+00
2.500000000000000000e+02,9.055759506114103630e+00
2.510000000000000000e+02,9.067302105645570265e+00
2.520000000000000000e+02,9.078769803674420658e+00
2.530000000000000000e+02,9.090162421249408098e+00
2.540000000000000000e+02,9.101480768125371767e+00
2.550000000000000000e+02,9.112725220869171139e+00
2.560000000000000000e+02,9.123895868864535075e+00
2.570000000000000000e+02,9.134993640058896247e+00
2.580000000000000000e+02,9.146018471616741863e+00
2.590000000000000000e+02,9.156970717927638503e+00
2.600000000000000000e+02,9.167850867077977028e+00
2.610000000000000000e+02,9.178659261407601022e+00
2.620000000000000000e+02,9.189395960631111748e+00
2.630000000000000000e+02,9.200061713249544582e+00
2.640000000000000000e+02,9.210656844749273375e+00
2.650000000000000000e+02,9.221181537841259157e+00
2.660000000000000000e+02,9.231635834099471083e+00
2.670000000000000000e+02,9.242020731942009348e+00
2.680000000000000000e+02,9.252335988060565342e+00
2.690000000000000000e+02,9.262582450754988983e+00
2.700000000000000000e+02,9.272760005784324022e+00
2.710000000000000000e+02,9.282868809540088861e+00
2.720000000000000000e+02,9.292909828301183950e+00
2.730000000000000000e+02,9.302882800635719818e+00
2.740000000000000000e+02,9.312788005216319220e+00
2.750000000000000000e+02,9.322625985697296613e+00
2.760000000000000000e+02,9.332397010330689469e+00
2.770000000000000000e+02,9.342101074876145717e+00
2.780000000000000000e+02,9.351738976240916656e+00
2.790000000000000000e+02,9.361310567758335921e+00
2.800000000000000000e+02,9.370816368525893836e+00
2.810000000000000000e+02,9.380256093244016213e+00
2.820000000000000000e+02,9.389630651898405844e+00
2.830000000000000000e+02,9.398939620171422149e+00
2.840000000000000000e+02,9.408183897654046390e+00
2.850000000000000000e+02,9.417363187017329551e+00
2.860000000000000000e+02,9.426477981741140155e+00
2.870000000000000000e+02,9.435528243631969403e+00
2.880000000000000000e+02,9.444514851511366160e+00
2.890000000000000000e+02,9.453437103784471773e+00
2.900000000000000000e+02,9.462295871137213155e+00
2.910000000000000000e+02,9.471091102354208147e+00
2.920000000000000000e+02,9.479822744711631444e+00
2.930000000000000000e+02,9.488491914166713670e+00
2.940000000000000000e+02,9.497097640105776506e+00
2.950000000000000000e+02,9.505640382131211652e+00
2.960000000000000000e+02,9.514120982620150713e+00
2.970000000000000000e+02,9.522539114263420146e+00
2.980000000000000000e+02,9.530895094541525836e+00
2.990000000000000000e+02,9.539188722284427158e+00
3.000000000000000000e+02,9.547420437959795336e+00
3.010000000000000000e+02,9.555590677146375000e+00
3.020000000000000000e+02,9.563699358677013151e+00
3.030000000000000000e+02,9.571746655637603851e+00
3.040000000000000000e+02,9.579732227889909524e+00
3.050000000000000000e+02,9.587657009162436239e+00
3.060000000000000000e+02,9.595520653824150870e+00
3.070000000000000000e+02,9.603323451330668448e+00
3.080000000000000000e+02,9.611066067609396413e+00
3.090000000000000000e+02,9.618747391171774908e+00
3.100000000000000000e+02,9.626368842248156810e+00
3.110000000000000000e+02,9.633929686151896377e+00
3.120000000000000000e+02,9.641430576206849068e+00
3.130000000000000000e+02,9.648871531195057472e+00
3.140000000000000000e+02,9.656252316898529031e+00
3.150000000000000000e+02,9.663573325478241216e+00
3.160000000000000000e+02,9.670835070079549567e+00
3.170000000000000000e+02,9.678037184140423577e+00
3.180000000000000000e+02,9.685179800661167349e+00
3.190000000000000000e+02,9.692263174670451065e+00
3.200000000000000000e+02,9.699287309054613004e+00
3.210000000000000000e+02,9.706252701903860469e+00
3.220000000000000000e+02,9.713158854070483628e+00
3.230000000000000000e+02,9.720006506465411533e+00
3.240000000000000000e+02,9.726795404229260811e+00
3.250000000000000000e+02,9.733525786379875200e+00
3.260000000000000000e+02,9.740197642065183459e+00
3.270000000000000000e+02,9.746811328381713935e+00
3.280000000000000000e+02,9.753366583451422045e+00
3.290000000000000000e+02,9.759863882380066968e+00
3.300000000000000000e+02,9.766303205068469495e+00
3.310000000000000000e+02,9.772684897475498289e+00
3.320000000000000000e+02,9.779008322723502289e+00
3.330000000000000000e+02,9.785274557011634400e+00
3.340000000000000000e+02,9.791483326202721216e+00
3.350000000000000000e+02,9.797634355813791274e+00
3.360000000000000000e+02,9.803728588924919052e+00
3.370000000000000000e+02,9.809765502474864007e+00
3.380000000000000000e+02,9.815745424715656142e+00
3.390000000000000000e+02,9.821668316519645003e+00
3.400000000000000000e+02,9.827534500831021091e+00
3.410000000000000000e+02,9.833344660517122193e+00
3.420000000000000000e+02,9.839097659729315382e+00
3.430000000000000000e+02,9.844795023364065756e+00
3.440000000000000000e+02,9.850435613453704775e+00
3.450000000000000000e+02,9.856020223612013353e+00
3.460000000000000000e+02,9.861549160675403769e+00
3.470000000000000000e+02,9.867022487955146914e+00
3.480000000000000000e+02,9.872439906495928952e+00
3.490000000000000000e+02,9.877802196737102136e+00
3.500000000000000000e+02,9.883109055459485148e+00
3.510000000000000000e+02,9.888360777674321866e+00
3.520000000000000000e+02,9.893557775074194538e+00
3.530000000000000000e+02,9.898699739174150025e+00
3.540000000000000000e+02,9.903787435234704617e+00
3.550000000000000000e+02,9.908820550730881749e+00
3.560000000000000000e+02,9.913799844725293298e+00
3.570000000000000000e+02,9.918725000753912724e+00
3.580000000000000000e+02,9.923596415224814393e+00
3.590000000000000000e+02,9.928414481396295344e+00
3.600000000000000000e+02,9.933179352147538665e+00
3.610000000000000000e+02,9.937890704098068184e+00
3.620000000000000000e+02,9.942549279271055696e+00
3.630000000000000000e+02,9.947155460436274410e+00
3.640000000000000000e+02,9.951709391023921825e+00
3.650000000000000000e+02,9.956211330517959368e+00
3.660000000000000000e+02,9.960661182001503633e+00
3.670000000000000000e+02,9.965059201047401061e+00
3.680000000000000000e+02,9.969406347508014576e+00
3.690000000000000000e+02,9.973702635006839401e+00
3.700000000000000000e+02,9.977948193258880494e+00
3.710000000000000000e+02,9.982143267580894985e+00
3.720000000000000000e+02,9.986288101039150433e+00
3.730000000000000000e+02,9.990383051765030942e+00
3.740000000000000000e+02,9.994428826891411433e+00
3.750000000000000000e+02,9.998425310217823991e+00
3.760000000000000000e+02,1.000237320358965043e+01
3.770000000000000000e+02,1.000627226999397834e+01
3.780000000000000000e+02,1.001012379052973422e+01
3.790000000000000000e+02,1.001392717330663373e+01
3.800000000000000000e+02,1.001768346000282506e+01
3.810000000000000000e+02,1.002139240573769463e+01
3.820000000000000000e+02,1.002505527928440365e+01
3.830000000000000000e+02,1.002867148222382809e+01
3.840000000000000000e+02,1.003224216128025326e+01
3.850000000000000000e+02,1.003576729645375742e+01
3.860000000000000000e+02,1.003924744736433361e+01
3.870000000000000000e+02,1.004268305486172608e+01
3.880000000000000000e+02,1.004607444147269746e+01
3.890000000000000000e+02,1.004942227547779865e+01
3.900000000000000000e+02,1.005272652728090144e+01
3.910000000000000000e+02,1.005598820813245986e+01
3.920000000000000000e+02,1.005920728444155365e+01
3.930000000000000000e+02,1.006238441535481343e+01
3.940000000000000000e+02,1.006555815473380733e+01
3.950000000000000000e+02,1.006867169796513295e+01
3.960000000000000000e+02,1.007174108108239174e+01
3.970000000000000000e+02,1.007476984407902165e+01
3.980000000000000000e+02,1.007775886644826002e+01
