# Time [s], Temperature [C]
1.000000000000000000e+00,2.499997300000000067e+01
2.000000000000000000e+00,4.580456199999999711e+01
3.000000000000000000e+00,5.720417799999999886e+01
4.000000000000000000e+00,6.652588699999999733e+01
5.000000000000000000e+00,7.427470399999999984e+01
6.000000000000000000e+00,8.108591499999999996e+01
7.000000000000000000e+00,8.718491400000000624e+01
8.000000000000000000e+00,9.274658999999999764e+01
9.000000000000000000e+00,9.787607599999999763e+01
1.000000000000000000e+01,1.026504099999999937e+02
1.100000000000000000e+01,1.071265899999999931e+02
1.200000000000000000e+01,1.113460100000000068e+02
1.300000000000000000e+01,1.153431400000000053e+02
1.400000000000000000e+01,1.191445999999999970e+02
1.500000000000000000e+01,1.227713099999999997e+02
1.600000000000000000e+01,1.262424900000000036e+02
1.700000000000000000e+01,1.295732700000000079e+02
1.800000000000000000e+01,1.327755999999999972e+02
1.900000000000000000e+01,1.358608199999999897e+02
2.000000000000000000e+01,1.388385000000000105e+02
2.100000000000000000e+01,1.417174100000000010e+02
2.200000000000000000e+01,1.445030099999999891e+02
2.300000000000000000e+01,1.472040900000000079e+02
2.400000000000000000e+01,1.498251500000000078e+02
2.500000000000000000e+01,1.523711700000000064e+02
2.600000000000000000e+01,1.548473400000000026e+02
2.700000000000000000e+01,1.572569000000000017e+02
2.800000000000000000e+01,1.596042600000000107e+02
2.900000000000000000e+01,1.618928999999999974e+02
3.000000000000000000e+01,1.641259200000000078e+02
3.100000000000000000e+01,1.663052500000000009e+02
3.200000000000000000e+01,1.684342699999999979e+02
3.300000000000000000e+01,1.705159099999999910e+02
3.400000000000000000e+01,1.725517900000000111e+02
3.500000000000000000e+01,1.745439299999999889e+02
3.600000000000000000e+01,1.764944000000000131e+02
3.700000000000000000e+01,1.784047400000000039e+02
3.800000000000000000e+01,1.802771799999999871e+02
3.900000000000000000e+01,1.821124599999999987e+02
4.000000000000000000e+01,1.839133099999999956e+02
4.100000000000000000e+01,1.856796999999999969e+02
4.200000000000000000e+01,1.874136200000000088e+02
4.300000000000000000e+01,1.891160600000000045e+02
4.400000000000000000e+01,1.907886499999999899e+02
4.500000000000000000e+01,1.924321300000000008e+02
4.600000000000000000e+01,1.940474399999999946e+02
4.700000000000000000e+01,1.956361200000000053e+02
4.800000000000000000e+01,1.971983899999999892e+02
4.900000000000000000e+01,1.987350600000000043e+02
5.000000000000000000e+01,2.002476200000000119e+02
5.100000000000000000e+01,2.017363100000000031e+02
5.200000000000000000e+01,2.032019999999999982e+02
5.300000000000000000e+01,2.046464799999999968e+02
5.400000000000000000e+01,2.060687900000000070e+02
5.500000000000000000e+01,2.074701399999999865e+02
5.600000000000000000e+01,2.088526599999999860e+02
5.700000000000000000e+01,2.102146500000000060e+02
5.800000000000000000e+01,2.115585599999999999e+02
5.900000000000000000e+01,2.128834400000000073e+02
6.000000000000000000e+01,2.141913299999999936e+02
6.100000000000000000e+01,2.154814100000000110e+02
6.200000000000000000e+01,2.167555499999999995e+02
6.300000000000000000e+01,2.180129399999999862e+02
6.400000000000000000e+01,2.192544300000000135e+02
6.500000000000000000e+01,2.204815099999999859e+02
6.600000000000000000e+01,2.216935300000000097e+02
6.700000000000000000e+01,2.228910999999999945e+02
6.800000000000000000e+01,2.240751999999999953e+02
6.900000000000000000e+01,2.252449599999999919e+02
7.000000000000000000e+01,2.264018900000000087e+02
7.100000000000000000e+01,2.275464000000000055e+02
7.200000000000000000e+01,2.286781300000000101e+02
7.300000000000000000e+01,2.297976800000000139e+02
7.400000000000000000e+01,2.309068499999999915e+02
7.500000000000000000e+01,2.320036299999999869e+02
7.600000000000000000e+01,2.330892800000000022e+02
7.700000000000000000e+01,2.341644900000000007e+02
7.800000000000000000e+01,2.352294799999999952e+02
7.900000000000000000e+01,2.362836200000000133e+02
8.000000000000000000e+01,2.373287200000000041e+02
8.100000000000000000e+01,2.383638500000000136e+02
8.200000000000000000e+01,2.393889299999999878e+02
8.300000000000000000e+01,2.404058699999999931e+02
8.400000000000000000e+01,2.414136499999999899e+02
8.500000000000000000e+01,2.424120599999999968e+02
8.600000000000000000e+01,2.434031099999999981e+02
8.700000000000000000e+01,2.443848600000000033e+02
8.800000000000000000e+01,2.453593600000000094e+02
8.900000000000000000e+01,2.463251999999999953e+02
9.000000000000000000e+01,2.472839800000000139e+02
9.100000000000000000e+01,2.482342500000000030e+02
9.200000000000000000e+01,2.491781799999999976e+02
9.300000000000000000e+01,2.501140699999999981e+02
9.400000000000000000e+01,2.510427599999999870e+02
9.500000000000000000e+01,2.519647400000000061e+02
9.600000000000000000e+01,2.528798999999999921e+02
9.700000000000000000e+01,2.537879200000000139e+02
9.800000000000000000e+01,2.546894100000000094e+02
9.900000000000000000e+01,2.555844099999999912e+02
1.000000000000000000e+02,2.564729600000000005e+02
1.010000000000000000e+02,2.573545199999999795e+02
1.020000000000000000e+02,2.582303800000000251e+02
1.030000000000000000e+02,2.591000999999999976e+02
1.040000000000000000e+02,2.599634100000000103e+02
1.050000000000000000e+02,2.608209200000000010e+02
1.060000000000000000e+02,2.616722399999999880e+02
1.070000000000000000e+02,2.625182199999999852e+02
1.080000000000000000e+02,2.633577300000000037e+02
1.090000000000000000e+02,2.641920799999999758e+02
1.100000000000000000e+02,2.650210599999999772e+02
1.110000000000000000e+02,2.658443599999999947e+02
1.120000000000000000e+02,2.666623799999999846e+02
1.130000000000000000e+02,2.674753099999999790e+02
1.140000000000000000e+02,2.682828400000000215e+02
1.150000000000000000e+02,2.690845600000000104e+02
1.160000000000000000e+02,2.698816800000000171e+02
1.170000000000000000e+02,2.706738300000000095e+02
1.180000000000000000e+02,2.714611199999999940e+02
1.190000000000000000e+02,2.722437699999999836e+02
1.200000000000000000e+02,2.730214500000000157e+02
1.210000000000000000e+02,2.737943399999999770e+02
1.220000000000000000e+02,2.745627700000000004e+02
1.230000000000000000e+02,2.753267500000000041e+02
1.240000000000000000e+02,2.760862700000000132e+02
1.250000000000000000e+02,2.768414599999999837e+02
1.260000000000000000e+02,2.775922499999999786e+02
1.270000000000000000e+02,2.783388699999999858e+02
1.280000000000000000e+02,2.790813299999999799e+02
1.290000000000000000e+02,2.798196399999999926e+02
1.300000000000000000e+02,2.805542899999999804e+02
1.310000000000000000e+02,2.812844200000000114e+02
1.320000000000000000e+02,2.820107100000000173e+02
1.330000000000000000e+02,2.827330600000000231e+02
1.340000000000000000e+02,2.834514500000000226e+02
1.350000000000000000e+02,2.841666599999999789e+02
1.360000000000000000e+02,2.848781399999999735e+02
1.370000000000000000e+02,2.855852399999999989e+02
1.380000000000000000e+02,2.862889400000000251e+02
1.390000000000000000e+02,2.869889800000000264e+02
1.400000000000000000e+02,2.876852099999999837e+02
1.410000000000000000e+02,2.883784200000000055e+02
1.420000000000000000e+02,2.890677800000000275e+02
1.430000000000000000e+02,2.895968899999999735e+02
1.440000000000000000e+02,2.899923099999999749e+02
1.450000000000000000e+02,2.906399200000000178e+02
1.460000000000000000e+02,2.912873200000000224e+02
1.470000000000000000e+02,2.919505300000000148e+02
1.480000000000000000e+02,2.926152999999999906e+02
1.490000000000000000e+02,2.932794200000000160e+02
1.500000000000000000e+02,2.939423199999999952e+02
1.510000000000000000e+02,2.946036100000000033e+02
1.520000000000000000e+02,2.952613200000000120e+02
1.530000000000000000e+02,2.959173299999999927e+02
1.540000000000000000e+02,2.965706200000000194e+02
1.550000000000000000e+02,2.972196400000000267e+02
1.560000000000000000e+02,2.978661200000000235e+02
1.570000000000000000e+02,2.985102800000000229e+02
1.580000000000000000e+02,2.991497499999999832e+02
1.590000000000000000e+02,2.997870800000000031e+02
1.600000000000000000e+02,3.004215100000000120e+02
1.610000000000000000e+02,3.010514200000000073e+02
1.620000000000000000e+02,3.016791400000000181e+02
1.630000000000000000e+02,3.023034999999999854e+02
1.640000000000000000e+02,3.029243200000000229e+02
1.650000000000000000e+02,3.035421799999999735e+02
1.660000000000000000e+02,3.041570699999999761e+02
1.670000000000000000e+02,3.047679699999999912e+02
1.680000000000000000e+02,3.053761900000000082e+02
1.690000000000000000e+02,3.059823299999999904e+02
1.700000000000000000e+02,3.065830100000000016e+02
1.710000000000000000e+02,3.071819199999999910e+02
1.720000000000000000e+02,3.077781100000000265e+02
1.730000000000000000e+02,3.083694199999999910e+02
1.740000000000000000e+02,3.089583700000000022e+02
1.750000000000000000e+02,3.095454399999999850e+02
1.760000000000000000e+02,3.101266499999999837e+02
1.770000000000000000e+02,3.107067900000000122e+02
1.780000000000000000e+02,3.112835699999999974e+02
1.790000000000000000e+02,3.118555900000000065e+02
1.800000000000000000e+02,3.124256599999999935e+02
1.810000000000000000e+02,3.129931900000000269e+02
1.820000000000000000e+02,3.135548699999999940e+02
1.830000000000000000e+02,3.141148099999999772e+02
1.840000000000000000e+02,3.146729399999999828e+02
1.850000000000000000e+02,3.152243300000000090e+02
1.860000000000000000e+02,3.157752399999999966e+02
1.870000000000000000e+02,3.163232399999999984e+02
1.880000000000000000e+02,3.168648699999999963e+02
1.890000000000000000e+02,3.174060999999999808e+02
1.900000000000000000e+02,3.179443999999999733e+02
1.910000000000000000e+02,3.184758299999999736e+02
1.920000000000000000e+02,3.190066800000000171e+02
1.930000000000000000e+02,3.195353099999999813e+02
1.940000000000000000e+02,3.200560600000000022e+02
1.950000000000000000e+02,3.205770600000000172e+02
1.960000000000000000e+02,3.210953099999999836e+02
1.970000000000000000e+02,3.216058699999999817e+02
1.980000000000000000e+02,3.221168499999999995e+02
1.990000000000000000e+02,3.226250600000000190e+02
2.000000000000000000e+02,3.231252099999999814e+02
2.010000000000000000e+02,3.236260700000000270e+02
2.020000000000000000e+02,3.241242100000000050e+02
2.030000000000000000e+02,3.246141099999999824e+02
2.040000000000000000e+02,3.251039700000000039e+02
2.050000000000000000e+02,3.255922899999999913e+02
2.060000000000000000e+02,3.260714100000000144e+02
2.070000000000000000e+02,3.265512100000000260e+02
2.080000000000000000e+02,3.270292400000000157e+02
2.090000000000000000e+02,3.274972799999999893e+02
2.100000000000000000e+02,3.279673199999999724e+02
2.110000000000000000e+02,3.284348400000000083e+02
2.120000000000000000e+02,3.288923300000000154e+02
2.130000000000000000e+02,3.293518100000000004e+02
2.140000000000000000e+02,3.298091099999999756e+02
2.150000000000000000e+02,3.302557100000000219e+02
2.160000000000000000e+02,3.307047999999999774e+02
2.170000000000000000e+02,3.311522199999999998e+02
2.180000000000000000e+02,3.315883499999999913e+02
2.190000000000000000e+02,3.320269200000000183e+02
2.200000000000000000e+02,3.324641399999999862e+02
2.210000000000000000e+02,3.328894700000000171e+02
2.220000000000000000e+02,3.333182400000000030e+02
2.230000000000000000e+02,3.337452700000000050e+02
2.240000000000000000e+02,3.341595800000000054e+02
2.250000000000000000e+02,3.345781600000000253e+02
2.260000000000000000e+02,3.349955400000000054e+02
2.270000000000000000e+02,3.353995699999999829e+02
2.280000000000000000e+02,3.358081399999999803e+02
2.290000000000000000e+02,3.362157000000000266e+02
2.300000000000000000e+02,3.366094400000000064e+02
2.310000000000000000e+02,3.370082699999999818e+02
2.320000000000000000e+02,3.374061300000000188e+02
2.330000000000000000e+02,3.377891799999999876e+02
2.340000000000000000e+02,3.381784099999999853e+02
2.350000000000000000e+02,3.385669300000000135e+02
2.360000000000000000e+02,3.389403399999999920e+02
2.370000000000000000e+02,3.393202200000000062e+02
2.380000000000000000e+02,3.396994300000000067e+02
2.390000000000000000e+02,3.400629599999999755e+02
2.400000000000000000e+02,3.404337499999999750e+02
2.410000000000000000e+02,3.408041699999999992e+02
2.420000000000000000e+02,3.411583299999999781e+02
2.430000000000000000e+02,3.415201400000000262e+02
2.440000000000000000e+02,3.418819300000000112e+02
2.450000000000000000e+02,3.422266500000000065e+02
2.460000000000000000e+02,3.425800500000000284e+02
2.470000000000000000e+02,3.429333500000000186e+02
2.480000000000000000e+02,3.432688899999999990e+02
2.490000000000000000e+02,3.436139800000000264e+02
2.500000000000000000e+02,3.439593499999999722e+02
2.510000000000000000e+02,3.442866200000000276e+02
2.520000000000000000e+02,3.446237199999999916e+02
2.530000000000000000e+02,3.449617600000000266e+02
2.540000000000000000e+02,3.452803999999999860e+02
2.550000000000000000e+02,3.456100200000000200e+02
2.560000000000000000e+02,3.459402799999999729e+02
2.570000000000000000e+02,3.462511900000000082e+02
2.580000000000000000e+02,3.465734299999999735e+02
2.590000000000000000e+02,3.468966699999999719e+02
2.600000000000000000e+02,3.471996800000000007e+02
2.610000000000000000e+02,3.475151700000000119e+02
2.620000000000000000e+02,3.478324600000000260e+02
2.630000000000000000e+02,3.481283000000000243e+02
2.640000000000000000e+02,3.484374099999999999e+02
2.650000000000000000e+02,3.487476500000000215e+02
2.660000000000000000e+02,3.490365300000000275e+02
2.670000000000000000e+02,3.493396299999999997e+02
2.680000000000000000e+02,3.496440699999999993e+02
2.690000000000000000e+02,3.499264499999999884e+02
2.700000000000000000e+02,3.502234500000000139e+02
2.710000000000000000e+02,3.505222800000000234e+02
2.720000000000000000e+02,3.507983100000000150e+02
2.730000000000000000e+02,3.510903299999999945e+02
2.740000000000000000e+02,3.513839399999999955e+02
2.750000000000000000e+02,3.516541700000000219e+02
2.760000000000000000e+02,3.519406099999999924e+02
2.770000000000000000e+02,3.522288500000000226e+02
2.780000000000000000e+02,3.524943799999999783e+02
2.790000000000000000e+02,3.527759399999999914e+02
2.800000000000000000e+02,3.530597200000000271e+02
2.810000000000000000e+02,3.533198499999999740e+02
2.820000000000000000e+02,3.535972300000000246e+02
2.830000000000000000e+02,3.538765599999999836e+02
2.840000000000000000e+02,3.541316800000000171e+02
2.850000000000000000e+02,3.544053999999999860e+02
2.860000000000000000e+02,3.546804200000000264e+02
2.870000000000000000e+02,3.549310300000000211e+02
2.880000000000000000e+02,3.552003799999999956e+02
2.890000000000000000e+02,3.554720199999999863e+02
2.900000000000000000e+02,3.557187200000000189e+02
2.910000000000000000e+02,3.559845000000000255e+02
2.920000000000000000e+02,3.562525299999999788e+02
2.930000000000000000e+02,3.564953600000000051e+02
2.940000000000000000e+02,3.567579299999999876e+02
2.950000000000000000e+02,3.570223100000000045e+02
2.960000000000000000e+02,3.572618699999999876e+02
2.970000000000000000e+02,3.575212999999999965e+02
2.980000000000000000e+02,3.577826499999999896e+02
2.990000000000000000e+02,3.580189500000000180e+02
3.000000000000000000e+02,3.582754499999999780e+02
3.010000000000000000e+02,3.585339700000000107e+02
3.020000000000000000e+02,3.587676999999999907e+02
3.030000000000000000e+02,3.590210000000000150e+02
3.040000000000000000e+02,3.592771000000000186e+02
3.050000000000000000e+02,3.595081200000000194e+02
3.060000000000000000e+02,3.597589399999999955e+02
3.070000000000000000e+02,3.600125699999999824e+02
3.080000000000000000e+02,3.602411500000000046e+02
3.090000000000000000e+02,3.604897500000000150e+02
3.100000000000000000e+02,3.607413000000000238e+02
3.110000000000000000e+02,3.609669799999999782e+02
3.120000000000000000e+02,3.612138100000000236e+02
3.130000000000000000e+02,3.614632300000000100e+02
3.140000000000000000e+02,3.616868600000000242e+02
3.150000000000000000e+02,3.619320099999999911e+02
3.160000000000000000e+02,3.621793200000000184e+02
3.170000000000000000e+02,3.624010000000000105e+02
3.180000000000000000e+02,3.626442599999999743e+02
3.190000000000000000e+02,3.628896500000000174e+02
3.200000000000000000e+02,3.631096499999999878e+02
3.210000000000000000e+02,3.633512000000000057e+02
3.220000000000000000e+02,3.635948200000000270e+02
3.230000000000000000e+02,3.638136900000000082e+02
3.240000000000000000e+02,3.640534700000000043e+02
3.250000000000000000e+02,3.642955000000000041e+02
3.260000000000000000e+02,3.645129099999999767e+02
3.270000000000000000e+02,3.647511000000000081e+02
3.280000000000000000e+02,3.649919100000000185e+02
3.290000000000000000e+02,3.652074900000000071e+02
3.300000000000000000e+02,3.654449200000000246e+02
3.310000000000000000e+02,3.656835300000000188e+02
3.320000000000000000e+02,3.658987399999999752e+02
3.330000000000000000e+02,3.661343100000000277e+02
3.340000000000000000e+02,3.663715500000000134e+02
3.350000000000000000e+02,3.665861199999999940e+02
3.360000000000000000e+02,3.668199500000000057e+02
3.370000000000000000e+02,3.670566099999999778e+02
3.380000000000000000e+02,3.672697099999999750e+02
3.390000000000000000e+02,3.675023199999999974e+02
3.400000000000000000e+02,3.677380099999999743e+02
3.410000000000000000e+02,3.679497400000000198e+02
3.420000000000000000e+02,3.681823099999999727e+02
3.430000000000000000e+02,3.684154399999999896e+02
3.440000000000000000e+02,3.686267700000000218e+02
3.450000000000000000e+02,3.688580299999999852e+02
3.460000000000000000e+02,3.690899699999999939e+02
3.470000000000000000e+02,3.693014800000000264e+02
3.480000000000000000e+02,3.695305500000000052e+02
3.490000000000000000e+02,3.697616899999999873e+02
3.500000000000000000e+02,3.699725000000000250e+02
3.510000000000000000e+02,3.702004999999999768e+02
3.520000000000000000e+02,3.704313000000000216e+02
3.530000000000000000e+02,3.706403199999999742e+02
3.540000000000000000e+02,3.708683800000000019e+02
3.550000000000000000e+02,3.710966799999999921e+02
3.560000000000000000e+02,3.713056599999999889e+02
3.570000000000000000e+02,3.715325000000000273e+02
3.580000000000000000e+02,3.717595800000000281e+02
3.590000000000000000e+02,3.719688400000000001e+02
3.600000000000000000e+02,3.721933599999999842e+02
3.610000000000000000e+02,3.724201400000000035e+02
3.620000000000000000e+02,3.726280199999999923e+02
3.630000000000000000e+02,3.728521400000000199e+02
3.640000000000000000e+02,3.730772400000000175e+02
3.650000000000000000e+02,3.732845800000000054e+02
3.660000000000000000e+02,3.735080600000000004e+02
3.670000000000000000e+02,3.737315699999999765e+02
3.680000000000000000e+02,3.739388400000000274e+02
3.690000000000000000e+02,3.741603700000000003e+02
3.700000000000000000e+02,3.743832699999999818e+02
3.710000000000000000e+02,3.745896000000000186e+02
3.720000000000000000e+02,3.748103300000000218e+02
3.730000000000000000e+02,3.750316799999999944e+02
3.740000000000000000e+02,3.752374300000000176e+02
3.750000000000000000e+02,3.754568499999999744e+02
3.760000000000000000e+02,3.756769400000000019e+02
3.770000000000000000e+02,3.758823199999999929e+02
3.780000000000000000e+02,3.761001600000000167e+02
3.790000000000000000e+02,3.763192099999999982e+02
3.800000000000000000e+02,3.765237700000000132e+02
3.810000000000000000e+02,3.767407799999999725e+02
3.820000000000000000e+02,3.769581299999999828e+02
3.830000000000000000e+02,3.771624499999999784e+02
3.840000000000000000e+02,3.773772299999999973e+02
3.850000000000000000e+02,3.775936599999999999e+02
3.860000000000000000e+02,3.777969400000000064e+02
3.870000000000000000e+02,3.780109299999999735e+02
3.880000000000000000e+02,3.782257700000000114e+02
3.890000000000000000e+02,3.784281899999999723e+02
3.900000000000000000e+02,3.786411400000000071e+02
3.910000000000000000e+02,3.788536700000000224e+02
3.920000000000000000e+02,3.790561799999999835e+02
3.930000000000000000e+02,3.792665999999999826e+02
3.940000000000000000e+02,3.794791000000000167e+02
3.950000000000000000e+02,3.793734699999999975e+02
3.960000000000000000e+02,3.784596599999999853e+02
3.970000000000000000e+02,3.785927100000000110e+02
3.980000000000000000e+02,3.786812699999999836e+02
3.990000000000000000e+02,3.788506199999999922e+02
