# Time [s], Temperature [C]
1.000000000000000000e+00,2.499997099999999861e+01
2.000000000000000000e+00,4.576081800000000044e+01
3.000000000000000000e+00,5.734506600000000276e+01
4.000000000000000000e+00,6.675908699999999385e+01
5.000000000000000000e+00,7.460342400000000396e+01
6.000000000000000000e+00,8.148962400000000628e+01
7.000000000000000000e+00,8.765496799999999666e+01
8.000000000000000000e+00,9.327461200000000474e+01
9.000000000000000000e+00,9.845386499999999330e+01
1.000000000000000000e+01,1.032734300000000047e+02
1.100000000000000000e+01,1.077889499999999998e+02
1.200000000000000000e+01,1.120444600000000008e+02
1.300000000000000000e+01,1.160729800000000012e+02
1.400000000000000000e+01,1.199028799999999961e+02
1.500000000000000000e+01,1.235551700000000039e+02
1.600000000000000000e+01,1.270493799999999993e+02
1.700000000000000000e+01,1.304001900000000091e+02
1.800000000000000000e+01,1.336214899999999943e+02
1.900000000000000000e+01,1.367234599999999887e+02
2.000000000000000000e+01,1.397160499999999956e+02
2.100000000000000000e+01,1.426071200000000090e+02
2.200000000000000000e+01,1.454052700000000016e+02
2.300000000000000000e+01,1.481166200000000117e+02
2.400000000000000000e+01,1.507462899999999877e+02
2.500000000000000000e+01,1.532997000000000014e+02
2.600000000000000000e+01,1.557825300000000084e+02
2.700000000000000000e+01,1.581982999999999890e+02
2.800000000000000000e+01,1.605507499999999936e+02
2.900000000000000000e+01,1.628437000000000126e+02
3.000000000000000000e+01,1.650794400000000053e+02
3.100000000000000000e+01,1.672610300000000052e+02
3.200000000000000000e+01,1.693921400000000119e+02
3.300000000000000000e+01,1.714743499999999869e+02
3.400000000000000000e+01,1.735107999999999890e+02
3.500000000000000000e+01,1.755027000000000044e+02
3.600000000000000000e+01,1.774522900000000050e+02
3.700000000000000000e+01,1.793613599999999906e+02
3.800000000000000000e+01,1.812320100000000025e+02
3.900000000000000000e+01,1.830654800000000080e+02
4.000000000000000000e+01,1.848630699999999933e+02
4.100000000000000000e+01,1.866263899999999865e+02
4.200000000000000000e+01,1.883566700000000083e+02
4.300000000000000000e+01,1.900553999999999917e+02
4.400000000000000000e+01,1.917230399999999975e+02
4.500000000000000000e+01,1.933617399999999975e+02
4.600000000000000000e+01,1.949718499999999892e+02
4.700000000000000000e+01,1.965549599999999941e+02
4.800000000000000000e+01,1.981113400000000127e+02
4.900000000000000000e+01,1.996413699999999949e+02
5.000000000000000000e+01,2.011472200000000043e+02
5.100000000000000000e+01,2.026293799999999976e+02
5.200000000000000000e+01,2.040885900000000106e+02
5.300000000000000000e+01,2.055252800000000093e+02
5.400000000000000000e+01,2.069398300000000006e+02
5.500000000000000000e+01,2.083335899999999867e+02
5.600000000000000000e+01,2.097073699999999974e+02
5.700000000000000000e+01,2.110613099999999918e+02
5.800000000000000000e+01,2.123959999999999866e+02
5.900000000000000000e+01,2.137123400000000117e+02
6.000000000000000000e+01,2.150109300000000019e+02
6.100000000000000000e+01,2.162911799999999971e+02
6.200000000000000000e+01,2.175556300000000078e+02
6.300000000000000000e+01,2.188036999999999921e+02
6.400000000000000000e+01,2.200351699999999937e+02
6.500000000000000000e+01,2.212519100000000094e+02
6.600000000000000000e+01,2.224536400000000071e+02
6.700000000000000000e+01,2.236406900000000064e+02
6.800000000000000000e+01,2.248138999999999896e+02
6.900000000000000000e+01,2.259733099999999979e+02
7.000000000000000000e+01,2.271194199999999910e+02
7.100000000000000000e+01,2.282529600000000016e+02
7.200000000000000000e+01,2.293737199999999916e+02
7.300000000000000000e+01,2.304821599999999933e+02
7.400000000000000000e+01,2.315790599999999984e+02
7.500000000000000000e+01,2.326646399999999915e+02
7.600000000000000000e+01,2.337385700000000099e+02
7.700000000000000000e+01,2.348019400000000019e+02
7.800000000000000000e+01,2.358550400000000025e+02
7.900000000000000000e+01,2.368978299999999990e+02
8.000000000000000000e+01,2.379304400000000044e+02
8.100000000000000000e+01,2.389542199999999923e+02
8.200000000000000000e+01,2.399676399999999887e+02
8.300000000000000000e+01,2.409719399999999894e+02
8.400000000000000000e+01,2.419677599999999984e+02
8.500000000000000000e+01,2.429539200000000108e+02
8.600000000000000000e+01,2.439321099999999944e+02
8.700000000000000000e+01,2.449015200000000050e+02
8.800000000000000000e+01,2.458626999999999896e+02
8.900000000000000000e+01,2.468163900000000126e+02
9.000000000000000000e+01,2.477611699999999928e+02
9.100000000000000000e+01,2.486988399999999899e+02
9.200000000000000000e+01,2.496286299999999869e+02
9.300000000000000000e+01,2.505506399999999871e+02
9.400000000000000000e+01,2.514654400000000010e+02
9.500000000000000000e+01,2.523724100000000021e+02
9.600000000000000000e+01,2.532726600000000019e+02
9.700000000000000000e+01,2.541656999999999869e+02
9.800000000000000000e+01,2.550514799999999980e+02
9.900000000000000000e+01,2.559301900000000103e+02
1.000000000000000000e+02,2.568023699999999963e+02
1.010000000000000000e+02,2.576679100000000062e+02
1.020000000000000000e+02,2.585260599999999727e+02
1.030000000000000000e+02,2.593778399999999920e+02
1.040000000000000000e+02,2.602235999999999763e+02
1.050000000000000000e+02,2.610624399999999810e+02
1.060000000000000000e+02,2.618951999999999884e+02
1.070000000000000000e+02,2.627212799999999788e+02
1.080000000000000000e+02,2.635415300000000229e+02
1.090000000000000000e+02,2.643557400000000257e+02
1.100000000000000000e+02,2.651642800000000193e+02
1.110000000000000000e+02,2.659667699999999968e+02
1.120000000000000000e+02,2.667635200000000282e+02
1.130000000000000000e+02,2.675548999999999751e+02
1.140000000000000000e+02,2.683405200000000264e+02
1.150000000000000000e+02,2.691205100000000243e+02
1.160000000000000000e+02,2.698953900000000203e+02
1.170000000000000000e+02,2.706648599999999760e+02
1.180000000000000000e+02,2.714290799999999990e+02
1.190000000000000000e+02,2.721885399999999890e+02
1.200000000000000000e+02,2.729427800000000275e+02
1.210000000000000000e+02,2.736919899999999757e+02
1.220000000000000000e+02,2.744365500000000111e+02
1.230000000000000000e+02,2.751766400000000203e+02
1.240000000000000000e+02,2.759116200000000276e+02
1.250000000000000000e+02,2.766424000000000092e+02
1.260000000000000000e+02,2.773684099999999830e+02
1.270000000000000000e+02,2.780897800000000188e+02
1.280000000000000000e+02,2.788069800000000100e+02
1.290000000000000000e+02,2.795200500000000261e+02
1.300000000000000000e+02,2.802284200000000283e+02
1.310000000000000000e+02,2.809331399999999803e+02
1.320000000000000000e+02,2.816336099999999760e+02
1.330000000000000000e+02,2.823303199999999720e+02
1.340000000000000000e+02,2.830232799999999997e+02
1.350000000000000000e+02,2.837116100000000074e+02
1.360000000000000000e+02,2.843960299999999961e+02
1.370000000000000000e+02,2.850767500000000041e+02
1.380000000000000000e+02,2.857537500000000250e+02
1.390000000000000000e+02,2.864269699999999830e+02
1.400000000000000000e+02,2.870964999999999918e+02
1.410000000000000000e+02,2.877623300000000199e+02
1.420000000000000000e+02,2.884240399999999909e+02
1.430000000000000000e+02,2.890830399999999827e+02
1.440000000000000000e+02,2.897382499999999936e+02
1.450000000000000000e+02,2.903892500000000041e+02
1.460000000000000000e+02,2.910369900000000030e+02
1.470000000000000000e+02,2.916816999999999780e+02
1.480000000000000000e+02,2.923220800000000281e+02
1.490000000000000000e+02,2.929592599999999720e+02
1.500000000000000000e+02,2.935932000000000244e+02
1.510000000000000000e+02,2.942237499999999955e+02
1.520000000000000000e+02,2.948510999999999740e+02
1.530000000000000000e+02,2.954743000000000279e+02
1.540000000000000000e+02,2.960949400000000082e+02
1.550000000000000000e+02,2.967117900000000077e+02
1.560000000000000000e+02,2.973248899999999821e+02
1.570000000000000000e+02,2.979352400000000216e+02
1.580000000000000000e+02,2.985419600000000173e+02
1.590000000000000000e+02,2.991454499999999825e+02
1.600000000000000000e+02,2.997453300000000240e+02
1.610000000000000000e+02,3.003422499999999786e+02
1.620000000000000000e+02,3.009355800000000158e+02
1.630000000000000000e+02,3.015256299999999783e+02
1.640000000000000000e+02,3.021120300000000043e+02
1.650000000000000000e+02,3.026957400000000007e+02
1.660000000000000000e+02,3.032752100000000155e+02
1.670000000000000000e+02,3.038523299999999949e+02
1.680000000000000000e+02,3.044251399999999990e+02
1.690000000000000000e+02,3.049953300000000240e+02
1.700000000000000000e+02,3.055619500000000244e+02
1.710000000000000000e+02,3.061245700000000056e+02
1.720000000000000000e+02,3.066845700000000079e+02
1.730000000000000000e+02,3.072406300000000101e+02
1.740000000000000000e+02,3.077938199999999824e+02
1.750000000000000000e+02,3.083431100000000242e+02
1.760000000000000000e+02,3.088894300000000044e+02
1.770000000000000000e+02,3.094320999999999913e+02
1.780000000000000000e+02,3.099710099999999784e+02
1.790000000000000000e+02,3.105069899999999734e+02
1.800000000000000000e+02,3.110394900000000007e+02
1.810000000000000000e+02,3.115681799999999839e+02
1.820000000000000000e+02,3.120937799999999811e+02
1.830000000000000000e+02,3.126157799999999725e+02
1.840000000000000000e+02,3.131335399999999822e+02
1.850000000000000000e+02,3.136489900000000262e+02
1.860000000000000000e+02,3.141600999999999999e+02
1.870000000000000000e+02,3.146679399999999873e+02
1.880000000000000000e+02,3.151724500000000262e+02
1.890000000000000000e+02,3.156730699999999956e+02
1.900000000000000000e+02,3.161702599999999848e+02
1.910000000000000000e+02,3.166640300000000252e+02
1.920000000000000000e+02,3.171539000000000215e+02
1.930000000000000000e+02,3.176402899999999931e+02
1.940000000000000000e+02,3.181231399999999780e+02
1.950000000000000000e+02,3.186023599999999760e+02
1.960000000000000000e+02,3.190776099999999929e+02
1.970000000000000000e+02,3.195501100000000179e+02
1.980000000000000000e+02,3.200182199999999852e+02
1.990000000000000000e+02,3.204828499999999849e+02
2.000000000000000000e+02,3.209444300000000112e+02
2.010000000000000000e+02,3.214015499999999861e+02
2.020000000000000000e+02,3.218548900000000117e+02
2.030000000000000000e+02,3.223057299999999827e+02
2.040000000000000000e+02,3.227523199999999974e+02
2.050000000000000000e+02,3.231947599999999738e+02
2.060000000000000000e+02,3.236345200000000091e+02
2.070000000000000000e+02,3.240701900000000251e+02
2.080000000000000000e+02,3.245021100000000160e+02
2.090000000000000000e+02,3.249310899999999833e+02
2.100000000000000000e+02,3.253555299999999875e+02
2.110000000000000000e+02,3.257761800000000108e+02
2.120000000000000000e+02,3.261943699999999922e+02
2.130000000000000000e+02,3.266083399999999983e+02
2.140000000000000000e+02,3.270186800000000176e+02
2.150000000000000000e+02,3.274261500000000069e+02
2.160000000000000000e+02,3.278291600000000017e+02
2.170000000000000000e+02,3.282287600000000225e+02
2.180000000000000000e+02,3.286255199999999945e+02
2.190000000000000000e+02,3.290183700000000044e+02
2.200000000000000000e+02,3.294076499999999896e+02
2.210000000000000000e+02,3.297941299999999956e+02
2.220000000000000000e+02,3.301765700000000265e+02
2.230000000000000000e+02,3.305554200000000264e+02
2.240000000000000000e+02,3.309316400000000158e+02
2.250000000000000000e+02,3.313043499999999995e+02
2.260000000000000000e+02,3.316730999999999767e+02
2.270000000000000000e+02,3.320393399999999815e+02
2.280000000000000000e+02,3.324016399999999862e+02
2.290000000000000000e+02,3.327600100000000225e+02
2.300000000000000000e+02,3.331163599999999860e+02
2.310000000000000000e+02,3.334690200000000004e+02
2.320000000000000000e+02,3.338184200000000033e+02
2.330000000000000000e+02,3.341653699999999958e+02
2.340000000000000000e+02,3.345095800000000281e+02
2.350000000000000000e+02,3.348496700000000033e+02
2.360000000000000000e+02,3.351876199999999812e+02
2.370000000000000000e+02,3.355219099999999912e+02
2.380000000000000000e+02,3.358530000000000086e+02
2.390000000000000000e+02,3.361817599999999970e+02
2.400000000000000000e+02,3.365076000000000249e+02
2.410000000000000000e+02,3.368298300000000154e+02
2.420000000000000000e+02,3.371502399999999966e+02
2.430000000000000000e+02,3.374672199999999975e+02
2.440000000000000000e+02,3.377813400000000001e+02
2.450000000000000000e+02,3.380940200000000004e+02
2.460000000000000000e+02,3.384027100000000132e+02
2.470000000000000000e+02,3.387093499999999722e+02
2.480000000000000000e+02,3.390137899999999718e+02
2.490000000000000000e+02,3.393154599999999732e+02
2.500000000000000000e+02,3.396138000000000261e+02
2.510000000000000000e+02,3.399108299999999758e+02
2.520000000000000000e+02,3.402047699999999963e+02
2.530000000000000000e+02,3.404965199999999754e+02
2.540000000000000000e+02,3.407865600000000086e+02
2.550000000000000000e+02,3.410734600000000114e+02
2.560000000000000000e+02,3.413577599999999848e+02
2.570000000000000000e+02,3.416411699999999882e+02
2.580000000000000000e+02,3.419209299999999985e+02
2.590000000000000000e+02,3.421992200000000253e+02
2.600000000000000000e+02,3.424762600000000248e+02
2.610000000000000000e+02,3.427496899999999869e+02
2.620000000000000000e+02,3.430211199999999963e+02
2.630000000000000000e+02,3.432919899999999984e+02
2.640000000000000000e+02,3.435600299999999834e+02
2.650000000000000000e+02,3.438256799999999771e+02
2.660000000000000000e+02,3.440907000000000266e+02
2.670000000000000000e+02,3.443522899999999822e+02
2.680000000000000000e+02,3.446127599999999802e+02
2.690000000000000000e+02,3.448724100000000021e+02
2.700000000000000000e+02,3.451287800000000061e+02
2.710000000000000000e+02,3.453833599999999819e+02
2.720000000000000000e+02,3.456382399999999961e+02
2.730000000000000000e+02,3.458894300000000044e+02
2.740000000000000000e+02,3.461395899999999983e+02
2.750000000000000000e+02,3.463888200000000097e+02
2.760000000000000000e+02,3.466355899999999792e+02
2.770000000000000000e+02,3.468809200000000033e+02
2.780000000000000000e+02,3.471247599999999807e+02
2.790000000000000000e+02,3.473678300000000263e+02
2.800000000000000000e+02,3.476079100000000039e+02
2.810000000000000000e+02,3.478478400000000192e+02
2.820000000000000000e+02,3.480866700000000264e+02
2.830000000000000000e+02,3.483224799999999846e+02
2.840000000000000000e+02,3.485588099999999940e+02
2.850000000000000000e+02,3.487927199999999743e+02
2.860000000000000000e+02,3.490248399999999833e+02
2.870000000000000000e+02,3.492570499999999925e+02
2.880000000000000000e+02,3.494871200000000044e+02
2.890000000000000000e+02,3.497161899999999832e+02
2.900000000000000000e+02,3.499437300000000164e+02
2.910000000000000000e+02,3.501710800000000177e+02
2.920000000000000000e+02,3.503955100000000016e+02
2.930000000000000000e+02,3.506212499999999750e+02
2.940000000000000000e+02,3.508434100000000058e+02
2.950000000000000000e+02,3.510647599999999784e+02
2.960000000000000000e+02,3.512871099999999842e+02
2.970000000000000000e+02,3.515059800000000223e+02
2.980000000000000000e+02,3.517247600000000034e+02
2.990000000000000000e+02,3.519429600000000278e+02
3.000000000000000000e+02,3.521596999999999866e+02
3.010000000000000000e+02,3.523750299999999811e+02
3.020000000000000000e+02,3.525907000000000266e+02
3.030000000000000000e+02,3.528033100000000104e+02
3.040000000000000000e+02,3.530167200000000207e+02
3.050000000000000000e+02,3.532282999999999902e+02
3.060000000000000000e+02,3.534399999999999977e+02
3.070000000000000000e+02,3.536489000000000260e+02
3.080000000000000000e+02,3.538588300000000118e+02
3.090000000000000000e+02,3.540666200000000003e+02
3.100000000000000000e+02,3.542739599999999882e+02
3.110000000000000000e+02,3.544808300000000258e+02
3.120000000000000000e+02,3.546864600000000110e+02
3.130000000000000000e+02,3.548908700000000067e+02
3.140000000000000000e+02,3.550956699999999842e+02
3.150000000000000000e+02,3.552975799999999822e+02
3.160000000000000000e+02,3.555006999999999948e+02
3.170000000000000000e+02,3.557018400000000042e+02
3.180000000000000000e+02,3.559033499999999890e+02
3.190000000000000000e+02,3.557699299999999880e+02
3.200000000000000000e+02,3.553897400000000175e+02
3.210000000000000000e+02,3.555091199999999958e+02
3.220000000000000000e+02,3.556322000000000116e+02
3.230000000000000000e+02,3.557952599999999848e+02
3.240000000000000000e+02,3.559654199999999946e+02
3.250000000000000000e+02,3.561454200000000014e+02
3.260000000000000000e+02,3.563288000000000011e+02
3.270000000000000000e+02,3.565160500000000070e+02
3.280000000000000000e+02,3.567039500000000203e+02
3.290000000000000000e+02,3.568940099999999802e+02
3.300000000000000000e+02,3.570844399999999723e+02
3.310000000000000000e+02,3.572750199999999836e+02
3.320000000000000000e+02,3.574666399999999840e+02
3.330000000000000000e+02,3.576575000000000273e+02
3.340000000000000000e+02,3.578484199999999760e+02
3.350000000000000000e+02,3.580396400000000199e+02
3.360000000000000000e+02,3.582303200000000061e+02
3.370000000000000000e+02,3.584196200000000090e+02
3.380000000000000000e+02,3.586105699999999956e+02
3.390000000000000000e+02,3.587992899999999850e+02
3.400000000000000000e+02,3.589889800000000264e+02
3.410000000000000000e+02,3.591779199999999719e+02
3.420000000000000000e+02,3.593661200000000235e+02
3.430000000000000000e+02,3.595538000000000238e+02
3.440000000000000000e+02,3.597414200000000051e+02
3.450000000000000000e+02,3.599281300000000101e+02
3.460000000000000000e+02,3.601140700000000265e+02
3.470000000000000000e+02,3.603002599999999802e+02
3.480000000000000000e+02,3.604853499999999826e+02
3.490000000000000000e+02,3.606699800000000096e+02
3.500000000000000000e+02,3.608544899999999984e+02
3.510000000000000000e+02,3.610382099999999923e+02
3.520000000000000000e+02,3.612214399999999728e+02
3.530000000000000000e+02,3.614036300000000210e+02
3.540000000000000000e+02,3.615863600000000133e+02
3.550000000000000000e+02,3.617669099999999958e+02
3.560000000000000000e+02,3.619490400000000250e+02
3.570000000000000000e+02,3.621286600000000249e+02
3.580000000000000000e+02,3.623091999999999757e+02
3.590000000000000000e+02,3.624880999999999744e+02
3.600000000000000000e+02,3.626676600000000121e+02
3.610000000000000000e+02,3.628455799999999840e+02
3.620000000000000000e+02,3.630236199999999940e+02
3.630000000000000000e+02,3.632008700000000090e+02
3.640000000000000000e+02,3.633772599999999784e+02
3.650000000000000000e+02,3.635536200000000235e+02
3.660000000000000000e+02,3.637290300000000229e+02
3.670000000000000000e+02,3.639040499999999838e+02
3.680000000000000000e+02,3.640788299999999822e+02
3.690000000000000000e+02,3.642529299999999921e+02
3.700000000000000000e+02,3.644267899999999827e+02
3.710000000000000000e+02,3.645993000000000279e+02
3.720000000000000000e+02,3.647725199999999859e+02
3.730000000000000000e+02,3.649434499999999844e+02
3.740000000000000000e+02,3.651159999999999854e+02
3.750000000000000000e+02,3.652860400000000141e+02
3.760000000000000000e+02,3.654571199999999749e+02
3.770000000000000000e+02,3.656279299999999921e+02
3.780000000000000000e+02,3.657965699999999742e+02
3.790000000000000000e+02,3.659661600000000021e+02
3.800000000000000000e+02,3.661339699999999766e+02
3.810000000000000000e+02,3.663026699999999778e+02
3.820000000000000000e+02,3.664696700000000078e+02
3.830000000000000000e+02,3.666367799999999875e+02
3.840000000000000000e+02,3.668031599999999912e+02
3.850000000000000000e+02,3.669688400000000001e+02
3.860000000000000000e+02,3.671344900000000280e+02
3.870000000000000000e+02,3.672997700000000236e+02
3.880000000000000000e+02,3.674631299999999783e+02
3.890000000000000000e+02,3.676280199999999923e+02
3.900000000000000000e+02,3.677914099999999848e+02
3.910000000000000000e+02,3.679543499999999767e+02
3.920000000000000000e+02,3.681168499999999995e+02
3.930000000000000000e+02,3.682788400000000024e+02
3.940000000000000000e+02,3.684406700000000114e+02
3.950000000000000000e+02,3.686010400000000118e+02
3.960000000000000000e+02,3.687622999999999820e+02
3.970000000000000000e+02,3.689224899999999820e+02
3.980000000000000000e+02,3.690824600000000260e+02
3.990000000000000000e+02,3.692420700000000124e+02
