# Time [s], Temperature [C]
1.000000000000000000e+00,2.499997099999999861e+01
2.000000000000000000e+00,4.693940700000000277e+01
3.000000000000000000e+00,5.903917700000000224e+01
4.000000000000000000e+00,6.890887499999999477e+01
5.000000000000000000e+00,7.710999300000000289e+01
6.000000000000000000e+00,8.430856300000000658e+01
7.000000000000000000e+00,9.074733700000000169e+01
8.000000000000000000e+00,9.661218300000000170e+01
9.000000000000000000e+00,1.020144899999999950e+02
1.000000000000000000e+01,1.070364900000000006e+02
1.100000000000000000e+01,1.117400300000000044e+02
1.200000000000000000e+01,1.161689099999999968e+02
1.300000000000000000e+01,1.203599899999999963e+02
1.400000000000000000e+01,1.243416699999999935e+02
1.500000000000000000e+01,1.281369200000000035e+02
1.600000000000000000e+01,1.317645899999999983e+02
1.700000000000000000e+01,1.352424000000000035e+02
1.800000000000000000e+01,1.385825199999999882e+02
1.900000000000000000e+01,1.417980699999999956e+02
2.000000000000000000e+01,1.448982200000000091e+02
2.100000000000000000e+01,1.478925800000000095e+02
2.200000000000000000e+01,1.507883300000000020e+02
2.300000000000000000e+01,1.535920000000000130e+02
2.400000000000000000e+01,1.563106200000000001e+02
2.500000000000000000e+01,1.589491600000000062e+02
2.600000000000000000e+01,1.615142800000000136e+02
2.700000000000000000e+01,1.640072499999999991e+02
2.800000000000000000e+01,1.664343399999999917e+02
2.900000000000000000e+01,1.687982800000000054e+02
3.000000000000000000e+01,1.711024500000000046e+02
3.100000000000000000e+01,1.733500400000000070e+02
3.200000000000000000e+01,1.755442400000000021e+02
3.300000000000000000e+01,1.776880800000000136e+02
3.400000000000000000e+01,1.797820100000000139e+02
3.500000000000000000e+01,1.818308900000000108e+02
3.600000000000000000e+01,1.838342399999999941e+02
3.700000000000000000e+01,1.857952699999999879e+02
3.800000000000000000e+01,1.877162800000000118e+02
3.900000000000000000e+01,1.895978399999999908e+02
4.000000000000000000e+01,1.914416999999999973e+02
4.100000000000000000e+01,1.932503700000000038e+02
4.200000000000000000e+01,1.950240499999999884e+02
4.300000000000000000e+01,1.967642800000000136e+02
4.400000000000000000e+01,1.984728700000000003e+02
4.500000000000000000e+01,2.001503099999999904e+02
4.600000000000000000e+01,2.017982000000000085e+02
4.700000000000000000e+01,2.034177899999999966e+02
4.800000000000000000e+01,2.050082600000000070e+02
4.900000000000000000e+01,2.065728799999999978e+02
5.000000000000000000e+01,2.081126099999999894e+02
5.100000000000000000e+01,2.096265600000000120e+02
5.200000000000000000e+01,2.111162300000000016e+02
5.300000000000000000e+01,2.125828999999999951e+02
5.400000000000000000e+01,2.140265799999999956e+02
5.500000000000000000e+01,2.154492199999999968e+02
5.600000000000000000e+01,2.168501599999999883e+02
5.700000000000000000e+01,2.182306700000000035e+02
5.800000000000000000e+01,2.195912299999999959e+02
5.900000000000000000e+01,2.209331699999999898e+02
6.000000000000000000e+01,2.222555399999999963e+02
6.100000000000000000e+01,2.235607599999999877e+02
6.200000000000000000e+01,2.248488900000000115e+02
6.300000000000000000e+01,2.261189300000000060e+02
6.400000000000000000e+01,2.273732799999999941e+02
6.500000000000000000e+01,2.286121200000000044e+02
6.600000000000000000e+01,2.298347300000000075e+02
6.700000000000000000e+01,2.310426300000000026e+02
6.800000000000000000e+01,2.322366299999999910e+02
6.900000000000000000e+01,2.334163399999999911e+02
7.000000000000000000e+01,2.345822300000000098e+02
7.100000000000000000e+01,2.357352400000000046e+02
7.200000000000000000e+01,2.368752599999999973e+02
7.300000000000000000e+01,2.380027000000000044e+02
7.400000000000000000e+01,2.391184199999999862e+02
7.500000000000000000e+01,2.402222399999999993e+02
7.600000000000000000e+01,2.413150200000000041e+02
7.700000000000000000e+01,2.423965499999999906e+02
7.800000000000000000e+01,2.434671600000000069e+02
7.900000000000000000e+01,2.445277600000000007e+02
8.000000000000000000e+01,2.455785999999999945e+02
8.100000000000000000e+01,2.466187700000000120e+02
8.200000000000000000e+01,2.476498300000000086e+02
8.300000000000000000e+01,2.486719400000000064e+02
8.400000000000000000e+01,2.496841900000000010e+02
8.500000000000000000e+01,2.506876699999999971e+02
8.600000000000000000e+01,2.516829500000000053e+02
8.700000000000000000e+01,2.526695599999999899e+02
8.800000000000000000e+01,2.536475100000000111e+02
8.900000000000000000e+01,2.546176800000000071e+02
9.000000000000000000e+01,2.555794999999999959e+02
9.100000000000000000e+01,2.565332599999999843e+02
9.200000000000000000e+01,2.574799199999999928e+02
9.300000000000000000e+01,2.584178800000000251e+02
9.400000000000000000e+01,2.593490300000000275e+02
9.500000000000000000e+01,2.602721900000000232e+02
9.600000000000000000e+01,2.611885399999999890e+02
9.700000000000000000e+01,2.620975599999999872e+02
9.800000000000000000e+01,2.629992700000000241e+02
9.900000000000000000e+01,2.638936199999999985e+02
1.000000000000000000e+02,2.647813699999999812e+02
1.010000000000000000e+02,2.656621099999999842e+02
1.020000000000000000e+02,2.665360099999999761e+02
1.030000000000000000e+02,2.674027399999999943e+02
1.040000000000000000e+02,2.682636999999999716e+02
1.050000000000000000e+02,2.691171299999999746e+02
1.060000000000000000e+02,2.699643599999999992e+02
1.070000000000000000e+02,2.708056599999999889e+02
1.080000000000000000e+02,2.716403799999999933e+02
1.090000000000000000e+02,2.724684100000000058e+02
1.100000000000000000e+02,2.732906800000000089e+02
1.110000000000000000e+02,2.741068399999999770e+02
1.120000000000000000e+02,2.749171400000000176e+02
1.130000000000000000e+02,2.757221099999999865e+02
1.140000000000000000e+02,2.765211199999999963e+02
1.150000000000000000e+02,2.773145099999999843e+02
1.160000000000000000e+02,2.781025999999999954e+02
1.170000000000000000e+02,2.788850100000000225e+02
1.180000000000000000e+02,2.796621099999999842e+02
1.190000000000000000e+02,2.804343299999999886e+02
1.200000000000000000e+02,2.812012599999999907e+02
1.210000000000000000e+02,2.819630700000000161e+02
1.220000000000000000e+02,2.827201499999999896e+02
1.230000000000000000e+02,2.834725599999999872e+02
1.240000000000000000e+02,2.842196400000000267e+02
1.250000000000000000e+02,2.849624299999999835e+02
1.260000000000000000e+02,2.857004099999999767e+02
1.270000000000000000e+02,2.864338099999999940e+02
1.280000000000000000e+02,2.871630900000000111e+02
1.290000000000000000e+02,2.878878199999999765e+02
1.300000000000000000e+02,2.886082200000000171e+02
1.310000000000000000e+02,2.893250400000000013e+02
1.320000000000000000e+02,2.900370800000000031e+02
1.330000000000000000e+02,2.907450600000000236e+02
1.340000000000000000e+02,2.914491899999999873e+02
1.350000000000000000e+02,2.921494099999999889e+02
1.360000000000000000e+02,2.928457000000000221e+02
1.370000000000000000e+02,2.935381499999999733e+02
1.380000000000000000e+02,2.942264999999999873e+02
1.390000000000000000e+02,2.949113800000000083e+02
1.400000000000000000e+02,2.955923500000000104e+02
1.410000000000000000e+02,2.962694700000000125e+02
1.420000000000000000e+02,2.969434499999999844e+02
1.430000000000000000e+02,2.976141999999999825e+02
1.440000000000000000e+02,2.982805500000000052e+02
1.450000000000000000e+02,2.989433599999999842e+02
1.460000000000000000e+02,2.996031800000000089e+02
1.470000000000000000e+02,3.002593699999999899e+02
1.480000000000000000e+02,3.009117699999999900e+02
1.490000000000000000e+02,3.015612499999999727e+02
1.500000000000000000e+02,3.022067900000000122e+02
1.510000000000000000e+02,3.028494600000000219e+02
1.520000000000000000e+02,3.034888300000000072e+02
1.530000000000000000e+02,3.041242399999999861e+02
1.540000000000000000e+02,3.047566499999999792e+02
1.550000000000000000e+02,3.053860199999999736e+02
1.560000000000000000e+02,3.060117500000000064e+02
1.570000000000000000e+02,3.066344599999999900e+02
1.580000000000000000e+02,3.072540599999999813e+02
1.590000000000000000e+02,3.078702700000000050e+02
1.600000000000000000e+02,3.084827300000000037e+02
1.610000000000000000e+02,3.090930500000000052e+02
1.620000000000000000e+02,3.096990999999999872e+02
1.630000000000000000e+02,3.103022199999999771e+02
1.640000000000000000e+02,3.109024000000000001e+02
1.650000000000000000e+02,3.114989600000000110e+02
1.660000000000000000e+02,3.120928000000000111e+02
1.670000000000000000e+02,3.126827700000000050e+02
1.680000000000000000e+02,3.132698700000000258e+02
1.690000000000000000e+02,3.138540600000000040e+02
1.700000000000000000e+02,3.144345700000000079e+02
1.710000000000000000e+02,3.150124799999999823e+02
1.720000000000000000e+02,3.155864300000000071e+02
1.730000000000000000e+02,3.161581400000000031e+02
1.740000000000000000e+02,3.167257099999999923e+02
1.750000000000000000e+02,3.172903400000000147e+02
1.760000000000000000e+02,3.178518100000000004e+02
1.770000000000000000e+02,3.184100999999999999e+02
1.780000000000000000e+02,3.189653299999999945e+02
1.790000000000000000e+02,3.195168499999999767e+02
1.800000000000000000e+02,3.200656999999999925e+02
1.810000000000000000e+02,3.206103800000000206e+02
1.820000000000000000e+02,3.211527699999999754e+02
1.830000000000000000e+02,3.216913099999999872e+02
1.840000000000000000e+02,3.222266200000000254e+02
1.850000000000000000e+02,3.227593400000000088e+02
1.860000000000000000e+02,3.232879300000000171e+02
1.870000000000000000e+02,3.238133199999999761e+02
1.880000000000000000e+02,3.243356299999999806e+02
1.890000000000000000e+02,3.248546799999999735e+02
1.900000000000000000e+02,3.253697199999999725e+02
1.910000000000000000e+02,3.258822900000000118e+02
1.920000000000000000e+02,3.263913600000000201e+02
1.930000000000000000e+02,3.268963600000000156e+02
1.940000000000000000e+02,3.273989000000000260e+02
1.950000000000000000e+02,3.278974299999999857e+02
1.960000000000000000e+02,3.283929400000000101e+02
1.970000000000000000e+02,3.288848300000000222e+02
1.980000000000000000e+02,3.293733199999999783e+02
1.990000000000000000e+02,3.298585499999999797e+02
2.000000000000000000e+02,3.303407599999999888e+02
2.010000000000000000e+02,3.308189699999999789e+02
2.020000000000000000e+02,3.312937299999999823e+02
2.030000000000000000e+02,3.317656900000000064e+02
2.040000000000000000e+02,3.322340100000000120e+02
2.050000000000000000e+02,3.326985799999999927e+02
2.060000000000000000e+02,3.331600599999999872e+02
2.070000000000000000e+02,3.336177400000000262e+02
2.080000000000000000e+02,3.340720200000000091e+02
2.090000000000000000e+02,3.345230999999999995e+02
2.100000000000000000e+02,3.349708899999999971e+02
2.110000000000000000e+02,3.354151899999999955e+02
2.120000000000000000e+02,3.358560800000000199e+02
2.130000000000000000e+02,3.362932400000000257e+02
2.140000000000000000e+02,3.365693699999999922e+02
2.150000000000000000e+02,3.366278100000000109e+02
2.160000000000000000e+02,3.370272199999999998e+02
2.170000000000000000e+02,3.374146400000000199e+02
2.180000000000000000e+02,3.378247999999999820e+02
2.190000000000000000e+02,3.382346800000000258e+02
2.200000000000000000e+02,3.386461199999999963e+02
2.210000000000000000e+02,3.390561200000000213e+02
2.220000000000000000e+02,3.394642900000000054e+02
2.230000000000000000e+02,3.398698699999999917e+02
2.240000000000000000e+02,3.402722200000000043e+02
2.250000000000000000e+02,3.406720599999999877e+02
2.260000000000000000e+02,3.410688799999999787e+02
2.270000000000000000e+02,3.414624299999999835e+02
2.280000000000000000e+02,3.418528699999999958e+02
2.290000000000000000e+02,3.422402299999999968e+02
2.300000000000000000e+02,3.426243900000000053e+02
2.310000000000000000e+02,3.430054299999999898e+02
2.320000000000000000e+02,3.433833599999999819e+02
2.330000000000000000e+02,3.437579700000000003e+02
2.340000000000000000e+02,3.441295200000000136e+02
2.350000000000000000e+02,3.444980499999999779e+02
2.360000000000000000e+02,3.448634000000000128e+02
2.370000000000000000e+02,3.452258299999999736e+02
2.380000000000000000e+02,3.455856299999999806e+02
2.390000000000000000e+02,3.459418600000000197e+02
2.400000000000000000e+02,3.462953800000000228e+02
2.410000000000000000e+02,3.466458999999999833e+02
2.420000000000000000e+02,3.469933800000000019e+02
2.430000000000000000e+02,3.473382899999999722e+02
2.440000000000000000e+02,3.476804200000000264e+02
2.450000000000000000e+02,3.480196500000000128e+02
2.460000000000000000e+02,3.483566900000000146e+02
2.470000000000000000e+02,3.486905499999999734e+02
2.480000000000000000e+02,3.490218499999999722e+02
2.490000000000000000e+02,3.493506499999999733e+02
2.500000000000000000e+02,3.496769400000000019e+02
2.510000000000000000e+02,3.500005199999999945e+02
2.520000000000000000e+02,3.503221399999999903e+02
2.530000000000000000e+02,3.506407800000000066e+02
2.540000000000000000e+02,3.509569999999999936e+02
2.550000000000000000e+02,3.512715499999999906e+02
2.560000000000000000e+02,3.515834699999999771e+02
2.570000000000000000e+02,3.518932199999999852e+02
2.580000000000000000e+02,3.522002899999999954e+02
2.590000000000000000e+02,3.525054299999999898e+02
2.600000000000000000e+02,3.528081999999999994e+02
2.610000000000000000e+02,3.531090699999999742e+02
2.620000000000000000e+02,3.534088399999999979e+02
2.630000000000000000e+02,3.537053799999999910e+02
2.640000000000000000e+02,3.540004299999999944e+02
2.650000000000000000e+02,3.542934000000000196e+02
2.660000000000000000e+02,3.545845899999999915e+02
2.670000000000000000e+02,3.548734400000000164e+02
2.680000000000000000e+02,3.551613199999999892e+02
2.690000000000000000e+02,3.554470499999999902e+02
2.700000000000000000e+02,3.557305600000000254e+02
2.710000000000000000e+02,3.560126599999999826e+02
2.720000000000000000e+02,3.562933300000000258e+02
2.730000000000000000e+02,3.565727800000000229e+02
2.740000000000000000e+02,3.568497600000000034e+02
2.750000000000000000e+02,3.571251199999999812e+02
2.760000000000000000e+02,3.573996599999999830e+02
2.770000000000000000e+02,3.576725200000000200e+02
2.780000000000000000e+02,3.579435399999999845e+02
2.790000000000000000e+02,3.582139000000000237e+02
2.800000000000000000e+02,3.584819600000000150e+02
2.810000000000000000e+02,3.587492399999999861e+02
2.820000000000000000e+02,3.590154999999999745e+02
2.830000000000000000e+02,3.592795699999999783e+02
2.840000000000000000e+02,3.595430299999999875e+02
2.850000000000000000e+02,3.598056000000000267e+02
2.860000000000000000e+02,3.600659499999999866e+02
2.870000000000000000e+02,3.603250400000000013e+02
2.880000000000000000e+02,3.605845899999999915e+02
2.890000000000000000e+02,3.608416700000000219e+02
2.900000000000000000e+02,3.610975599999999872e+02
2.910000000000000000e+02,3.613537600000000225e+02
2.920000000000000000e+02,3.616074800000000096e+02
2.930000000000000000e+02,3.618602900000000204e+02
2.940000000000000000e+02,3.621136500000000069e+02
2.950000000000000000e+02,3.623644400000000019e+02
2.960000000000000000e+02,3.626143799999999828e+02
2.970000000000000000e+02,3.628642300000000205e+02
2.980000000000000000e+02,3.631127000000000180e+02
2.990000000000000000e+02,3.633604399999999828e+02
3.000000000000000000e+02,3.636065699999999765e+02
3.010000000000000000e+02,3.638531800000000089e+02
3.020000000000000000e+02,3.640982999999999947e+02
3.030000000000000000e+02,3.643418300000000158e+02
3.040000000000000000e+02,3.645867000000000075e+02
3.050000000000000000e+02,3.648284600000000069e+02
3.060000000000000000e+02,3.650702200000000062e+02
3.070000000000000000e+02,3.653127700000000004e+02
3.080000000000000000e+02,3.655524300000000153e+02
3.090000000000000000e+02,3.657928499999999872e+02
3.100000000000000000e+02,3.660326499999999896e+02
3.110000000000000000e+02,3.662701099999999883e+02
3.120000000000000000e+02,3.665092500000000086e+02
3.130000000000000000e+02,3.667457899999999995e+02
3.140000000000000000e+02,3.669818700000000149e+02
3.150000000000000000e+02,3.672189599999999814e+02
3.160000000000000000e+02,3.674534899999999880e+02
3.170000000000000000e+02,3.676884800000000268e+02
3.180000000000000000e+02,3.679225500000000011e+02
3.190000000000000000e+02,3.681569200000000137e+02
3.200000000000000000e+02,3.683895299999999793e+02
3.210000000000000000e+02,3.686216999999999757e+02
3.220000000000000000e+02,3.688542199999999980e+02
3.230000000000000000e+02,3.690852100000000178e+02
3.240000000000000000e+02,3.693165599999999813e+02
3.250000000000000000e+02,3.695459599999999796e+02
3.260000000000000000e+02,3.697760900000000106e+02
3.270000000000000000e+02,3.700057100000000219e+02
3.280000000000000000e+02,3.702344699999999875e+02
3.290000000000000000e+02,3.704630999999999972e+02
3.300000000000000000e+02,3.706896399999999971e+02
3.310000000000000000e+02,3.709185200000000009e+02
3.320000000000000000e+02,3.711438600000000179e+02
3.330000000000000000e+02,3.713706999999999994e+02
3.340000000000000000e+02,3.715970500000000243e+02
3.350000000000000000e+02,3.718210799999999949e+02
3.360000000000000000e+02,3.720475200000000200e+02
3.370000000000000000e+02,3.722708099999999831e+02
3.380000000000000000e+02,3.724959400000000187e+02
3.390000000000000000e+02,3.727181699999999864e+02
3.400000000000000000e+02,3.729409499999999866e+02
3.410000000000000000e+02,3.731646099999999819e+02
3.420000000000000000e+02,3.733855899999999792e+02
3.430000000000000000e+02,3.736086999999999989e+02
3.440000000000000000e+02,3.738283099999999877e+02
3.450000000000000000e+02,3.740497399999999857e+02
3.460000000000000000e+02,3.742694700000000125e+02
3.470000000000000000e+02,3.744896499999999833e+02
3.480000000000000000e+02,3.747086199999999963e+02
3.490000000000000000e+02,3.749272500000000150e+02
3.500000000000000000e+02,3.751469099999999912e+02
3.510000000000000000e+02,3.753633399999999938e+02
3.520000000000000000e+02,3.755815699999999993e+02
3.530000000000000000e+02,3.757979399999999828e+02
3.540000000000000000e+02,3.760152899999999931e+02
3.550000000000000000e+02,3.762310499999999820e+02
3.560000000000000000e+02,3.764471399999999903e+02
3.570000000000000000e+02,3.766608600000000138e+02
3.580000000000000000e+02,3.768771699999999782e+02
3.590000000000000000e+02,3.770896299999999997e+02
3.600000000000000000e+02,3.773041400000000181e+02
3.610000000000000000e+02,3.775178199999999720e+02
3.620000000000000000e+02,3.777302199999999743e+02
3.630000000000000000e+02,3.779429900000000089e+02
3.640000000000000000e+02,3.781545100000000161e+02
3.650000000000000000e+02,3.783663599999999860e+02
3.660000000000000000e+02,3.785755300000000148e+02
3.670000000000000000e+02,3.787878999999999792e+02
3.680000000000000000e+02,3.789959400000000187e+02
3.690000000000000000e+02,3.792074000000000069e+02
3.700000000000000000e+02,3.794143399999999815e+02
3.710000000000000000e+02,3.796246300000000247e+02
3.720000000000000000e+02,3.798307500000000232e+02
3.730000000000000000e+02,3.800389099999999871e+02
3.740000000000000000e+02,3.802450900000000047e+02
3.750000000000000000e+02,3.804510200000000282e+02
3.760000000000000000e+02,3.806586300000000165e+02
3.770000000000000000e+02,3.808619400000000041e+02
3.780000000000000000e+02,3.810688200000000165e+02
3.790000000000000000e+02,3.812713299999999776e+02
3.800000000000000000e+02,3.814770199999999818e+02
3.810000000000000000e+02,3.816785300000000234e+02
3.820000000000000000e+02,3.818833599999999819e+02
3.830000000000000000e+02,3.820837099999999964e+02
3.840000000000000000e+02,3.822861599999999953e+02
3.850000000000000000e+02,3.824868200000000229e+02
3.860000000000000000e+02,3.826877400000000193e+02
3.870000000000000000e+02,3.828873300000000199e+02
3.880000000000000000e+02,3.830875500000000216e+02
3.890000000000000000e+02,3.832858299999999758e+02
3.900000000000000000e+02,3.834850500000000011e+02
3.910000000000000000e+02,3.836823999999999728e+02
3.920000000000000000e+02,3.838804299999999898e+02
3.930000000000000000e+02,3.840766300000000228e+02
3.940000000000000000e+02,3.839635000000000105e+02
3.950000000000000000e+02,3.832198799999999892e+02
3.960000000000000000e+02,3.833419499999999971e+02
3.970000000000000000e+02,3.834121700000000033e+02
3.980000000000000000e+02,3.835577700000000050e+02
3.990000000000000000e+02,3.837081900000000019e+02
