# Time [s], Convective Heat Transfer Coefficient [W/m2K]
1.000000000000000000e+00,0.000000000000000000e+00
2.000000000000000000e+00,0.000000000000000000e+00
3.000000000000000000e+00,0.000000000000000000e+00
4.000000000000000000e+00,0.000000000000000000e+00
5.000000000000000000e+00,1.915079995362458862e-02
6.000000000000000000e+00,3.574028725257893252e-02
7.000000000000000000e+00,5.780487740346602205e-02
8.000000000000000000e+00,8.784074779022797708e-02
9.000000000000000000e+00,1.260284339960960620e-01
1.000000000000000000e+01,1.725539995221521683e-01
1.100000000000000000e+01,2.272091115833063946e-01
1.200000000000000000e+01,2.894860881014345577e-01
1.300000000000000000e+01,3.586084724631739551e-01
1.400000000000000000e+01,4.336292042438446015e-01
1.500000000000000000e+01,5.136736280930989107e-01
1.600000000000000000e+01,5.978436200379108056e-01
1.700000000000000000e+01,6.853434665222233324e-01
1.800000000000000000e+01,7.754628866180888203e-01
1.900000000000000000e+01,8.675695705605159791e-01
2.000000000000000000e+01,9.611142229447054985e-01
2.100000000000000000e+01,1.055637522362590897e+00
2.200000000000000000e+01,1.150749543111171169e+00
2.300000000000000000e+01,1.246109827354379584e+00
2.400000000000000000e+01,1.341444552284430713e+00
2.500000000000000000e+01,1.436519915709368655e+00
2.600000000000000000e+01,1.531142808086932039e+00
2.700000000000000000e+01,1.625151071926754121e+00
2.800000000000000000e+01,1.718418989695442933e+00
2.900000000000000000e+01,1.810837822871381730e+00
3.000000000000000000e+01,1.902318271028212271e+00
3.100000000000000000e+01,1.992792448310627851e+00
3.200000000000000000e+01,2.082207238803853055e+00
3.300000000000000000e+01,2.170521548801383815e+00
3.400000000000000000e+01,2.257703487090654715e+00
3.500000000000000000e+01,2.343728532311021961e+00
3.600000000000000000e+01,2.428581927461710421e+00
3.700000000000000000e+01,2.512256217012807546e+00
3.800000000000000000e+01,2.594746717068570518e+00
3.900000000000000000e+01,2.676053059561642744e+00
4.000000000000000000e+01,2.756180626158834635e+00
4.100000000000000000e+01,2.835137090682736893e+00
4.200000000000000000e+01,2.912930278674594309e+00
4.300000000000000000e+01,2.989571515127611878e+00
4.400000000000000000e+01,3.065079128765253014e+00
4.500000000000000000e+01,3.139462671420675477e+00
4.600000000000000000e+01,3.212743024067236774e+00
4.700000000000000000e+01,3.284934234681995857e+00
4.800000000000000000e+01,3.356053065888562781e+00
4.900000000000000000e+01,3.426120083564497154e+00
5.000000000000000000e+01,3.495152828121110833e+00
5.100000000000000000e+01,3.563167729600371647e+00
5.200000000000000000e+01,3.630185709202120581e+00
5.300000000000000000e+01,3.696225893853833711e+00
5.400000000000000000e+01,3.761305509456277285e+00
5.500000000000000000e+01,3.825443968243973369e+00
5.600000000000000000e+01,3.888659519307433143e+00
5.700000000000000000e+01,3.950970433972723850e+00
5.800000000000000000e+01,4.012395184140128634e+00
5.900000000000000000e+01,4.072951678958075306e+00
6.000000000000000000e+01,4.132658421611599131e+00
6.100000000000000000e+01,4.191530348371175663e+00
6.200000000000000000e+01,4.249585268413603956e+00
6.300000000000000000e+01,4.306839695439524718e+00
6.400000000000000000e+01,4.363310307913087271e+00
6.500000000000000000e+01,4.419015014026372867e+00
6.600000000000000000e+01,4.473966203513334072e+00
6.700000000000000000e+01,4.528180324724341510e+00
6.800000000000000000e+01,4.581674083132722508e+00
6.900000000000000000e+01,4.634458599989540240e+00
7.000000000000000000e+01,4.686551457185753833e+00
7.100000000000000000e+01,4.737964914532428296e+00
7.200000000000000000e+01,4.788712418725493691e+00
7.300000000000000000e+01,4.838809206708289068e+00
7.400000000000000000e+01,4.888266029452889683e+00
7.500000000000000000e+01,4.937097595435499642e+00
7.600000000000000000e+01,4.985313787356886017e+00
7.700000000000000000e+01,5.032929437122747096e+00
7.800000000000000000e+01,5.079954464445617823e+00
7.900000000000000000e+01,5.126400054836779852e+00
8.000000000000000000e+01,5.172278710324716755e+00
8.100000000000000000e+01,5.217599868072464453e+00
8.200000000000000000e+01,5.262376407637434639e+00
8.300000000000000000e+01,5.306616748699849673e+00
8.400000000000000000e+01,5.350330891841531766e+00
8.500000000000000000e+01,5.393530968553717386e+00
8.600000000000000000e+01,5.436224572153775192e+00
8.700000000000000000e+01,5.478420991296408360e+00
8.800000000000000000e+01,5.520131345134864809e+00
8.900000000000000000e+01,5.561363409794638279e+00
9.000000000000000000e+01,5.602125289496225236e+00
9.100000000000000000e+01,5.642426749432789990e+00
9.200000000000000000e+01,5.682275942022217308e+00
9.300000000000000000e+01,5.721680552476913206e+00
9.400000000000000000e+01,5.760647757177614459e+00
9.500000000000000000e+01,5.799186413010469110e+00
9.600000000000000000e+01,5.837303956775826919e+00
9.700000000000000000e+01,5.875007953312478826e+00
9.800000000000000000e+01,5.912304377980366787e+00
9.900000000000000000e+01,5.949201947272110935e+00
1.000000000000000000e+02,5.985706526767053504e+00
1.010000000000000000e+02,6.021825369038653619e+00
1.020000000000000000e+02,6.057563744832356711e+00
1.030000000000000000e+02,6.092929345776559202e+00
1.040000000000000000e+02,6.127928591509512302e+00
1.050000000000000000e+02,6.162566670362337184e+00
1.060000000000000000e+02,6.196850350540091590e+00
1.070000000000000000e+02,6.230784154637735384e+00
1.080000000000000000e+02,6.264375043929176101e+00
1.090000000000000000e+02,6.297628894817036915e+00
1.100000000000000000e+02,6.330550146720582916e+00
1.110000000000000000e+02,6.363145055856625376e+00
1.120000000000000000e+02,6.395417510652597670e+00
1.130000000000000000e+02,6.427373910192902606e+00
1.140000000000000000e+02,6.459019056588767072e+00
1.150000000000000000e+02,6.490357677694435168e+00
1.160000000000000000e+02,6.521394898661401207e+00
1.170000000000000000e+02,6.552134287504061128e+00
1.180000000000000000e+02,6.582581979720886878e+00
1.190000000000000000e+02,6.612741742655918742e+00
1.200000000000000000e+02,6.642617735707441184e+00
1.210000000000000000e+02,6.672215281810546905e+00
1.220000000000000000e+02,6.701537167734954892e+00
1.230000000000000000e+02,6.730588663809813355e+00
1.240000000000000000e+02,6.759373574977280086e+00
1.250000000000000000e+02,6.787895573375506864e+00
1.260000000000000000e+02,6.816159211934870399e+00
1.270000000000000000e+02,6.844167139746248019e+00
1.280000000000000000e+02,6.871924145630771363e+00
1.290000000000000000e+02,6.899433384212107612e+00
1.300000000000000000e+02,6.926699124707580424e+00
1.310000000000000000e+02,6.953724286997315041e+00
1.320000000000000000e+02,6.980512175590816604e+00
1.330000000000000000e+02,7.007066703656521511e+00
1.340000000000000000e+02,7.033391187438445158e+00
1.350000000000000000e+02,7.059489073528543379e+00
1.360000000000000000e+02,7.085362069082962400e+00
1.370000000000000000e+02,7.111015066354786640e+00
1.380000000000000000e+02,7.136450512824444203e+00
1.390000000000000000e+02,7.161671921644989780e+00
1.400000000000000000e+02,7.186681114996409825e+00
1.410000000000000000e+02,7.211481433966557830e+00
1.420000000000000000e+02,7.236076792737073937e+00
1.430000000000000000e+02,7.260468773021615085e+00
1.440000000000000000e+02,7.284659349209297474e+00
1.450000000000000000e+02,7.308653066918230579e+00
1.460000000000000000e+02,7.332451952072112533e+00
1.470000000000000000e+02,7.356058188527563324e+00
1.480000000000000000e+02,7.379473898251878161e+00
1.490000000000000000e+02,7.402702638760225717e+00
1.500000000000000000e+02,7.425746174484271656e+00
1.510000000000000000e+02,7.448606642243686515e+00
1.520000000000000000e+02,7.471287378905938859e+00
1.530000000000000000e+02,7.493790175754468486e+00
1.540000000000000000e+02,7.516116153777431919e+00
1.550000000000000000e+02,7.538269491471703887e+00
1.560000000000000000e+02,7.560251601544051070e+00
1.570000000000000000e+02,7.582063654710924361e+00
1.580000000000000000e+02,7.603709421204696284e+00
1.590000000000000000e+02,7.625189761746313799e+00
1.600000000000000000e+02,7.646506713435503144e+00
1.610000000000000000e+02,7.667662859957840027e+00
1.620000000000000000e+02,7.688659930797125952e+00
1.630000000000000000e+02,7.709499218597289705e+00
1.640000000000000000e+02,7.730183354101170856e+00
1.650000000000000000e+02,7.750713932492764968e+00
1.660000000000000000e+02,7.771092316301386305e+00
1.670000000000000000e+02,7.791320991446824884e+00
1.680000000000000000e+02,7.811400852671428474e+00
1.690000000000000000e+02,7.831334870910053425e+00
1.700000000000000000e+02,7.851123483211649656e+00
1.710000000000000000e+02,7.870768813582214030e+00
1.720000000000000000e+02,7.890272562921852639e+00
1.730000000000000000e+02,7.909636019677002139e+00
1.740000000000000000e+02,7.928860814853046612e+00
1.750000000000000000e+02,7.947948913915181102e+00
1.760000000000000000e+02,7.966901502462136797e+00
1.770000000000000000e+02,7.985719922663919945e+00
1.780000000000000000e+02,8.004405669713912985e+00
1.790000000000000000e+02,8.022960206572824049e+00
1.800000000000000000e+02,8.041384602824038552e+00
1.810000000000000000e+02,8.059680805218746968e+00
1.820000000000000000e+02,8.077849285880580155e+00
1.830000000000000000e+02,8.095892468797316610e+00
1.840000000000000000e+02,8.113810774879285148e+00
1.850000000000000000e+02,8.131606029768008170e+00
1.860000000000000000e+02,8.149279141896718315e+00
1.870000000000000000e+02,8.166831702024737183e+00
1.880000000000000000e+02,8.184264395916509116e+00
1.890000000000000000e+02,8.201578937919281387e+00
1.900000000000000000e+02,8.218775796607364015e+00
1.910000000000000000e+02,8.235856982111245728e+00
1.920000000000000000e+02,8.252822577013201766e+00
1.930000000000000000e+02,8.269674541656815592e+00
1.940000000000000000e+02,8.286413096069441764e+00
1.950000000000000000e+02,8.303040490632641379e+00
1.960000000000000000e+02,8.319556568501935701e+00
1.970000000000000000e+02,8.335963193238626445e+00
1.980000000000000000e+02,8.352261021040392919e+00
1.990000000000000000e+02,8.368450694418326563e+00
2.000000000000000000e+02,8.384533841582959113e+00
2.010000000000000000e+02,8.400510735409815410e+00
2.020000000000000000e+02,8.416383128548512005e+00
2.030000000000000000e+02,8.432151097609597912e+00
2.040000000000000000e+02,8.447815370854998562e+00
2.050000000000000000e+02,8.463378133301086237e+00
2.060000000000000000e+02,8.478838929465037921e+00
2.070000000000000000e+02,8.494198929682449162e+00
2.080000000000000000e+02,8.509459769206820567e+00
2.090000000000000000e+02,8.524620962697156301e+00
2.100000000000000000e+02,8.539684115290798516e+00
2.110000000000000000e+02,8.554650166643305909e+00
2.120000000000000000e+02,8.569518924462608211e+00
2.130000000000000000e+02,8.585062638122114009e+00
2.140000000000000000e+02,8.600015967664601746e+00
2.150000000000000000e+02,8.614750755738382892e+00
2.160000000000000000e+02,8.629351523426644022e+00
2.170000000000000000e+02,8.643832076204123638e+00
2.180000000000000000e+02,8.658202593338371500e+00
2.190000000000000000e+02,8.672468756427237579e+00
2.200000000000000000e+02,8.686633220750865192e+00
2.210000000000000000e+02,8.700699685572484299e+00
2.220000000000000000e+02,8.714670565769541355e+00
2.230000000000000000e+02,8.728547320103471563e+00
2.240000000000000000e+02,8.742331232448135481e+00
2.250000000000000000e+02,8.756024178135598746e+00
2.260000000000000000e+02,8.769627853891469371e+00
2.270000000000000000e+02,8.783143173856737818e+00
2.280000000000000000e+02,8.796570584303648133e+00
2.290000000000000000e+02,8.809911277394387952e+00
2.300000000000000000e+02,8.823166578533365723e+00
2.310000000000000000e+02,8.836337044990708378e+00
2.320000000000000000e+02,8.849423075325544730e+00
2.330000000000000000e+02,8.862424911758122192e+00
2.340000000000000000e+02,8.875343682715197247e+00
2.350000000000000000e+02,8.888179908261307105e+00
2.360000000000000000e+02,8.900934099952589662e+00
2.370000000000000000e+02,8.913607350334357804e+00
2.380000000000000000e+02,8.926199561769845303e+00
2.390000000000000000e+02,8.938710928284470114e+00
2.400000000000000000e+02,8.951142223675198295e+00
2.410000000000000000e+02,8.963493773634905182e+00
2.420000000000000000e+02,8.975766043154122187e+00
2.430000000000000000e+02,8.987959779555010797e+00
2.440000000000000000e+02,9.000074852597533592e+00
2.450000000000000000e+02,9.012111851704739607e+00
2.460000000000000000e+02,9.024071788888678114e+00
2.470000000000000000e+02,9.035954086055618006e+00
2.480000000000000000e+02,9.047759598791412117e+00
2.490000000000000000e+02,9.059488886182796463e+00
2.500000000000000000e+02,9.071141787930887546e+00
2.510000000000000000e+02,9.082718852549881206e+00
2.520000000000000000e+02,9.094220762203237385e+00
2.530000000000000000e+02,9.105647625152830216e+00
2.540000000000000000e+02,9.116999827967751102e+00
2.550000000000000000e+02,9.128277470136852756e+00
2.560000000000000000e+02,9.139481348603773370e+00
2.570000000000000000e+02,9.150611830874215258e+00
2.580000000000000000e+02,9.161668581351007035e+00
2.590000000000000000e+02,9.172652378460028899e+00
2.600000000000000000e+02,9.183563435766950889e+00
2.610000000000000000e+02,9.194402378017363375e+00
2.620000000000000000e+02,9.205169131150032769e+00
2.630000000000000000e+02,9.215864446569913326e+00
2.640000000000000000e+02,9.226488379001558826e+00
2.650000000000000000e+02,9.237040980503991250e+00
2.660000000000000000e+02,9.247522984918372657e+00
2.670000000000000000e+02,9.257934297833134707e+00
2.680000000000000000e+02,9.268275777451050246e+00
2.690000000000000000e+02,9.278547456383471115e+00
2.700000000000000000e+02,9.288749500517479163e+00
2.710000000000000000e+02,9.298882207551175227e+00
2.720000000000000000e+02,9.308946005573142557e+00
2.730000000000000000e+02,9.318940777705941869e+00
2.740000000000000000e+02,9.328867213029413463e+00
2.750000000000000000e+02,9.338725858469759444e+00
2.760000000000000000e+02,9.348516584579336097e+00
2.770000000000000000e+02,9.358239260942276871e+00
2.780000000000000000e+02,9.367894823278659189e+00
2.790000000000000000e+02,9.377483398865416930e+00
2.800000000000000000e+02,9.387005111920220912e+00
2.810000000000000000e+02,9.396460481375759954e+00
2.820000000000000000e+02,9.405849226095302384e+00
2.830000000000000000e+02,9.415172121601461441e+00
2.840000000000000000e+02,9.424429276317923154e+00
2.850000000000000000e+02,9.433620269683732573e+00
2.860000000000000000e+02,9.442746257811805322e+00
2.870000000000000000e+02,9.451807468696390657e+00
2.880000000000000000e+02,9.460803341942160216e+00
2.890000000000000000e+02,9.469734885877995723e+00
2.900000000000000000e+02,9.478601796364875653e+00
2.910000000000000000e+02,9.487404549895011030e+00
2.920000000000000000e+02,9.496142968430961062e+00
2.930000000000000000e+02,9.504818039473470037e+00
2.940000000000000000e+02,9.513429059987300818e+00
2.950000000000000000e+02,9.521976492063744857e+00
2.960000000000000000e+02,9.530461308065005355e+00
2.970000000000000000e+02,9.538882927741351381e+00
2.980000000000000000e+02,9.547241286739737376e+00
2.990000000000000000e+02,9.555537473065150778e+00
3.000000000000000000e+02,9.563770773544456816e+00
3.010000000000000000e+02,9.571942011181494792e+00
3.020000000000000000e+02,9.580050981105754815e+00
3.030000000000000000e+02,9.588098114622482626e+00
3.040000000000000000e+02,9.596083329787337135e+00
3.050000000000000000e+02,9.604006670241226118e+00
3.060000000000000000e+02,9.611868810984374178e+00
3.070000000000000000e+02,9.619669788257699139e+00
3.080000000000000000e+02,9.627409257335767023e+00
3.090000000000000000e+02,9.635087630412046522e+00
3.100000000000000000e+02,9.642705566989466348e+00
3.110000000000000000e+02,9.650262337897173026e+00
3.120000000000000000e+02,9.657758597214010976e+00
3.130000000000000000e+02,9.665194366567362749e+00
3.140000000000000000e+02,9.672569790737219009e+00
3.150000000000000000e+02,9.679885136719585503e+00
3.160000000000000000e+02,9.687140418588379376e+00
3.170000000000000000e+02,9.694335773069068907e+00
3.180000000000000000e+02,9.701471085504101310e+00
3.190000000000000000e+02,9.708546985244455030e+00
3.200000000000000000e+02,9.715563104050353616e+00
3.210000000000000000e+02,9.722519940850206766e+00
3.220000000000000000e+02,9.729417495265511917e+00
3.230000000000000000e+02,9.736255765117334704e+00
3.240000000000000000e+02,9.743035239696892447e+00
3.250000000000000000e+02,9.749755295466860261e+00
3.260000000000000000e+02,9.756417278163629803e+00
3.270000000000000000e+02,9.763019945359141971e+00
3.280000000000000000e+02,9.769563899248437266e+00
3.290000000000000000e+02,9.776049859482142779e+00
3.300000000000000000e+02,9.782477439214064319e+00
3.310000000000000000e+02,9.788846374019980701e+00
3.320000000000000000e+02,9.795157497119921786e+00
3.330000000000000000e+02,9.801411026415109973e+00
3.340000000000000000e+02,9.807605959968467957e+00
3.350000000000000000e+02,9.813743486931940652e+00
3.360000000000000000e+02,9.819823696193324736e+00
3.370000000000000000e+02,9.825846068228061725e+00
3.380000000000000000e+02,9.831811174186327662e+00
3.390000000000000000e+02,9.837719217832852081e+00
3.400000000000000000e+02,9.843570037786035343e+00
3.410000000000000000e+02,9.849364195696031388e+00
3.420000000000000000e+02,9.855101164096051747e+00
3.430000000000000000e+02,9.860781379342659747e+00
3.440000000000000000e+02,9.866405274046467611e+00
3.450000000000000000e+02,9.871972916786093677e+00
3.460000000000000000e+02,9.877484374126385802e+00
3.470000000000000000e+02,9.882939710631493568e+00
3.480000000000000000e+02,9.888338869158657118e+00
3.490000000000000000e+02,9.893682269465246648e+00
3.500000000000000000e+02,9.898970208341147270e+00
3.510000000000000000e+02,9.904202621626383873e+00
3.520000000000000000e+02,9.909380039811425789e+00
3.530000000000000000e+02,9.914502394075016767e+00
3.540000000000000000e+02,9.919569971126255936e+00
3.550000000000000000e+02,9.924582698320675078e+00
3.560000000000000000e+02,9.929541095299304843e+00
3.570000000000000000e+02,9.934445322171436388e+00
3.580000000000000000e+02,9.939295418307318997e+00
3.590000000000000000e+02,9.944091776453658937e+00
3.600000000000000000e+02,9.948834431444808502e+00
3.610000000000000000e+02,9.953523534548848417e+00
3.620000000000000000e+02,9.958159943155255434e+00
3.630000000000000000e+02,9.962742976727634314e+00
3.640000000000000000e+02,9.967273723122518803e+00
3.650000000000000000e+02,9.971751852017392892e+00
3.660000000000000000e+02,9.976178208946889114e+00
3.670000000000000000e+02,9.980552577292399974e+00
3.680000000000000000e+02,9.984875444187865767e+00
3.690000000000000000e+02,9.989146941653149980e+00
3.700000000000000000e+02,9.993367668648156510e+00
3.710000000000000000e+02,9.997537517955992215e+00
3.720000000000000000e+02,1.000165755148992552e+01
3.730000000000000000e+02,1.000572707236819348e+01
3.740000000000000000e+02,1.000974737071205389e+01
3.750000000000000000e+02,1.001371762980720348e+01
3.760000000000000000e+02,1.001763925045974801e+01
3.770000000000000000e+02,1.002151234560112236e+01
3.780000000000000000e+02,1.002533714296096967e+01
3.790000000000000000e+02,1.002911410102438339e+01
3.800000000000000000e+02,1.003284332671736401e+01
3.810000000000000000e+02,1.003652515778493104e+01
3.820000000000000000e+02,1.004016074259135216e+01
3.830000000000000000e+02,1.004374971639881586e+01
3.840000000000000000e+02,1.004729264198051908e+01
3.850000000000000000e+02,1.005079031107833742e+01
3.860000000000000000e+02,1.005424246985775660e+01
3.870000000000000000e+02,1.005765013695952881e+01
3.880000000000000000e+02,1.006101351761689777e+01
3.890000000000000000e+02,1.006433304653985772e+01
3.900000000000000000e+02,1.006760915619756602e+01
3.910000000000000000e+02,1.007084227686036471e+01
3.920000000000000000e+02,1.007403283664108784e+01
3.930000000000000000e+02,1.007718160735765167e+01
3.940000000000000000e+02,1.008028866668071899e+01
3.950000000000000000e+02,1.008339208481817906e+01
3.960000000000000000e+02,1.008643640805648900e+01
3.970000000000000000e+02,1.008943669203788751e+01
3.980000000000000000e+02,1.009239703718494674e+01
