# Time [s], Convective Heat Transfer Coefficient [W/m2K]
1.000000000000000000e+00,0.000000000000000000e+00
2.000000000000000000e+00,0.000000000000000000e+00
3.000000000000000000e+00,0.000000000000000000e+00
4.000000000000000000e+00,0.000000000000000000e+00
5.000000000000000000e+00,0.000000000000000000e+00
6.000000000000000000e+00,2.762023300960968902e-02
7.000000000000000000e+00,4.193564748117330210e-02
8.000000000000000000e+00,6.438451848066449601e-02
9.000000000000000000e+00,9.326404508278456074e-02
1.000000000000000000e+01,1.290508081814079333e-01
1.100000000000000000e+01,1.720413817863051531e-01
1.200000000000000000e+01,2.217978535927078165e-01
1.300000000000000000e+01,2.778951810896287400e-01
1.400000000000000000e+01,3.397166743247966858e-01
1.500000000000000000e+01,4.065766545538851973e-01
1.600000000000000000e+01,4.777925908631361351e-01
1.700000000000000000e+01,5.527075494477317052e-01
1.800000000000000000e+01,6.306959135367384839e-01
1.900000000000000000e+01,7.111859237531127365e-01
2.000000000000000000e+01,7.936785906278182035e-01
2.100000000000000000e+01,8.777196880603089779e-01
2.200000000000000000e+01,9.629254976536618660e-01
2.300000000000000000e+01,1.048955350508983031e+00
2.400000000000000000e+01,1.135519241124642864e+00
2.500000000000000000e+01,1.222357825336041648e+00
2.600000000000000000e+01,1.309253991011905427e+00
2.700000000000000000e+01,1.396028463072122916e+00
2.800000000000000000e+01,1.482535254390490831e+00
2.900000000000000000e+01,1.568636780234963890e+00
3.000000000000000000e+01,1.654224925510503041e+00
3.100000000000000000e+01,1.739201274688342069e+00
3.200000000000000000e+01,1.823490728191841326e+00
3.300000000000000000e+01,1.907024205725651456e+00
3.400000000000000000e+01,1.989753439193064688e+00
3.500000000000000000e+01,2.071645407574962405e+00
3.600000000000000000e+01,2.152659745701955174e+00
3.700000000000000000e+01,2.232760788873900282e+00
3.800000000000000000e+01,2.311933630881766177e+00
3.900000000000000000e+01,2.390169837763894023e+00
4.000000000000000000e+01,2.467453969794882962e+00
4.100000000000000000e+01,2.543779000777660393e+00
4.200000000000000000e+01,2.619140713373866891e+00
4.300000000000000000e+01,2.693537353138617085e+00
4.400000000000000000e+01,2.766976694166204176e+00
4.500000000000000000e+01,2.839471069513374690e+00
4.600000000000000000e+01,2.911006000413959516e+00
4.700000000000000000e+01,2.981599642384586968e+00
4.800000000000000000e+01,3.051264978436916131e+00
4.900000000000000000e+01,3.120002376241889142e+00
5.000000000000000000e+01,3.187822750439930353e+00
5.100000000000000000e+01,3.254752320288277545e+00
5.200000000000000000e+01,3.320782702188218583e+00
5.300000000000000000e+01,3.385940090347275166e+00
5.400000000000000000e+01,3.450232640164627274e+00
5.500000000000000000e+01,3.513673433205575236e+00
5.600000000000000000e+01,3.576278946388095736e+00
5.700000000000000000e+01,3.638064553014861868e+00
5.800000000000000000e+01,3.699031752623730629e+00
5.900000000000000000e+01,3.759203733723164298e+00
6.000000000000000000e+01,3.818591917980761696e+00
6.100000000000000000e+01,3.877212971130834518e+00
6.200000000000000000e+01,3.935076695396861002e+00
6.300000000000000000e+01,3.992196772342978317e+00
6.400000000000000000e+01,4.048584948021916041e+00
6.500000000000000000e+01,4.104249912536215739e+00
6.600000000000000000e+01,4.159212127163015360e+00
6.700000000000000000e+01,4.213488487094608104e+00
6.800000000000000000e+01,4.267083076025132371e+00
6.900000000000000000e+01,4.320007439026970708e+00
7.000000000000000000e+01,4.372277514068815485e+00
7.100000000000000000e+01,4.423903696451859879e+00
7.200000000000000000e+01,4.474895410509311056e+00
7.300000000000000000e+01,4.525265189141066458e+00
7.400000000000000000e+01,4.575024171783957705e+00
7.500000000000000000e+01,4.624192245899371834e+00
7.600000000000000000e+01,4.672768920184876329e+00
7.700000000000000000e+01,4.720764258725273166e+00
7.800000000000000000e+01,4.768190039405316050e+00
7.900000000000000000e+01,4.815066285948755187e+00
8.000000000000000000e+01,4.861390553455263053e+00
8.100000000000000000e+01,4.907173887822862568e+00
8.200000000000000000e+01,4.952435619211172479e+00
8.300000000000000000e+01,4.997174204955837418e+00
8.400000000000000000e+01,5.041401241096549413e+00
8.500000000000000000e+01,5.085130725707879940e+00
8.600000000000000000e+01,5.128360511595055016e+00
8.700000000000000000e+01,5.171111671634545104e+00
8.800000000000000000e+01,5.213382507848959513e+00
8.900000000000000000e+01,5.255187613102049404e+00
9.000000000000000000e+01,5.296532224335961381e+00
9.100000000000000000e+01,5.337421522181336364e+00
9.200000000000000000e+01,5.377870707078767687e+00
9.300000000000000000e+01,5.417878294514729909e+00
9.400000000000000000e+01,5.457459509625294913e+00
9.500000000000000000e+01,5.496612817987618804e+00
9.600000000000000000e+01,5.535353148825248759e+00
9.700000000000000000e+01,5.573680312796153835e+00
9.800000000000000000e+01,5.611608570795558748e+00
9.900000000000000000e+01,5.649139260498864168e+00
1.000000000000000000e+02,5.686280501278045740e+00
1.010000000000000000e+02,5.723036891077928345e+00
1.020000000000000000e+02,5.759414632421701263e+00
1.030000000000000000e+02,5.795422023007097856e+00
1.040000000000000000e+02,5.831060994923770835e+00
1.050000000000000000e+02,5.866343823451129147e+00
1.060000000000000000e+02,5.901268009067101694e+00
1.070000000000000000e+02,5.935847802875282575e+00
1.080000000000000000e+02,5.970082436807432558e+00
1.090000000000000000e+02,6.003978437566101611e+00
1.100000000000000000e+02,6.037543759267199661e+00
1.110000000000000000e+02,6.070777763644429115e+00
1.120000000000000000e+02,6.103693080778746172e+00
1.130000000000000000e+02,6.136289379504382246e+00
1.140000000000000000e+02,6.168572382287172751e+00
1.150000000000000000e+02,6.200549288543680149e+00
1.160000000000000000e+02,6.232219055556078580e+00
1.170000000000000000e+02,6.263594115145067143e+00
1.180000000000000000e+02,6.294673265885417202e+00
1.190000000000000000e+02,6.325462349983956400e+00
1.200000000000000000e+02,6.355967857469963178e+00
1.210000000000000000e+02,6.386191184340308524e+00
1.220000000000000000e+02,6.416137657301512753e+00
1.230000000000000000e+02,6.445811787867050668e+00
1.240000000000000000e+02,6.475214071251573777e+00
1.250000000000000000e+02,6.504355609660636084e+00
1.260000000000000000e+02,6.533234496154467053e+00
1.270000000000000000e+02,6.561855414531057029e+00
1.280000000000000000e+02,6.590224502583601485e+00
1.290000000000000000e+02,6.618342342610132434e+00
1.300000000000000000e+02,6.646214000380009423e+00
1.310000000000000000e+02,6.673842005659899712e+00
1.320000000000000000e+02,6.701230366577848763e+00
1.330000000000000000e+02,6.728383992810456959e+00
1.340000000000000000e+02,6.755304042839875400e+00
1.350000000000000000e+02,6.781995198214582743e+00
1.360000000000000000e+02,6.808460728304998710e+00
1.370000000000000000e+02,6.834700289846276533e+00
1.380000000000000000e+02,6.860722498821418824e+00
1.390000000000000000e+02,6.886526822240123025e+00
1.400000000000000000e+02,6.912117394053825414e+00
1.410000000000000000e+02,6.937497006471749827e+00
1.420000000000000000e+02,6.962665710242612604e+00
1.430000000000000000e+02,6.987630742206071055e+00
1.440000000000000000e+02,7.012392464173033524e+00
1.450000000000000000e+02,7.036954296409707155e+00
1.460000000000000000e+02,7.061318855525414051e+00
1.470000000000000000e+02,7.085485650652828760e+00
1.480000000000000000e+02,7.109462073462698761e+00
1.490000000000000000e+02,7.133245880826678764e+00
1.500000000000000000e+02,7.156844711255232028e+00
1.510000000000000000e+02,7.180258278876721079e+00
1.520000000000000000e+02,7.203489233201102238e+00
1.530000000000000000e+02,7.226540151086119579e+00
1.540000000000000000e+02,7.249409975473267487e+00
1.550000000000000000e+02,7.272105860750342821e+00
1.560000000000000000e+02,7.294625539699036487e+00
1.570000000000000000e+02,7.316975322975543428e+00
1.580000000000000000e+02,7.339155278237301516e+00
1.590000000000000000e+02,7.361166762978226252e+00
1.600000000000000000e+02,7.383013245109320444e+00
1.610000000000000000e+02,7.404695330816941201e+00
1.620000000000000000e+02,7.426217215866222077e+00
1.630000000000000000e+02,7.447576874476937725e+00
1.640000000000000000e+02,7.468780926027739575e+00
1.650000000000000000e+02,7.489827071812340975e+00
1.660000000000000000e+02,7.510720945258523962e+00
1.670000000000000000e+02,7.531460621408602840e+00
1.680000000000000000e+02,7.552051191240665595e+00
1.690000000000000000e+02,7.572490690176760353e+00
1.700000000000000000e+02,7.592784297998571574e+00
1.710000000000000000e+02,7.612931020702154328e+00
1.720000000000000000e+02,7.632935506541381976e+00
1.730000000000000000e+02,7.652795306900022965e+00
1.740000000000000000e+02,7.672515575669883958e+00
1.750000000000000000e+02,7.692095224056687108e+00
1.760000000000000000e+02,7.711538299006766017e+00
1.770000000000000000e+02,7.730844844913160152e+00
1.780000000000000000e+02,7.750014901165714676e+00
1.790000000000000000e+02,7.769053544616361329e+00
1.800000000000000000e+02,7.787957643132829233e+00
1.810000000000000000e+02,7.806733340475968674e+00
1.820000000000000000e+02,7.825378439081569937e+00
1.830000000000000000e+02,7.843897057611901147e+00
1.840000000000000000e+02,7.862287552445236471e+00
1.850000000000000000e+02,7.880551322495109368e+00
1.860000000000000000e+02,7.898693114188776399e+00
1.870000000000000000e+02,7.916710486092033427e+00
1.880000000000000000e+02,7.934608288597070569e+00
1.890000000000000000e+02,7.952384062408327736e+00
1.900000000000000000e+02,7.970039811064097535e+00
1.910000000000000000e+02,7.987578416401557746e+00
1.920000000000000000e+02,8.004999783499663124e+00
1.930000000000000000e+02,8.022306725784327242e+00
1.940000000000000000e+02,8.039496933767022568e+00
1.950000000000000000e+02,8.056572101295714106e+00
1.960000000000000000e+02,8.073536943035689362e+00
1.970000000000000000e+02,8.090388401283036046e+00
1.980000000000000000e+02,8.107128630618610998e+00
1.990000000000000000e+02,8.123761520500019984e+00
2.000000000000000000e+02,8.140283827547548867e+00
2.010000000000000000e+02,8.156697987714975895e+00
2.020000000000000000e+02,8.173007270788808398e+00
2.030000000000000000e+02,8.189209131273754494e+00
2.040000000000000000e+02,8.205305233348402894e+00
2.050000000000000000e+02,8.221298597446773826e+00
2.060000000000000000e+02,8.237187535968798713e+00
2.070000000000000000e+02,8.252973821378997599e+00
2.080000000000000000e+02,8.268659709629618604e+00
2.090000000000000000e+02,8.284243496475946600e+00
2.100000000000000000e+02,8.299726558923920194e+00
2.110000000000000000e+02,8.315110758320804152e+00
2.120000000000000000e+02,8.330397250843239121e+00
2.130000000000000000e+02,8.345585492132777006e+00
2.140000000000000000e+02,8.360676784878736001e+00
2.150000000000000000e+02,8.375671575758225629e+00
2.160000000000000000e+02,8.390571299800317462e+00
2.170000000000000000e+02,8.405375877663965767e+00
2.180000000000000000e+02,8.420086384026193471e+00
2.190000000000000000e+02,8.434703217599192726e+00
2.200000000000000000e+02,8.449226768754773076e+00
2.210000000000000000e+02,8.463658890416484226e+00
2.220000000000000000e+02,8.477998964637041723e+00
2.230000000000000000e+02,8.492248489141136503e+00
2.240000000000000000e+02,8.506407482896102934e+00
2.250000000000000000e+02,8.520476768100756715e+00
2.260000000000000000e+02,8.534456831986004133e+00
2.270000000000000000e+02,8.548347672140740983e+00
2.280000000000000000e+02,8.562150241526126138e+00
2.290000000000000000e+02,8.575866273997089451e+00
2.300000000000000000e+02,8.589495892085814432e+00
2.310000000000000000e+02,8.603038897872671953e+00
2.320000000000000000e+02,8.616495093303504049e+00
2.330000000000000000e+02,8.629866795024952353e+00
2.340000000000000000e+02,8.643152841142363485e+00
2.350000000000000000e+02,8.656354112270150836e+00
2.360000000000000000e+02,8.669471787206010305e+00
2.370000000000000000e+02,8.682505941017998552e+00
2.380000000000000000e+02,8.696042441596935291e+00
2.390000000000000000e+02,8.709132904420261667e+00
2.400000000000000000e+02,8.722041645649207808e+00
2.410000000000000000e+02,8.734838645346538755e+00
2.420000000000000000e+02,8.747532935426157508e+00
2.430000000000000000e+02,8.760132980740884534e+00
2.440000000000000000e+02,8.772642277659164378e+00
2.450000000000000000e+02,8.785064127626432295e+00
2.460000000000000000e+02,8.797401035414550208e+00
2.470000000000000000e+02,8.809654419008110082e+00
2.480000000000000000e+02,8.821825677840422486e+00
2.490000000000000000e+02,8.833915593209109574e+00
2.500000000000000000e+02,8.845925832805935585e+00
2.510000000000000000e+02,8.857856551760109554e+00
2.520000000000000000e+02,8.869708793777538958e+00
2.530000000000000000e+02,8.881484034157852037e+00
2.540000000000000000e+02,8.893182990147602496e+00
2.550000000000000000e+02,8.904805778628869461e+00
2.560000000000000000e+02,8.916352954662951191e+00
2.570000000000000000e+02,8.927825505854217525e+00
2.580000000000000000e+02,8.939223674963319155e+00
2.590000000000000000e+02,8.950547992273982345e+00
2.600000000000000000e+02,8.961798980487376554e+00
2.610000000000000000e+02,8.972977009472852927e+00
2.620000000000000000e+02,8.984081718076364353e+00
2.630000000000000000e+02,8.995113903893665608e+00
2.640000000000000000e+02,9.006074354516766078e+00
2.650000000000000000e+02,9.016962551956362759e+00
2.660000000000000000e+02,9.027779130080501702e+00
2.670000000000000000e+02,9.038525574262330053e+00
2.680000000000000000e+02,9.049201495321245403e+00
2.690000000000000000e+02,9.059807218731279477e+00
2.700000000000000000e+02,9.070341926538359800e+00
2.710000000000000000e+02,9.080807645382957816e+00
2.720000000000000000e+02,9.091203690152104500e+00
2.730000000000000000e+02,9.101530086467754188e+00
2.740000000000000000e+02,9.111788549547576110e+00
2.750000000000000000e+02,9.121978666975447680e+00
2.760000000000000000e+02,9.132099747250661537e+00
2.770000000000000000e+02,9.142152923678979803e+00
2.780000000000000000e+02,9.152138059782620516e+00
2.790000000000000000e+02,9.162056691646148110e+00
2.800000000000000000e+02,9.171908391970926999e+00
2.810000000000000000e+02,9.181692040861431536e+00
2.820000000000000000e+02,9.191409435696680674e+00
2.830000000000000000e+02,9.201060835696157625e+00
2.840000000000000000e+02,9.210646495947798940e+00
2.850000000000000000e+02,9.220165152773752482e+00
2.860000000000000000e+02,9.229618299236312495e+00
2.870000000000000000e+02,9.239006728514402411e+00
2.880000000000000000e+02,9.248329035638441553e+00
2.890000000000000000e+02,9.257586829902802350e+00
2.900000000000000000e+02,9.266779524728523398e+00
2.910000000000000000e+02,9.275907624626595904e+00
2.920000000000000000e+02,9.284971220845580575e+00
2.930000000000000000e+02,9.293970673023759232e+00
2.940000000000000000e+02,9.302905930305922055e+00
2.950000000000000000e+02,9.311777750311778235e+00
2.960000000000000000e+02,9.320585939753680549e+00
2.970000000000000000e+02,9.329329901405651881e+00
2.980000000000000000e+02,9.338010920000405335e+00
2.990000000000000000e+02,9.346628928841896666e+00
3.000000000000000000e+02,9.355183324817542001e+00
3.010000000000000000e+02,9.363675242926909448e+00
3.020000000000000000e+02,9.372104075531112244e+00
3.030000000000000000e+02,9.380471612041281659e+00
3.040000000000000000e+02,9.388776041732828759e+00
3.050000000000000000e+02,9.397018348634382789e+00
3.060000000000000000e+02,9.405199110976965926e+00
3.070000000000000000e+02,9.413317183731269466e+00
3.080000000000000000e+02,9.421373406052039101e+00
3.090000000000000000e+02,9.429367687862242775e+00
3.100000000000000000e+02,9.437300726414303398e+00
3.110000000000000000e+02,9.445172425107955405e+00
3.120000000000000000e+02,9.452982948118359374e+00
3.130000000000000000e+02,9.460732325883020266e+00
3.140000000000000000e+02,9.468420456196454893e+00
3.150000000000000000e+02,9.476047496360836320e+00
3.160000000000000000e+02,9.483613991250326336e+00
3.170000000000000000e+02,9.491119440811491614e+00
3.180000000000000000e+02,9.498564124745907833e+00
3.190000000000000000e+02,9.505949225932909030e+00
3.200000000000000000e+02,9.513273072497351990e+00
3.210000000000000000e+02,9.520536971354809808e+00
3.220000000000000000e+02,9.527740801113816715e+00
3.230000000000000000e+02,9.534884052988354952e+00
3.240000000000000000e+02,9.541967762173403145e+00
3.250000000000000000e+02,9.548991800463602075e+00
3.260000000000000000e+02,9.555955653991098586e+00
3.270000000000000000e+02,9.562860218084908936e+00
3.280000000000000000e+02,9.569704591528276794e+00
3.290000000000000000e+02,9.576490046308311577e+00
3.300000000000000000e+02,9.583216060879660603e+00
3.310000000000000000e+02,9.589882242065272067e+00
3.320000000000000000e+02,9.596489468108938325e+00
3.330000000000000000e+02,9.603037975883804478e+00
3.340000000000000000e+02,9.609527365314118441e+00
3.350000000000000000e+02,9.615957743028376470e+00
3.360000000000000000e+02,9.622329718952546074e+00
3.370000000000000000e+02,9.628643140376563991e+00
3.380000000000000000e+02,9.634897223065392424e+00
3.390000000000000000e+02,9.641093199990816487e+00
3.400000000000000000e+02,9.647231289738330773e+00
3.410000000000000000e+02,9.653310954264394894e+00
3.420000000000000000e+02,9.659331781869839872e+00
3.430000000000000000e+02,9.665294864742874026e+00
3.440000000000000000e+02,9.671199535692375449e+00
3.450000000000000000e+02,9.677047754030379423e+00
3.460000000000000000e+02,9.682837847064989845e+00
3.470000000000000000e+02,9.688570018895537928e+00
3.480000000000000000e+02,9.694244470823678128e+00
3.490000000000000000e+02,9.699861774636236333e+00
3.500000000000000000e+02,9.705421503484593870e+00
3.510000000000000000e+02,9.710924347866024320e+00
3.520000000000000000e+02,9.716370373390944337e+00
3.530000000000000000e+02,9.721760634454549077e+00
3.540000000000000000e+02,9.727094075794283867e+00
3.550000000000000000e+02,9.732371128054181142e+00
3.560000000000000000e+02,9.737591971338341423e+00
3.570000000000000000e+02,9.742756413257110282e+00
3.580000000000000000e+02,9.747865246030116282e+00
3.590000000000000000e+02,9.752918149227433275e+00
3.600000000000000000e+02,9.757916031419243907e+00
3.610000000000000000e+02,9.762858076328177148e+00
3.620000000000000000e+02,9.767745309656138630e+00
3.630000000000000000e+02,9.772577525586202185e+00
3.640000000000000000e+02,9.777355374592147541e+00
3.650000000000000000e+02,9.782078401934242606e+00
3.660000000000000000e+02,9.786747375124402737e+00
3.670000000000000000e+02,9.791362568684357726e+00
3.680000000000000000e+02,9.795924010494299949e+00
3.690000000000000000e+02,9.800432092333013046e+00
3.700000000000000000e+02,9.804887081161696827e+00
3.710000000000000000e+02,9.809288876408276181e+00
3.720000000000000000e+02,9.813638227104190648e+00
3.730000000000000000e+02,9.817935392289927066e+00
3.740000000000000000e+02,9.822181235239373365e+00
3.750000000000000000e+02,9.826374796233164233e+00
3.760000000000000000e+02,9.830517176527674650e+00
3.770000000000000000e+02,9.834608745978197675e+00
3.780000000000000000e+02,9.838649267080302963e+00
3.790000000000000000e+02,9.842639347463745025e+00
3.800000000000000000e+02,9.846580195011775061e+00
3.810000000000000000e+02,9.850470961441613937e+00
3.820000000000000000e+02,9.854312849035203214e+00
3.830000000000000000e+02,9.858105609489843602e+00
3.840000000000000000e+02,9.861850077158626604e+00
3.850000000000000000e+02,9.865546481150257563e+00
3.860000000000000000e+02,9.869195409113062922e+00
3.870000000000000000e+02,9.872797205465515091e+00
3.880000000000000000e+02,9.876351372275053109e+00
3.890000000000000000e+02,9.879859810239617346e+00
3.900000000000000000e+02,9.883322256300376196e+00
3.910000000000000000e+02,9.886739524744772467e+00
3.920000000000000000e+02,9.890111708368165111e+00
3.930000000000000000e+02,9.893470232473474013e+00
3.940000000000000000e+02,9.896769947606832929e+00
3.950000000000000000e+02,9.900022197630736542e+00
3.960000000000000000e+02,9.903231610972891730e+00
3.970000000000000000e+02,9.906398508752729981e+00
3.980000000000000000e+02,9.909524163883565606e+00
