# Time [s], Convective Heat Transfer Coefficient [W/m2K]
1.000000000000000000e+00,0.000000000000000000e+00
2.000000000000000000e+00,0.000000000000000000e+00
3.000000000000000000e+00,0.000000000000000000e+00
4.000000000000000000e+00,0.000000000000000000e+00
5.000000000000000000e+00,1.915079995362458862e-02
6.000000000000000000e+00,3.574028725257893252e-02
7.000000000000000000e+00,5.709554346458797780e-02
8.000000000000000000e+00,8.629665283682264043e-02
9.000000000000000000e+00,1.236244426127101198e-01
1.000000000000000000e+01,1.691043974786003157e-01
1.100000000000000000e+01,2.225567102813844067e-01
1.200000000000000000e+01,2.833650266529058048e-01
1.300000000000000000e+01,3.508026632521284993e-01
1.400000000000000000e+01,4.239912052287532762e-01
1.500000000000000000e+01,5.020601837443352533e-01
1.600000000000000000e+01,5.841465728302603910e-01
1.700000000000000000e+01,6.694875848714031408e-01
1.800000000000000000e+01,7.573847173802531474e-01
1.900000000000000000e+01,8.472231152312813540e-01
2.000000000000000000e+01,9.384729403423088812e-01
2.100000000000000000e+01,1.030684807559666405e+00
2.200000000000000000e+01,1.123474406241225854e+00
2.300000000000000000e+01,1.216515156723745772e+00
2.400000000000000000e+01,1.309540749227428025e+00
2.500000000000000000e+01,1.402320097037441649e+00
2.600000000000000000e+01,1.494666821922163935e+00
2.700000000000000000e+01,1.586421896019915234e+00
2.800000000000000000e+01,1.677460012862355132e+00
2.900000000000000000e+01,1.767674308180700704e+00
3.000000000000000000e+01,1.856983517176412857e+00
3.100000000000000000e+01,1.945316381183667120e+00
3.200000000000000000e+01,2.032620657203901615e+00
3.300000000000000000e+01,2.118856798638793393e+00
3.400000000000000000e+01,2.203991565564234811e+00
3.500000000000000000e+01,2.288003328405675330e+00
3.600000000000000000e+01,2.370876210445273191e+00
3.700000000000000000e+01,2.452602464849133579e+00
3.800000000000000000e+01,2.533177986563050155e+00
3.900000000000000000e+01,2.612602721832064212e+00
4.000000000000000000e+01,2.690881367686402736e+00
4.100000000000000000e+01,2.768020280136978872e+00
4.200000000000000000e+01,2.844028068222613115e+00
4.300000000000000000e+01,2.918916965710894651e+00
4.400000000000000000e+01,2.992700921394864988e+00
4.500000000000000000e+01,3.065392720718761232e+00
4.600000000000000000e+01,3.137010100321492967e+00
4.700000000000000000e+01,3.207568227376711434e+00
4.800000000000000000e+01,3.277083439389357089e+00
4.900000000000000000e+01,3.345573276222034043e+00
5.000000000000000000e+01,3.413057317865374696e+00
5.100000000000000000e+01,3.479551846812299676e+00
5.200000000000000000e+01,3.545077427116206881e+00
5.300000000000000000e+01,3.609650155571420882e+00
5.400000000000000000e+01,3.673288426413620300e+00
5.500000000000000000e+01,3.736010813205500547e+00
5.600000000000000000e+01,3.797835909122732279e+00
5.700000000000000000e+01,3.858782048346232063e+00
5.800000000000000000e+01,3.918865409238018849e+00
5.900000000000000000e+01,3.978103565256928320e+00
6.000000000000000000e+01,4.036513904783364914e+00
6.100000000000000000e+01,4.094113089546469020e+00
6.200000000000000000e+01,4.150917965695588130e+00
6.300000000000000000e+01,4.206944681709160250e+00
6.400000000000000000e+01,4.262208140588816363e+00
6.500000000000000000e+01,4.316724930917000158e+00
6.600000000000000000e+01,4.370510376886761250e+00
6.700000000000000000e+01,4.423579245006501459e+00
6.800000000000000000e+01,4.475945887445928584e+00
6.900000000000000000e+01,4.527624882466646739e+00
7.000000000000000000e+01,4.578629246933929586e+00
7.100000000000000000e+01,4.628973090059762541e+00
7.200000000000000000e+01,4.678670242043032168e+00
7.300000000000000000e+01,4.727733264903432264e+00
7.400000000000000000e+01,4.776173867730779676e+00
7.500000000000000000e+01,4.824005386321973177e+00
7.600000000000000000e+01,4.871239846071043544e+00
7.700000000000000000e+01,4.917887877190052492e+00
7.800000000000000000e+01,4.963962202649145006e+00
7.900000000000000000e+01,5.009472957605213495e+00
8.000000000000000000e+01,5.054431940168747417e+00
8.100000000000000000e+01,5.098849574672080998e+00
8.200000000000000000e+01,5.142735196716207824e+00
8.300000000000000000e+01,5.186100007958304836e+00
8.400000000000000000e+01,5.228953062492500692e+00
8.500000000000000000e+01,5.271304634305169046e+00
8.600000000000000000e+01,5.313163212294025328e+00
8.700000000000000000e+01,5.354539143838127124e+00
8.800000000000000000e+01,5.395439904835443556e+00
8.900000000000000000e+01,5.435875498472126921e+00
9.000000000000000000e+01,5.475852918152432025e+00
9.100000000000000000e+01,5.515382131940867794e+00
9.200000000000000000e+01,5.554469685329400441e+00
9.300000000000000000e+01,5.593124884818584164e+00
9.400000000000000000e+01,5.631353849236345077e+00
9.500000000000000000e+01,5.669164928628201316e+00
9.600000000000000000e+01,5.706565464211431404e+00
9.700000000000000000e+01,5.743562206710102203e+00
9.800000000000000000e+01,5.780162963798862741e+00
9.900000000000000000e+01,5.816373557131679028e+00
1.000000000000000000e+02,5.852201155732301707e+00
1.010000000000000000e+02,5.887652538840591809e+00
1.020000000000000000e+02,5.922733250682369111e+00
1.030000000000000000e+02,5.957450772013704210e+00
1.040000000000000000e+02,5.991810365226599266e+00
1.050000000000000000e+02,6.025818004089015467e+00
1.060000000000000000e+02,6.059479823388420172e+00
1.070000000000000000e+02,6.092801132281746135e+00
1.080000000000000000e+02,6.125787831121378701e+00
1.090000000000000000e+02,6.158445422999825780e+00
1.100000000000000000e+02,6.190779156665078276e+00
1.110000000000000000e+02,6.222794523223137197e+00
1.120000000000000000e+02,6.254496166565207460e+00
1.130000000000000000e+02,6.285889347805794003e+00
1.140000000000000000e+02,6.316979445486190059e+00
1.150000000000000000e+02,6.347770265157929970e+00
1.160000000000000000e+02,6.378267222414193860e+00
1.170000000000000000e+02,6.408475300171772915e+00
1.180000000000000000e+02,6.438397911461958500e+00
1.190000000000000000e+02,6.468040693103688454e+00
1.200000000000000000e+02,6.497407024078842852e+00
1.210000000000000000e+02,6.526501479574241316e+00
1.220000000000000000e+02,6.555328470832647803e+00
1.230000000000000000e+02,6.583891442554977047e+00
1.240000000000000000e+02,6.612195056561284368e+00
1.250000000000000000e+02,6.640243016682754629e+00
1.260000000000000000e+02,6.668038899059803626e+00
1.270000000000000000e+02,6.695586418769582160e+00
1.280000000000000000e+02,6.722889683450389953e+00
1.290000000000000000e+02,6.749951893310043083e+00
1.300000000000000000e+02,6.776777161774005798e+00
1.310000000000000000e+02,6.803368203907137257e+00
1.320000000000000000e+02,6.829728649493834070e+00
1.330000000000000000e+02,6.855862261179431982e+00
1.340000000000000000e+02,6.881771446863351294e+00
1.350000000000000000e+02,6.907459763932404684e+00
1.360000000000000000e+02,6.932930902994652200e+00
1.370000000000000000e+02,6.958187232868676020e+00
1.380000000000000000e+02,6.983232008875972952e+00
1.390000000000000000e+02,7.008067673150917720e+00
1.400000000000000000e+02,7.032697776959238922e+00
1.410000000000000000e+02,7.057125062176599073e+00
1.420000000000000000e+02,7.081351956370520284e+00
1.430000000000000000e+02,7.105381511175004050e+00
1.440000000000000000e+02,7.129215769459697150e+00
1.450000000000000000e+02,7.152858315812192558e+00
1.460000000000000000e+02,7.176310589495781933e+00
1.470000000000000000e+02,7.199576019346636713e+00
1.480000000000000000e+02,7.222656594317778733e+00
1.490000000000000000e+02,7.245554693330923612e+00
1.500000000000000000e+02,7.268273073260762551e+00
1.510000000000000000e+02,7.290813536225436486e+00
1.520000000000000000e+02,7.313178929016981300e+00
1.530000000000000000e+02,7.335370718589127925e+00
1.540000000000000000e+02,7.357391845015843757e+00
1.550000000000000000e+02,7.379243883324392073e+00
1.560000000000000000e+02,7.400929007347606614e+00
1.570000000000000000e+02,7.422449972486911740e+00
1.580000000000000000e+02,7.443807775448967767e+00
1.590000000000000000e+02,7.465005485675287211e+00
1.600000000000000000e+02,7.486044009464102089e+00
1.610000000000000000e+02,7.506926097319156277e+00
1.620000000000000000e+02,7.527652781323656228e+00
1.630000000000000000e+02,7.548226915111817981e+00
1.640000000000000000e+02,7.568649446506336531e+00
1.650000000000000000e+02,7.588922720970023406e+00
1.660000000000000000e+02,7.609048018465830232e+00
1.670000000000000000e+02,7.629027592942809299e+00
1.680000000000000000e+02,7.648862446259117043e+00
1.690000000000000000e+02,7.668554749331325304e+00
1.700000000000000000e+02,7.688106030041010008e+00
1.710000000000000000e+02,7.707517583823093155e+00
1.720000000000000000e+02,7.726791459968985087e+00
1.730000000000000000e+02,7.745928882317771880e+00
1.740000000000000000e+02,7.764931434609652072e+00
1.750000000000000000e+02,7.783800279040014480e+00
1.760000000000000000e+02,7.802537320244820052e+00
1.770000000000000000e+02,7.821143656810503941e+00
1.780000000000000000e+02,7.839620933775624856e+00
1.790000000000000000e+02,7.857970192500917328e+00
1.800000000000000000e+02,7.876193205739817849e+00
1.810000000000000000e+02,7.894291333941479749e+00
1.820000000000000000e+02,7.912265160869115022e+00
1.830000000000000000e+02,7.930116744947861562e+00
1.840000000000000000e+02,7.947846621356386976e+00
1.850000000000000000e+02,7.965456787903285374e+00
1.860000000000000000e+02,7.982948101357698611e+00
1.870000000000000000e+02,8.000321399834261271e+00
1.880000000000000000e+02,8.017578413777481927e+00
1.890000000000000000e+02,8.034719933706002237e+00
1.900000000000000000e+02,8.051747094239768643e+00
1.910000000000000000e+02,8.068661366942846414e+00
1.920000000000000000e+02,8.085463479081932192e+00
1.930000000000000000e+02,8.102154320741165705e+00
1.940000000000000000e+02,8.118735296733458284e+00
1.950000000000000000e+02,8.135207608752985209e+00
1.960000000000000000e+02,8.151571378778251997e+00
1.970000000000000000e+02,8.167828302683457053e+00
1.980000000000000000e+02,8.183979521841287408e+00
1.990000000000000000e+02,8.200025460093067764e+00
2.000000000000000000e+02,8.215967398535758193e+00
2.010000000000000000e+02,8.231805904286852993e+00
2.020000000000000000e+02,8.247542393070123268e+00
2.030000000000000000e+02,8.263177398786975658e+00
2.040000000000000000e+02,8.278711615011101088e+00
2.050000000000000000e+02,8.294146402532096118e+00
2.060000000000000000e+02,8.309482251280480014e+00
2.070000000000000000e+02,8.324719809911544033e+00
2.080000000000000000e+02,8.339860556156605043e+00
2.090000000000000000e+02,8.354904601886198989e+00
2.100000000000000000e+02,8.369853057050777423e+00
2.110000000000000000e+02,8.384706346899886142e+00
2.120000000000000000e+02,8.399465717431095158e+00
2.130000000000000000e+02,8.414131733004964531e+00
2.140000000000000000e+02,8.428704617812234900e+00
2.150000000000000000e+02,8.443185903828942074e+00
2.160000000000000000e+02,8.457575790157878970e+00
2.170000000000000000e+02,8.471875122879819031e+00
2.180000000000000000e+02,8.486084571446367519e+00
2.190000000000000000e+02,8.500204469680882724e+00
2.200000000000000000e+02,8.514235951719282269e+00
2.210000000000000000e+02,8.528179329419163679e+00
2.220000000000000000e+02,8.542035549688272056e+00
2.230000000000000000e+02,8.555805064874459021e+00
2.240000000000000000e+02,8.569488159563663388e+00
2.250000000000000000e+02,8.583086065557766986e+00
2.260000000000000000e+02,8.596598570993130295e+00
2.270000000000000000e+02,8.610026885300023025e+00
2.280000000000000000e+02,8.623371255880558195e+00
2.290000000000000000e+02,8.636632552359593262e+00
2.300000000000000000e+02,8.649811005450944279e+00
2.310000000000000000e+02,8.662907620560375221e+00
2.320000000000000000e+02,8.675922299965137086e+00
2.330000000000000000e+02,8.688856030092940941e+00
2.340000000000000000e+02,8.701709010311155623e+00
2.350000000000000000e+02,8.714481897711049641e+00
2.360000000000000000e+02,8.727175031971343699e+00
2.370000000000000000e+02,8.739789359510719891e+00
2.380000000000000000e+02,8.752324743867742285e+00
2.390000000000000000e+02,8.764782114497068122e+00
2.400000000000000000e+02,8.777794455310836241e+00
2.410000000000000000e+02,8.790325077302174606e+00
2.420000000000000000e+02,8.802680035812683101e+00
2.430000000000000000e+02,8.814926591466607064e+00
2.440000000000000000e+02,8.827075513254968087e+00
2.450000000000000000e+02,8.839134600650558227e+00
2.460000000000000000e+02,8.851108277298957105e+00
2.470000000000000000e+02,8.862999425738177450e+00
2.480000000000000000e+02,8.874809854406795040e+00
2.490000000000000000e+02,8.886541794533831862e+00
2.500000000000000000e+02,8.898196268545001786e+00
2.510000000000000000e+02,8.909775023032931784e+00
2.520000000000000000e+02,8.921278754573464198e+00
2.530000000000000000e+02,8.932708737110699460e+00
2.540000000000000000e+02,8.944065644042726859e+00
2.550000000000000000e+02,8.955350431708851033e+00
2.560000000000000000e+02,8.966563607924955548e+00
2.570000000000000000e+02,8.977706109072231655e+00
2.580000000000000000e+02,8.988778280705476575e+00
2.590000000000000000e+02,8.999780752023905706e+00
2.600000000000000000e+02,9.010713999928606555e+00
2.610000000000000000e+02,9.021578350913806332e+00
2.620000000000000000e+02,9.032373982903052934e+00
2.630000000000000000e+02,9.043101642754379554e+00
2.640000000000000000e+02,9.053761354300338127e+00
2.650000000000000000e+02,9.064353851605359225e+00
2.660000000000000000e+02,9.074879291424387873e+00
2.670000000000000000e+02,9.085337968999127156e+00
2.680000000000000000e+02,9.095730882449586829e+00
2.690000000000000000e+02,9.106057324901179584e+00
2.700000000000000000e+02,9.116318284273148720e+00
2.710000000000000000e+02,9.126513472918308167e+00
2.720000000000000000e+02,9.136643865970603073e+00
2.730000000000000000e+02,9.146709588607478736e+00
2.740000000000000000e+02,9.156710763113814266e+00
2.750000000000000000e+02,9.166647926848746408e+00
2.760000000000000000e+02,9.176520776670551882e+00
2.770000000000000000e+02,9.186329981257740585e+00
2.780000000000000000e+02,9.196076340235510571e+00
2.790000000000000000e+02,9.205759125293154099e+00
2.800000000000000000e+02,9.215379404423401866e+00
2.810000000000000000e+02,9.224936859413771728e+00
2.820000000000000000e+02,9.234432133863348824e+00
2.830000000000000000e+02,9.243865453381262753e+00
2.840000000000000000e+02,9.253236629877630293e+00
2.850000000000000000e+02,9.262546157269875735e+00
2.860000000000000000e+02,9.271794796139371186e+00
2.870000000000000000e+02,9.280981940327794888e+00
2.880000000000000000e+02,9.290107936204602623e+00
2.890000000000000000e+02,9.299173667197754511e+00
2.900000000000000000e+02,9.308178522011910871e+00
2.910000000000000000e+02,9.317123240874266799e+00
2.920000000000000000e+02,9.326008018303868496e+00
2.930000000000000000e+02,9.334832777013003735e+00
2.940000000000000000e+02,9.343597438636821906e+00
2.950000000000000000e+02,9.352303128246431285e+00
2.960000000000000000e+02,9.360948957090531763e+00
2.970000000000000000e+02,9.369535908130288249e+00
2.980000000000000000e+02,9.378063890685186976e+00
2.990000000000000000e+02,9.386532680242829940e+00
3.000000000000000000e+02,9.394943378497442765e+00
3.010000000000000000e+02,9.403294959447633161e+00
3.020000000000000000e+02,9.411588517207327698e+00
3.030000000000000000e+02,9.419823685409109970e+00
3.040000000000000000e+02,9.428001020489862327e+00
3.050000000000000000e+02,9.436120153142393718e+00
3.060000000000000000e+02,9.444181633686635990e+00
3.070000000000000000e+02,9.452185745036778997e+00
3.080000000000000000e+02,9.460131589380964101e+00
3.090000000000000000e+02,9.468020754398189354e+00
3.100000000000000000e+02,9.475852208245136410e+00
3.110000000000000000e+02,9.483627006759892453e+00
3.120000000000000000e+02,9.491344378074666466e+00
3.130000000000000000e+02,9.499005110533632390e+00
3.140000000000000000e+02,9.506608949600334313e+00
3.150000000000000000e+02,9.514156028733472326e+00
3.160000000000000000e+02,9.521646608065468698e+00
3.170000000000000000e+02,9.529080686672156020e+00
3.180000000000000000e+02,9.536458648195367260e+00
3.190000000000000000e+02,9.543780101211414291e+00
3.200000000000000000e+02,9.551045425044870640e+00
3.210000000000000000e+02,9.558254610734495671e+00
3.220000000000000000e+02,9.565407775723889117e+00
3.230000000000000000e+02,9.572505035167056420e+00
3.240000000000000000e+02,9.579546884634764226e+00
3.250000000000000000e+02,9.586532668840531457e+00
3.260000000000000000e+02,9.593462752254993120e+00
3.270000000000000000e+02,9.600337495653450404e+00
3.280000000000000000e+02,9.607157256173397997e+00
3.290000000000000000e+02,9.613920867559906824e+00
3.300000000000000000e+02,9.620629824469688174e+00
3.310000000000000000e+02,9.627283211974152266e+00
3.320000000000000000e+02,9.633881506007256235e+00
3.330000000000000000e+02,9.640424800448913700e+00
3.340000000000000000e+02,9.646913061309392745e+00
3.350000000000000000e+02,9.653346630058774025e+00
3.360000000000000000e+02,9.659725342969846196e+00
3.370000000000000000e+02,9.666049286183209688e+00
3.380000000000000000e+02,9.672318794064993952e+00
3.390000000000000000e+02,9.678533697822931714e+00
3.400000000000000000e+02,9.684694202381280093e+00
3.410000000000000000e+02,9.690800385405701434e+00
3.420000000000000000e+02,9.696852198112727805e+00
3.430000000000000000e+02,9.702849839073499183e+00
3.440000000000000000e+02,9.708793752689215850e+00
3.450000000000000000e+02,9.714683511380719949e+00
3.460000000000000000e+02,9.720519183634685589e+00
3.470000000000000000e+02,9.726301454746977271e+00
3.480000000000000000e+02,9.732029769262339869e+00
3.490000000000000000e+02,9.737704930749556453e+00
3.500000000000000000e+02,9.743326504409916211e+00
3.510000000000000000e+02,9.748894548581205299e+00
3.520000000000000000e+02,9.754410104016717042e+00
3.530000000000000000e+02,9.759872116106318884e+00
3.540000000000000000e+02,9.765281251993425116e+00
3.550000000000000000e+02,9.770638051716208139e+00
3.560000000000000000e+02,9.775941826571328264e+00
3.570000000000000000e+02,9.781193112882434093e+00
3.580000000000000000e+02,9.786392198705325285e+00
3.590000000000000000e+02,9.791539247280027780e+00
3.600000000000000000e+02,9.796634297704356342e+00
3.610000000000000000e+02,9.801677631120368162e+00
3.620000000000000000e+02,9.806669282597257009e+00
3.630000000000000000e+02,9.811609528788798329e+00
3.640000000000000000e+02,9.816498400819348547e+00
3.650000000000000000e+02,9.821336535022297198e+00
3.660000000000000000e+02,9.826123957593845049e+00
3.670000000000000000e+02,9.830860572082579907e+00
3.680000000000000000e+02,9.835546765010223069e+00
3.690000000000000000e+02,9.840183282690052380e+00
3.700000000000000000e+02,9.844769538651936713e+00
3.710000000000000000e+02,9.849306395251536728e+00
3.720000000000000000e+02,9.853793745817744920e+00
3.730000000000000000e+02,9.858231723606431629e+00
3.740000000000000000e+02,9.862621422784032532e+00
3.750000000000000000e+02,9.866962369207710637e+00
3.760000000000000000e+02,9.871255050151001242e+00
3.770000000000000000e+02,9.875499829851010603e+00
3.780000000000000000e+02,9.879696950073459050e+00
3.790000000000000000e+02,9.883847009968713238e+00
3.800000000000000000e+02,9.887949767325096673e+00
3.810000000000000000e+02,9.892006056153020310e+00
3.820000000000000000e+02,9.896015630701938903e+00
3.830000000000000000e+02,9.899979558606364805e+00
3.840000000000000000e+02,9.903898186834350525e+00
3.850000000000000000e+02,9.907771144596305035e+00
3.860000000000000000e+02,9.911599490982942129e+00
3.870000000000000000e+02,9.915383209073644011e+00
3.880000000000000000e+02,9.919122637805690701e+00
3.890000000000000000e+02,9.922818946199090107e+00
3.900000000000000000e+02,9.926471516709890253e+00
3.910000000000000000e+02,9.930081275826838194e+00
3.920000000000000000e+02,9.933648553147142124e+00
3.930000000000000000e+02,9.937174150474596956e+00
3.940000000000000000e+02,9.940657800183560155e+00
3.950000000000000000e+02,9.944100418204570246e+00
3.960000000000000000e+02,9.947502443767355373e+00
3.970000000000000000e+02,9.950864195739539397e+00
3.980000000000000000e+02,9.954185873061145884e+00
