# Time [s], Thickness [m]
1.000000000000000000e+00,8.000000400000000303e-03
2.000000000000000000e+00,8.000000400000000303e-03
3.000000000000000000e+00,8.000000400000000303e-03
4.000000000000000000e+00,8.000000400000000303e-03
5.000000000000000000e+00,8.000000400000000303e-03
6.000000000000000000e+00,8.000000400000000303e-03
7.000000000000000000e+00,8.000000400000000303e-03
8.000000000000000000e+00,8.000000400000000303e-03
9.000000000000000000e+00,8.000000400000000303e-03
1.000000000000000000e+01,8.000000400000000303e-03
1.100000000000000000e+01,8.000000400000000303e-03
1.200000000000000000e+01,8.000000400000000303e-03
1.300000000000000000e+01,8.000000400000000303e-03
1.400000000000000000e+01,8.000000400000000303e-03
1.500000000000000000e+01,8.000000400000000303e-03
1.600000000000000000e+01,8.000000400000000303e-03
1.700000000000000000e+01,7.999999400000000829e-03
1.800000000000000000e+01,7.999999400000000829e-03
1.900000000000000000e+01,7.999999400000000829e-03
2.000000000000000000e+01,7.999999400000000829e-03
2.100000000000000000e+01,7.999998499999999221e-03
2.200000000000000000e+01,7.999996699999999475e-03
2.300000000000000000e+01,7.999994800000000128e-03
2.400000000000000000e+01,7.999991099999999300e-03
2.500000000000000000e+01,7.999984499999999651e-03
2.600000000000000000e+01,7.999974300000000510e-03
2.700000000000000000e+01,7.999959399999999332e-03
2.800000000000000000e+01,7.999937099999999968e-03
2.900000000000000000e+01,7.999906299999999873e-03
3.000000000000000000e+01,7.999863499999999156e-03
3.100000000000000000e+01,7.999806700000000603e-03
3.200000000000000000e+01,7.999732199999999918e-03
3.300000000000000000e+01,7.999636200000000141e-03
3.400000000000000000e+01,7.999514200000000172e-03
3.500000000000000000e+01,7.999361499999999708e-03
3.600000000000000000e+01,7.999171500000000837e-03
3.700000000000000000e+01,7.998938699999999513e-03
3.800000000000000000e+01,7.998656499999999558e-03
3.900000000000000000e+01,7.998317499999999317e-03
4.000000000000000000e+01,7.997912399999999519e-03
4.100000000000000000e+01,7.997435500000000391e-03
4.200000000000000000e+01,7.996876700000000657e-03
4.300000000000000000e+01,7.996228500000000794e-03
4.400000000000000000e+01,7.995483499999999147e-03
4.500000000000000000e+01,7.994633200000000189e-03
4.600000000000000000e+01,7.993670200000000531e-03
4.700000000000000000e+01,7.992588899999999996e-03
4.800000000000000000e+01,7.991382899999999873e-03
4.900000000000000000e+01,7.990048300000000131e-03
5.000000000000000000e+01,7.988581399999999944e-03
5.100000000000000000e+01,7.986981400000000772e-03
5.200000000000000000e+01,7.985244500000000453e-03
5.300000000000000000e+01,7.983373499999999942e-03
5.400000000000000000e+01,7.981368299999999638e-03
5.500000000000000000e+01,7.979230999999999824e-03
5.600000000000000000e+01,7.976965000000000791e-03
5.700000000000000000e+01,7.974575299999999908e-03
5.800000000000000000e+01,7.972064399999999329e-03
5.900000000000000000e+01,7.969439000000000037e-03
6.000000000000000000e+01,7.966704700000000472e-03
6.100000000000000000e+01,7.963866000000000001e-03
6.200000000000000000e+01,7.960928600000000133e-03
6.300000000000000000e+01,7.957899900000000790e-03
6.400000000000000000e+01,7.954785600000000012e-03
6.500000000000000000e+01,7.951590200000000636e-03
6.600000000000000000e+01,7.948321300000000048e-03
6.700000000000000000e+01,7.944983399999999349e-03
6.800000000000000000e+01,7.941581300000000176e-03
6.900000000000000000e+01,7.938121399999999508e-03
7.000000000000000000e+01,7.934608500000000716e-03
7.100000000000000000e+01,7.931046199999999824e-03
7.200000000000000000e+01,7.927441000000000348e-03
7.300000000000000000e+01,7.923794899999999503e-03
7.400000000000000000e+01,7.920110600000000375e-03
7.500000000000000000e+01,7.916396500000000627e-03
7.600000000000000000e+01,7.912651600000000784e-03
7.700000000000000000e+01,7.908879799999999141e-03
7.800000000000000000e+01,7.905085600000000268e-03
7.900000000000000000e+01,7.901270900000000041e-03
8.000000000000000000e+01,7.897436600000000070e-03
8.100000000000000000e+01,7.893587500000000257e-03
8.200000000000000000e+01,7.889723399999999665e-03
8.300000000000000000e+01,7.885845400000000838e-03
8.400000000000000000e+01,7.881957099999999800e-03
8.500000000000000000e+01,7.878059499999999493e-03
8.600000000000000000e+01,7.874151700000000045e-03
8.700000000000000000e+01,7.870236399999999341e-03
8.800000000000000000e+01,7.866313700000000450e-03
8.900000000000000000e+01,7.862382600000000429e-03
9.000000000000000000e+01,7.858445900000000234e-03
9.100000000000000000e+01,7.854501700000000516e-03
9.200000000000000000e+01,7.850550099999999143e-03
9.300000000000000000e+01,7.846591999999999456e-03
9.400000000000000000e+01,7.842626400000000247e-03
9.500000000000000000e+01,7.838652499999999509e-03
9.600000000000000000e+01,7.834669199999999903e-03
9.700000000000000000e+01,7.830678500000000375e-03
9.800000000000000000e+01,7.826677500000000370e-03
9.900000000000000000e+01,7.822666299999999490e-03
1.000000000000000000e+02,7.818644899999999467e-03
1.010000000000000000e+02,7.814613200000000703e-03
1.020000000000000000e+02,7.810570299999999855e-03
1.030000000000000000e+02,7.806516299999999992e-03
1.040000000000000000e+02,7.802451000000000178e-03
1.050000000000000000e+02,7.798374599999999615e-03
1.060000000000000000e+02,7.794287100000000038e-03
1.070000000000000000e+02,7.790188800000000247e-03
1.080000000000000000e+02,7.786079300000000106e-03
1.090000000000000000e+02,7.781959100000000219e-03
1.100000000000000000e+02,7.777827799999999583e-03
1.110000000000000000e+02,7.773686200000000206e-03
1.120000000000000000e+02,7.769534399999999952e-03
1.130000000000000000e+02,7.765372300000000089e-03
1.140000000000000000e+02,7.761199499999999613e-03
1.150000000000000000e+02,7.757016000000000258e-03
1.160000000000000000e+02,7.752822200000000427e-03
1.170000000000000000e+02,7.748616899999999710e-03
1.180000000000000000e+02,7.744400799999999647e-03
1.190000000000000000e+02,7.740173000000000365e-03
1.200000000000000000e+02,7.735933199999999593e-03
1.210000000000000000e+02,7.731680799999999729e-03
1.220000000000000000e+02,7.727415799999999904e-03
1.230000000000000000e+02,7.723137300000000247e-03
1.240000000000000000e+02,7.718844800000000152e-03
1.250000000000000000e+02,7.714538800000000224e-03
1.260000000000000000e+02,7.710217499999999849e-03
1.270000000000000000e+02,7.705881700000000167e-03
1.280000000000000000e+02,7.701530600000000039e-03
1.290000000000000000e+02,7.697164499999999999e-03
1.300000000000000000e+02,7.692782700000000244e-03
1.310000000000000000e+02,7.688384999999999837e-03
1.320000000000000000e+02,7.683971900000000251e-03
1.330000000000000000e+02,7.679543500000000217e-03
1.340000000000000000e+02,7.675098299999999658e-03
1.350000000000000000e+02,7.670637699999999920e-03
1.360000000000000000e+02,7.666161299999999998e-03
1.370000000000000000e+02,7.661668600000000155e-03
1.380000000000000000e+02,7.657160100000000129e-03
1.390000000000000000e+02,7.652634799999999578e-03
1.400000000000000000e+02,7.648093199999999973e-03
1.410000000000000000e+02,7.643534799999999844e-03
1.420000000000000000e+02,7.638959199999999922e-03
1.430000000000000000e+02,7.634366400000000205e-03
1.440000000000000000e+02,7.629755900000000091e-03
1.450000000000000000e+02,7.625127199999999841e-03
1.460000000000000000e+02,7.620479900000000188e-03
1.470000000000000000e+02,7.615813499999999660e-03
1.480000000000000000e+02,7.611127599999999854e-03
1.490000000000000000e+02,7.606422100000000304e-03
1.500000000000000000e+02,7.601696500000000405e-03
1.510000000000000000e+02,7.596950499999999620e-03
1.520000000000000000e+02,7.592183500000000348e-03
1.530000000000000000e+02,7.587395099999999851e-03
1.540000000000000000e+02,7.582585799999999598e-03
1.550000000000000000e+02,7.577755000000000254e-03
1.560000000000000000e+02,7.572491199999999839e-03
1.570000000000000000e+02,7.567252499999999743e-03
1.580000000000000000e+02,7.562024999999999997e-03
1.590000000000000000e+02,7.556819400000000346e-03
1.600000000000000000e+02,7.551630499999999885e-03
1.610000000000000000e+02,7.546453699999999647e-03
1.620000000000000000e+02,7.541283499999999924e-03
1.630000000000000000e+02,7.536113700000000339e-03
1.640000000000000000e+02,7.530940699999999662e-03
1.650000000000000000e+02,7.525760200000000330e-03
1.660000000000000000e+02,7.520569000000000386e-03
1.670000000000000000e+02,7.515363899999999604e-03
1.680000000000000000e+02,7.510141900000000433e-03
1.690000000000000000e+02,7.504901399999999723e-03
1.700000000000000000e+02,7.499640299999999794e-03
1.710000000000000000e+02,7.494356899999999634e-03
1.720000000000000000e+02,7.489050300000000236e-03
1.730000000000000000e+02,7.483718000000000314e-03
1.740000000000000000e+02,7.478359199999999596e-03
1.750000000000000000e+02,7.472974200000000351e-03
1.760000000000000000e+02,7.467560899999999696e-03
1.770000000000000000e+02,7.462118799999999628e-03
1.780000000000000000e+02,7.456647700000000080e-03
1.790000000000000000e+02,7.451146399999999774e-03
1.800000000000000000e+02,7.445614799999999978e-03
1.810000000000000000e+02,7.440051100000000077e-03
1.820000000000000000e+02,7.434456100000000345e-03
1.830000000000000000e+02,7.428828200000000236e-03
1.840000000000000000e+02,7.423166699999999944e-03
1.850000000000000000e+02,7.417471600000000338e-03
1.860000000000000000e+02,7.411741700000000141e-03
1.870000000000000000e+02,7.405976800000000151e-03
1.880000000000000000e+02,7.400175600000000360e-03
1.890000000000000000e+02,7.394337600000000163e-03
1.900000000000000000e+02,7.388462299999999823e-03
1.910000000000000000e+02,7.382549300000000071e-03
1.920000000000000000e+02,7.376597700000000167e-03
1.930000000000000000e+02,7.370606499999999769e-03
1.940000000000000000e+02,7.364575299999999609e-03
1.950000000000000000e+02,7.358504000000000086e-03
1.960000000000000000e+02,7.352391699999999593e-03
1.970000000000000000e+02,7.346237999999999727e-03
1.980000000000000000e+02,7.340042399999999884e-03
1.990000000000000000e+02,7.333804400000000327e-03
2.000000000000000000e+02,7.327523100000000317e-03
2.010000000000000000e+02,7.321198899999999989e-03
2.020000000000000000e+02,7.314830599999999801e-03
2.030000000000000000e+02,7.308417900000000085e-03
2.040000000000000000e+02,7.301961099999999642e-03
2.050000000000000000e+02,7.295458599999999662e-03
2.060000000000000000e+02,7.288910899999999880e-03
2.070000000000000000e+02,7.282317600000000161e-03
2.080000000000000000e+02,7.275678199999999901e-03
2.090000000000000000e+02,7.268992699999999967e-03
2.100000000000000000e+02,7.262260700000000221e-03
2.110000000000000000e+02,7.255482500000000334e-03
2.120000000000000000e+02,7.248657300000000032e-03
2.130000000000000000e+02,7.241785500000000320e-03
2.140000000000000000e+02,7.234867699999999666e-03
2.150000000000000000e+02,7.227903200000000000e-03
2.160000000000000000e+02,7.220892700000000261e-03
2.170000000000000000e+02,7.213836500000000117e-03
2.180000000000000000e+02,7.206735199999999772e-03
2.190000000000000000e+02,7.199588699999999626e-03
2.200000000000000000e+02,7.192398400000000157e-03
2.210000000000000000e+02,7.185164400000000097e-03
2.220000000000000000e+02,7.177888000000000324e-03
2.230000000000000000e+02,7.170569199999999969e-03
2.240000000000000000e+02,7.163209400000000379e-03
2.250000000000000000e+02,7.155809600000000159e-03
2.260000000000000000e+02,7.148058199999999737e-03
2.270000000000000000e+02,7.140324499999999713e-03
2.280000000000000000e+02,7.132596800000000001e-03
2.290000000000000000e+02,7.124867800000000279e-03
2.300000000000000000e+02,7.117133099999999914e-03
2.310000000000000000e+02,7.109389600000000017e-03
2.320000000000000000e+02,7.101634499999999635e-03
2.330000000000000000e+02,7.093866800000000160e-03
2.340000000000000000e+02,7.086085199999999848e-03
2.350000000000000000e+02,7.078290000000000103e-03
2.360000000000000000e+02,7.070480399999999784e-03
2.370000000000000000e+02,7.062657299999999631e-03
2.380000000000000000e+02,7.054820199999999909e-03
2.390000000000000000e+02,7.046970500000000227e-03
2.400000000000000000e+02,7.039108799999999923e-03
2.410000000000000000e+02,7.031235799999999668e-03
2.420000000000000000e+02,7.023353100000000009e-03
2.430000000000000000e+02,7.015461100000000214e-03
2.440000000000000000e+02,7.007562099999999766e-03
2.450000000000000000e+02,6.999657000000000275e-03
2.460000000000000000e+02,6.991746800000000345e-03
2.470000000000000000e+02,6.983833400000000191e-03
2.480000000000000000e+02,6.975918499999999960e-03
2.490000000000000000e+02,6.968003199999999592e-03
2.500000000000000000e+02,6.960088900000000432e-03
2.510000000000000000e+02,6.952177700000000161e-03
2.520000000000000000e+02,6.944270300000000319e-03
2.530000000000000000e+02,6.936368499999999784e-03
2.540000000000000000e+02,6.928473699999999902e-03
2.550000000000000000e+02,6.920587300000000282e-03
2.560000000000000000e+02,6.912710600000000066e-03
2.570000000000000000e+02,6.904845100000000201e-03
2.580000000000000000e+02,6.896992700000000032e-03
2.590000000000000000e+02,6.889153299999999959e-03
2.600000000000000000e+02,6.881329200000000333e-03
2.610000000000000000e+02,6.873521500000000228e-03
2.620000000000000000e+02,6.865730999999999917e-03
2.630000000000000000e+02,6.857958600000000141e-03
2.640000000000000000e+02,6.850205399999999972e-03
2.650000000000000000e+02,6.842473100000000426e-03
2.660000000000000000e+02,6.834762200000000371e-03
2.670000000000000000e+02,6.827074100000000284e-03
2.680000000000000000e+02,6.819408899999999767e-03
2.690000000000000000e+02,6.811768299999999832e-03
2.700000000000000000e+02,6.804152400000000080e-03
2.710000000000000000e+02,6.796562600000000121e-03
2.720000000000000000e+02,6.788999799999999828e-03
2.730000000000000000e+02,6.781464000000000068e-03
2.740000000000000000e+02,6.773956599999999585e-03
2.750000000000000000e+02,6.766478099999999850e-03
2.760000000000000000e+02,6.759028900000000131e-03
2.770000000000000000e+02,6.751610400000000040e-03
2.780000000000000000e+02,6.744222200000000306e-03
2.790000000000000000e+02,6.736865699999999672e-03
2.800000000000000000e+02,6.729541300000000011e-03
2.810000000000000000e+02,6.722066999999999973e-03
2.820000000000000000e+02,6.714650400000000095e-03
2.830000000000000000e+02,6.707286899999999677e-03
2.840000000000000000e+02,6.699974200000000102e-03
2.850000000000000000e+02,6.692710800000000425e-03
2.860000000000000000e+02,6.685495399999999769e-03
2.870000000000000000e+02,6.678326499999999791e-03
2.880000000000000000e+02,6.671204200000000091e-03
2.890000000000000000e+02,6.664127100000000192e-03
2.900000000000000000e+02,6.657094700000000358e-03
2.910000000000000000e+02,6.650107399999999856e-03
2.920000000000000000e+02,6.643164899999999887e-03
2.930000000000000000e+02,6.636266600000000244e-03
2.940000000000000000e+02,6.629412999999999799e-03
2.950000000000000000e+02,6.622604100000000285e-03
2.960000000000000000e+02,6.615839899999999968e-03
2.970000000000000000e+02,6.609120900000000319e-03
2.980000000000000000e+02,6.602446500000000267e-03
2.990000000000000000e+02,6.595818300000000356e-03
3.000000000000000000e+02,6.589235300000000246e-03
3.010000000000000000e+02,6.582698799999999947e-03
3.020000000000000000e+02,6.576209300000000063e-03
3.030000000000000000e+02,6.569766900000000194e-03
3.040000000000000000e+02,6.563371999999999609e-03
3.050000000000000000e+02,6.557025900000000053e-03
3.060000000000000000e+02,6.550728300000000122e-03
3.070000000000000000e+02,6.544480600000000294e-03
3.080000000000000000e+02,6.538283100000000236e-03
3.090000000000000000e+02,6.532136800000000292e-03
3.100000000000000000e+02,6.526042200000000196e-03
3.110000000000000000e+02,6.520000300000000290e-03
3.120000000000000000e+02,6.514012300000000116e-03
3.130000000000000000e+02,6.508078900000000347e-03
3.140000000000000000e+02,6.502200799999999919e-03
3.150000000000000000e+02,6.496379600000000247e-03
3.160000000000000000e+02,6.490615699999999731e-03
3.170000000000000000e+02,6.484910400000000116e-03
3.180000000000000000e+02,6.479265199999999746e-03
3.190000000000000000e+02,6.473681000000000227e-03
3.200000000000000000e+02,6.468159599999999572e-03
3.210000000000000000e+02,6.462701599999999720e-03
3.220000000000000000e+02,6.457308800000000418e-03
3.230000000000000000e+02,6.451982999999999677e-03
3.240000000000000000e+02,6.446724800000000304e-03
3.250000000000000000e+02,6.441536399999999579e-03
3.260000000000000000e+02,6.436419199999999716e-03
3.270000000000000000e+02,6.431374699999999923e-03
3.280000000000000000e+02,6.426405199999999686e-03
3.290000000000000000e+02,6.421511999999999880e-03
3.300000000000000000e+02,6.416697100000000320e-03
3.310000000000000000e+02,6.411962700000000022e-03
3.320000000000000000e+02,6.407310700000000067e-03
3.330000000000000000e+02,6.402742999999999803e-03
3.340000000000000000e+02,6.398262499999999783e-03
3.350000000000000000e+02,6.393870299999999951e-03
3.360000000000000000e+02,6.389569000000000325e-03
3.370000000000000000e+02,6.385361800000000261e-03
3.380000000000000000e+02,6.381250500000000374e-03
3.390000000000000000e+02,6.377237400000000146e-03
3.400000000000000000e+02,6.373325400000000134e-03
3.410000000000000000e+02,6.369517199999999955e-03
3.420000000000000000e+02,6.365815200000000430e-03
3.430000000000000000e+02,6.362222100000000310e-03
3.440000000000000000e+02,6.358740899999999752e-03
3.450000000000000000e+02,6.355373699999999904e-03
3.460000000000000000e+02,6.352123799999999723e-03
3.470000000000000000e+02,6.348994099999999766e-03
3.480000000000000000e+02,6.345986399999999777e-03
3.490000000000000000e+02,6.343103899999999983e-03
3.500000000000000000e+02,6.340348600000000195e-03
3.510000000000000000e+02,6.337722799999999899e-03
3.520000000000000000e+02,6.335228699999999845e-03
3.530000000000000000e+02,6.332867800000000109e-03
3.540000000000000000e+02,6.330641500000000303e-03
3.550000000000000000e+02,6.328551099999999568e-03
3.560000000000000000e+02,6.326597199999999845e-03
3.570000000000000000e+02,6.324779699999999796e-03
3.580000000000000000e+02,6.323097700000000418e-03
3.590000000000000000e+02,6.321550799999999838e-03
3.600000000000000000e+02,6.320136100000000104e-03
3.610000000000000000e+02,6.318851799999999734e-03
3.620000000000000000e+02,6.317693699999999898e-03
3.630000000000000000e+02,6.316657199999999896e-03
3.640000000000000000e+02,6.315738000000000428e-03
3.650000000000000000e+02,6.314921200000000318e-03
3.660000000000000000e+02,6.314211099999999730e-03
3.670000000000000000e+02,6.313600100000000409e-03
3.680000000000000000e+02,6.313079000000000086e-03
3.690000000000000000e+02,6.312639899999999971e-03
3.700000000000000000e+02,6.312273400000000326e-03
3.710000000000000000e+02,6.311971199999999622e-03
3.720000000000000000e+02,6.311724399999999596e-03
3.730000000000000000e+02,6.311525099999999722e-03
3.740000000000000000e+02,6.311366300000000214e-03
3.750000000000000000e+02,6.311241100000000021e-03
3.760000000000000000e+02,6.311143299999999630e-03
3.770000000000000000e+02,6.311067800000000338e-03
3.780000000000000000e+02,6.311010100000000178e-03
3.790000000000000000e+02,6.310966299999999987e-03
3.800000000000000000e+02,6.310933300000000010e-03
3.810000000000000000e+02,6.310909100000000431e-03
3.820000000000000000e+02,6.310890900000000296e-03
3.830000000000000000e+02,6.310877900000000200e-03
3.840000000000000000e+02,6.310868100000000327e-03
3.850000000000000000e+02,6.310861099999999675e-03
3.860000000000000000e+02,6.310856000000000104e-03
3.870000000000000000e+02,6.310852199999999676e-03
3.880000000000000000e+02,6.310849900000000193e-03
3.890000000000000000e+02,6.310848099999999579e-03
3.900000000000000000e+02,6.310846699999999969e-03
3.910000000000000000e+02,6.310845699999999628e-03
3.920000000000000000e+02,6.310845300000000359e-03
3.930000000000000000e+02,6.310844799999999755e-03
3.940000000000000000e+02,6.310844300000000018e-03
3.950000000000000000e+02,6.310843899999999881e-03
3.960000000000000000e+02,6.310843899999999881e-03
3.970000000000000000e+02,6.310843899999999881e-03
3.980000000000000000e+02,6.310843899999999881e-03
3.990000000000000000e+02,6.310843899999999881e-03
