# Time [s], Convective Heat Transfer Coefficient [W/m2K]
1.000000000000000000e+00,0.000000000000000000e+00
2.000000000000000000e+00,0.000000000000000000e+00
3.000000000000000000e+00,0.000000000000000000e+00
4.000000000000000000e+00,0.000000000000000000e+00
5.000000000000000000e+00,1.915079995362458862e-02
6.000000000000000000e+00,3.574028725257893252e-02
7.000000000000000000e+00,5.709554346458797780e-02
8.000000000000000000e+00,8.692088178610310467e-02
9.000000000000000000e+00,1.247628532880160901e-01
1.000000000000000000e+01,1.710469007155068499e-01
1.100000000000000000e+01,2.254495014215492088e-01
1.200000000000000000e+01,2.875029554267072851e-01
1.300000000000000000e+01,3.564103879879981229e-01
1.400000000000000000e+01,4.312316153618863668e-01
1.500000000000000000e+01,5.111054176860090337e-01
1.600000000000000000e+01,5.951259918772205948e-01
1.700000000000000000e+01,6.825004846010007675e-01
1.800000000000000000e+01,7.725024269145936984e-01
1.900000000000000000e+01,8.645058032859223029e-01
2.000000000000000000e+01,9.579585790730397177e-01
2.100000000000000000e+01,1.052401648211031882e+00
2.200000000000000000e+01,1.147436539442152847e+00
2.300000000000000000e+01,1.242726323324461868e+00
2.400000000000000000e+01,1.337993754600943497e+00
2.500000000000000000e+01,1.433007906134921683e+00
2.600000000000000000e+01,1.527568835119093693e+00
2.700000000000000000e+01,1.621518727063963494e+00
2.800000000000000000e+01,1.714730751399810904e+00
2.900000000000000000e+01,1.807094595773664825e+00
3.000000000000000000e+01,1.898517593573351370e+00
3.100000000000000000e+01,1.988936456255227414e+00
3.200000000000000000e+01,2.078297882957674148e+00
3.300000000000000000e+01,2.166557610823402147e+00
3.400000000000000000e+01,2.253685187144295554e+00
3.500000000000000000e+01,2.339653050295833925e+00
3.600000000000000000e+01,2.424452801004105318e+00
3.700000000000000000e+01,2.508072392155901831e+00
3.800000000000000000e+01,2.590506977666151123e+00
3.900000000000000000e+01,2.671755743123437110e+00
4.000000000000000000e+01,2.751824047768923087e+00
4.100000000000000000e+01,2.830721160951615190e+00
4.200000000000000000e+01,2.908457550928690960e+00
4.300000000000000000e+01,2.985041004921235697e+00
4.400000000000000000e+01,3.060489636011148651e+00
4.500000000000000000e+01,3.134812796657499678e+00
4.600000000000000000e+01,3.208032146327041811e+00
4.700000000000000000e+01,3.280159966055137932e+00
4.800000000000000000e+01,3.351217392132161965e+00
4.900000000000000000e+01,3.421221668572678176e+00
5.000000000000000000e+01,3.490190887000948372e+00
5.100000000000000000e+01,3.558140834233749050e+00
5.200000000000000000e+01,3.625093766325848677e+00
5.300000000000000000e+01,3.691066516700479916e+00
5.400000000000000000e+01,3.756078477147431816e+00
5.500000000000000000e+01,3.820149100677733500e+00
5.600000000000000000e+01,3.883296825431244326e+00
5.700000000000000000e+01,3.945539487857747663e+00
5.800000000000000000e+01,4.006894304809294205e+00
5.900000000000000000e+01,4.067379706113020355e+00
6.000000000000000000e+01,4.127014109339340209e+00
6.100000000000000000e+01,4.185813636137940996e+00
6.200000000000000000e+01,4.243798135973428032e+00
6.300000000000000000e+01,4.300981199304301228e+00
6.400000000000000000e+01,4.357378425469300431e+00
6.500000000000000000e+01,4.413007598031184031e+00
6.600000000000000000e+01,4.467885554942916393e+00
6.700000000000000000e+01,4.522024422625434248e+00
6.800000000000000000e+01,4.575441462148036820e+00
6.900000000000000000e+01,4.628152057058579238e+00
7.000000000000000000e+01,4.680167698684077671e+00
7.100000000000000000e+01,4.731505789679470553e+00
7.200000000000000000e+01,4.782175940988900642e+00
7.300000000000000000e+01,4.832195391087232395e+00
7.400000000000000000e+01,4.881574607831744572e+00
7.500000000000000000e+01,4.930327857845513861e+00
7.600000000000000000e+01,4.978466540738968327e+00
7.700000000000000000e+01,5.026003336890272344e+00
7.800000000000000000e+01,5.072949254646298201e+00
7.900000000000000000e+01,5.119317342076602273e+00
8.000000000000000000e+01,5.165116308183383076e+00
8.100000000000000000e+01,5.210359943738423816e+00
8.200000000000000000e+01,5.255057312119626900e+00
8.300000000000000000e+01,5.299218470708954243e+00
8.400000000000000000e+01,5.342854914663743848e+00
8.500000000000000000e+01,5.385974693579561823e+00
8.600000000000000000e+01,5.428590063996979076e+00
8.700000000000000000e+01,5.470709611366672220e+00
8.800000000000000000e+01,5.512340603243555570e+00
8.900000000000000000e+01,5.553493674355573617e+00
9.000000000000000000e+01,5.594178687372905578e+00
9.100000000000000000e+01,5.634402499159793187e+00
9.200000000000000000e+01,5.674172113292110353e+00
9.300000000000000000e+01,5.713498359784908054e+00
9.400000000000000000e+01,5.752389337057932650e+00
9.500000000000000000e+01,5.790850941226142190e+00
9.600000000000000000e+01,5.828891383182999597e+00
9.700000000000000000e+01,5.866518724980447352e+00
9.800000000000000000e+01,5.903740216368305482e+00
9.900000000000000000e+01,5.940561216291625257e+00
1.000000000000000000e+02,5.976990352914577365e+00
1.010000000000000000e+02,6.013034081481279713e+00
1.020000000000000000e+02,6.048698891902476227e+00
1.030000000000000000e+02,6.083990515313102421e+00
1.040000000000000000e+02,6.118916467879658150e+00
1.050000000000000000e+02,6.153482642114928680e+00
1.060000000000000000e+02,6.187694650233755311e+00
1.070000000000000000e+02,6.221558776487357001e+00
1.080000000000000000e+02,6.255078978908508169e+00
1.090000000000000000e+02,6.288262903009615989e+00
1.100000000000000000e+02,6.321115683831112442e+00
1.110000000000000000e+02,6.353642423959152019e+00
1.120000000000000000e+02,6.385848453400579494e+00
1.130000000000000000e+02,6.417737897218065868e+00
1.140000000000000000e+02,6.449317308825807338e+00
1.150000000000000000e+02,6.480591288258469973e+00
1.160000000000000000e+02,6.511564922486587470e+00
1.170000000000000000e+02,6.542242012336372703e+00
1.180000000000000000e+02,6.572626758058796703e+00
1.190000000000000000e+02,6.602724815090504684e+00
1.200000000000000000e+02,6.632540567882115212e+00
1.210000000000000000e+02,6.662078241938743872e+00
1.220000000000000000e+02,6.691340603843885404e+00
1.230000000000000000e+02,6.720333171501038372e+00
1.240000000000000000e+02,6.749060242108647856e+00
1.250000000000000000e+02,6.777525708775642421e+00
1.260000000000000000e+02,6.805733077703957079e+00
1.270000000000000000e+02,6.833685484326225357e+00
1.280000000000000000e+02,6.861387946306655827e+00
1.290000000000000000e+02,6.888843835407701732e+00
1.300000000000000000e+02,6.916056656139338621e+00
1.310000000000000000e+02,6.943029069547168142e+00
1.320000000000000000e+02,6.969765094642737857e+00
1.330000000000000000e+02,6.996268383052084872e+00
1.340000000000000000e+02,7.022542470701353956e+00
1.350000000000000000e+02,7.048589368871996719e+00
1.360000000000000000e+02,7.074413362602886224e+00
1.370000000000000000e+02,7.100017445553906903e+00
1.380000000000000000e+02,7.125404980642933594e+00
1.390000000000000000e+02,7.150577397968056914e+00
1.400000000000000000e+02,7.175539264162956954e+00
1.410000000000000000e+02,7.200292981361832823e+00
1.420000000000000000e+02,7.224841776909888047e+00
1.430000000000000000e+02,7.249187002809486025e+00
1.440000000000000000e+02,7.273333066517523093e+00
1.450000000000000000e+02,7.297282054796432327e+00
1.460000000000000000e+02,7.321035775419828084e+00
1.470000000000000000e+02,7.344597719319343021e+00
1.480000000000000000e+02,7.367970635398111590e+00
1.490000000000000000e+02,7.391155911532308664e+00
1.500000000000000000e+02,7.414155959608947022e+00
1.510000000000000000e+02,7.436974607439733376e+00
1.520000000000000000e+02,7.459613059191426920e+00
1.530000000000000000e+02,7.482073320439591058e+00
1.540000000000000000e+02,7.504359005832818674e+00
1.550000000000000000e+02,7.526471572470320837e+00
1.560000000000000000e+02,7.548412232209254391e+00
1.570000000000000000e+02,7.570184614235210496e+00
1.580000000000000000e+02,7.591790024953627203e+00
1.590000000000000000e+02,7.613229937542400627e+00
1.600000000000000000e+02,7.634507594069181557e+00
1.610000000000000000e+02,7.655624361687744184e+00
1.620000000000000000e+02,7.676581770760722456e+00
1.630000000000000000e+02,7.697382695967008637e+00
1.640000000000000000e+02,7.718027979760432977e+00
1.650000000000000000e+02,7.738520396116313371e+00
1.660000000000000000e+02,7.758861294238259099e+00
1.670000000000000000e+02,7.779051796614810499e+00
1.680000000000000000e+02,7.799094921910633360e+00
1.690000000000000000e+02,7.818991132949703271e+00
1.700000000000000000e+02,7.838743164290847609e+00
1.710000000000000000e+02,7.858351984761503317e+00
1.720000000000000000e+02,7.877818916354024203e+00
1.730000000000000000e+02,7.897145813332098641e+00
1.740000000000000000e+02,7.916334302294762537e+00
1.750000000000000000e+02,7.935386159678651019e+00
1.760000000000000000e+02,7.954302383325138948e+00
1.770000000000000000e+02,7.973085236613435711e+00
1.780000000000000000e+02,7.991735653030990427e+00
1.790000000000000000e+02,8.010255091613165845e+00
1.800000000000000000e+02,8.028644798557374784e+00
1.810000000000000000e+02,8.046906173778237914e+00
1.820000000000000000e+02,8.065040587612413603e+00
1.830000000000000000e+02,8.083049202469529959e+00
1.840000000000000000e+02,8.100933334327194757e+00
1.850000000000000000e+02,8.118694271891209624e+00
1.860000000000000000e+02,8.136333984646668682e+00
1.870000000000000000e+02,8.153852467349036459e+00
1.880000000000000000e+02,8.171251989996379805e+00
1.890000000000000000e+02,8.188532859803437702e+00
1.900000000000000000e+02,8.205696591881746826e+00
1.910000000000000000e+02,8.222744845389138746e+00
1.920000000000000000e+02,8.239678041399715269e+00
1.930000000000000000e+02,8.256497448944129403e+00
1.940000000000000000e+02,8.273203799679734516e+00
1.950000000000000000e+02,8.289798831860698769e+00
1.960000000000000000e+02,8.306283234430033247e+00
1.970000000000000000e+02,8.322658695872624079e+00
1.980000000000000000e+02,8.338924686302510381e+00
1.990000000000000000e+02,8.355083195877291757e+00
2.000000000000000000e+02,8.371981691062501341e+00
2.010000000000000000e+02,8.388228332450829328e+00
2.020000000000000000e+02,8.404232463938283715e+00
2.030000000000000000e+02,8.420088860692787947e+00
2.040000000000000000e+02,8.435812725328874606e+00
2.050000000000000000e+02,8.451414929923698693e+00
2.060000000000000000e+02,8.466901282061375156e+00
2.070000000000000000e+02,8.482276360805396820e+00
2.080000000000000000e+02,8.497543377708613122e+00
2.090000000000000000e+02,8.512705171170770413e+00
2.100000000000000000e+02,8.527763086768315404e+00
2.110000000000000000e+02,8.542719730690521374e+00
2.120000000000000000e+02,8.557576870020467297e+00
2.130000000000000000e+02,8.572335766152802350e+00
2.140000000000000000e+02,8.586997501170230862e+00
2.150000000000000000e+02,8.601563772119019902e+00
2.160000000000000000e+02,8.616036092379758315e+00
2.170000000000000000e+02,8.630414537654463203e+00
2.180000000000000000e+02,8.644700589461287166e+00
2.190000000000000000e+02,8.658895082389586051e+00
2.200000000000000000e+02,8.672998526039577882e+00
2.210000000000000000e+02,8.687011420584219934e+00
2.220000000000000000e+02,8.700935339322960260e+00
2.230000000000000000e+02,8.714770907953271362e+00
2.240000000000000000e+02,8.728517973327607038e+00
2.250000000000000000e+02,8.742177453690869626e+00
2.260000000000000000e+02,8.755749795078031639e+00
2.270000000000000000e+02,8.769236196467522504e+00
2.280000000000000000e+02,8.782637687763392265e+00
2.290000000000000000e+02,8.795953316871109706e+00
2.300000000000000000e+02,8.809184101592455463e+00
2.310000000000000000e+02,8.822331044939119238e+00
2.320000000000000000e+02,8.835394535647631997e+00
2.330000000000000000e+02,8.848375553407159089e+00
2.340000000000000000e+02,8.861273573175727947e+00
2.350000000000000000e+02,8.874089559981461761e+00
2.360000000000000000e+02,8.886823575905946626e+00
2.370000000000000000e+02,8.899476271038111008e+00
2.380000000000000000e+02,8.912048433005976378e+00
2.390000000000000000e+02,8.924540250247611439e+00
2.400000000000000000e+02,8.936952786057856812e+00
2.410000000000000000e+02,8.949285627953821987e+00
2.420000000000000000e+02,8.961539677436276108e+00
2.430000000000000000e+02,8.973715242320936980e+00
2.440000000000000000e+02,8.985812479748028991e+00
2.450000000000000000e+02,8.997832121150629803e+00
2.460000000000000000e+02,9.009774310998320601e+00
2.470000000000000000e+02,9.021639477542805707e+00
2.480000000000000000e+02,9.033428042207944486e+00
2.490000000000000000e+02,9.045140562790153993e+00
2.500000000000000000e+02,9.056777303601144524e+00
2.510000000000000000e+02,9.068338523954807329e+00
2.520000000000000000e+02,9.079824762219299572e+00
2.530000000000000000e+02,9.091236407428988642e+00
2.540000000000000000e+02,9.102573418630758084e+00
2.550000000000000000e+02,9.113836316741055654e+00
2.560000000000000000e+02,9.125025474703775785e+00
2.570000000000000000e+02,9.136141259579453333e+00
2.580000000000000000e+02,9.147184032643192353e+00
2.590000000000000000e+02,9.158153870339289071e+00
2.600000000000000000e+02,9.169051403123932076e+00
2.610000000000000000e+02,9.179876697639315353e+00
2.620000000000000000e+02,9.190630233468610299e+00
2.630000000000000000e+02,9.201312345276450699e+00
2.640000000000000000e+02,9.211922810681199891e+00
2.650000000000000000e+02,9.222462645841547513e+00
2.660000000000000000e+02,9.232931619633887976e+00
2.670000000000000000e+02,9.243330459947928901e+00
2.680000000000000000e+02,9.253658655670530919e+00
2.690000000000000000e+02,9.263917198508623940e+00
2.700000000000000000e+02,9.274106524871694290e+00
2.710000000000000000e+02,9.284226793639474451e+00
2.720000000000000000e+02,9.294277753686898791e+00
2.730000000000000000e+02,9.304259830055793046e+00
2.740000000000000000e+02,9.314173711912641096e+00
2.750000000000000000e+02,9.324018868658299652e+00
2.760000000000000000e+02,9.333796250109337223e+00
2.770000000000000000e+02,9.343506125633442849e+00
2.780000000000000000e+02,9.353148492696666594e+00
2.790000000000000000e+02,9.362723747350896630e+00
2.800000000000000000e+02,9.372231880573441032e+00
2.810000000000000000e+02,9.381673147370888088e+00
2.820000000000000000e+02,9.391047798661602997e+00
2.830000000000000000e+02,9.400356081332903457e+00
2.840000000000000000e+02,9.409598238296966954e+00
2.850000000000000000e+02,9.418774376592111253e+00
2.860000000000000000e+02,9.427885258902069410e+00
2.870000000000000000e+02,9.436930851366051698e+00
2.880000000000000000e+02,9.445910724815162141e+00
2.890000000000000000e+02,9.454826022717163880e+00
2.900000000000000000e+02,9.463676178805725314e+00
2.910000000000000000e+02,9.472461672754674211e+00
2.920000000000000000e+02,9.481182848483566517e+00
2.930000000000000000e+02,9.489839525486509331e+00
2.940000000000000000e+02,9.498432690346197305e+00
2.950000000000000000e+02,9.506961507349240392e+00
2.960000000000000000e+02,9.515426696242716531e+00
2.970000000000000000e+02,9.523828324415186231e+00
2.980000000000000000e+02,9.532166843335881268e+00
2.990000000000000000e+02,9.540442442174708049e+00
3.000000000000000000e+02,9.548654793322617351e+00
3.010000000000000000e+02,9.556804594839803713e+00
3.020000000000000000e+02,9.564891258590256129e+00
3.030000000000000000e+02,9.572915859069588862e+00
3.040000000000000000e+02,9.580878058889883420e+00
3.050000000000000000e+02,9.588778539525367961e+00
3.060000000000000000e+02,9.596616704999268777e+00
3.070000000000000000e+02,9.604393230338510890e+00
3.080000000000000000e+02,9.612107770721218358e+00
3.090000000000000000e+02,9.619761246604879190e+00
3.100000000000000000e+02,9.627352928854612912e+00
3.110000000000000000e+02,9.634883730338733798e+00
3.120000000000000000e+02,9.642353549113195754e+00
3.130000000000000000e+02,9.649762407712074719e+00
3.140000000000000000e+02,9.657110452180214466e+00
3.150000000000000000e+02,9.664398076467412224e+00
3.160000000000000000e+02,9.671624919431248912e+00
3.170000000000000000e+02,9.678791869804832970e+00
3.180000000000000000e+02,9.685898436692673030e+00
3.190000000000000000e+02,9.692945002385446429e+00
3.200000000000000000e+02,9.699931323031243835e+00
3.210000000000000000e+02,9.706858645171880795e+00
3.220000000000000000e+02,9.713725725199228833e+00
3.230000000000000000e+02,9.720533554665907516e+00
3.240000000000000000e+02,9.727282128015948715e+00
3.250000000000000000e+02,9.733971437907742441e+00
3.260000000000000000e+02,9.740601598596127175e+00
3.270000000000000000e+02,9.747173461163477270e+00
3.280000000000000000e+02,9.753686147661518646e+00
3.290000000000000000e+02,9.760139888974103783e+00
3.300000000000000000e+02,9.766535772006472271e+00
3.310000000000000000e+02,9.772873037733894819e+00
3.320000000000000000e+02,9.779152153344845999e+00
3.330000000000000000e+02,9.785373459589120415e+00
3.340000000000000000e+02,9.791537049520488978e+00
3.350000000000000000e+02,9.797642526179464184e+00
3.360000000000000000e+02,9.803690710752460902e+00
3.370000000000000000e+02,9.809681323801230590e+00
3.380000000000000000e+02,9.815614814490038142e+00
3.390000000000000000e+02,9.821491264003670452e+00
3.400000000000000000e+02,9.827310387768687150e+00
3.410000000000000000e+02,9.833073474694327132e+00
3.420000000000000000e+02,9.838779629243298075e+00
3.430000000000000000e+02,9.844429770144753178e+00
3.440000000000000000e+02,9.850023241732579038e+00
3.450000000000000000e+02,9.855560835796859820e+00
3.460000000000000000e+02,9.861042616576723319e+00
3.470000000000000000e+02,9.866468766591488304e+00
3.480000000000000000e+02,9.871839826237847504e+00
3.490000000000000000e+02,9.877155251996351026e+00
3.500000000000000000e+02,9.882415939363873747e+00
3.510000000000000000e+02,9.887621341545958842e+00
3.520000000000000000e+02,9.892772347733405525e+00
3.530000000000000000e+02,9.897869124855141365e+00
3.540000000000000000e+02,9.902911479443584852e+00
3.550000000000000000e+02,9.907900290421592260e+00
3.560000000000000000e+02,9.912835002053288491e+00
3.570000000000000000e+02,9.917716606358130349e+00
3.580000000000000000e+02,9.922544663146707578e+00
3.590000000000000000e+02,9.927319801397848309e+00
3.600000000000000000e+02,9.932042290115377980e+00
3.610000000000000000e+02,9.936712514303879473e+00
3.620000000000000000e+02,9.941330619115111844e+00
3.630000000000000000e+02,9.945896392646389472e+00
3.640000000000000000e+02,9.950411041020013059e+00
3.650000000000000000e+02,9.954874110779936558e+00
3.660000000000000000e+02,9.959286210802018147e+00
3.670000000000000000e+02,9.963647710520790568e+00
3.680000000000000000e+02,9.967959094463044067e+00
3.690000000000000000e+02,9.972220255508476683e+00
3.700000000000000000e+02,9.976431203114229262e+00
3.710000000000000000e+02,9.980592767911172558e+00
3.720000000000000000e+02,9.984705658967117259e+00
3.730000000000000000e+02,9.988769291120593863e+00
3.740000000000000000e+02,9.992784955437169714e+00
3.750000000000000000e+02,9.996752649026378279e+00
3.760000000000000000e+02,1.000067225067462218e+01
3.770000000000000000e+02,1.000454445693160999e+01
3.780000000000000000e+02,1.000836984405550290e+01
3.790000000000000000e+02,1.001214875175128505e+01
3.800000000000000000e+02,1.001588151748025979e+01
3.810000000000000000e+02,1.001956870970321312e+01
3.820000000000000000e+02,1.002320984536264881e+01
3.830000000000000000e+02,1.002680630458100453e+01
3.840000000000000000e+02,1.003035841520194715e+01
3.850000000000000000e+02,1.003386603794218424e+01
3.860000000000000000e+02,1.003732984613200685e+01
3.870000000000000000e+02,1.004075039403789305e+01
3.880000000000000000e+02,1.004412834938541899e+01
3.890000000000000000e+02,1.004746356537166285e+01
3.900000000000000000e+02,1.005075635807690837e+01
3.910000000000000000e+02,1.005400808398453449e+01
3.920000000000000000e+02,1.005721859057900325e+01
3.930000000000000000e+02,1.006038841872974032e+01
3.940000000000000000e+02,1.006351787582396184e+01
3.950000000000000000e+02,1.006660772962171713e+01
3.960000000000000000e+02,1.006965828331349222e+01
3.970000000000000000e+02,1.007271333552347770e+01
3.980000000000000000e+02,1.007570842091519481e+01
