# Time [s], Convective Heat Transfer Coefficient [W/m2K]
1.000000000000000000e+00,0.000000000000000000e+00
2.000000000000000000e+00,0.000000000000000000e+00
3.000000000000000000e+00,0.000000000000000000e+00
4.000000000000000000e+00,0.000000000000000000e+00
5.000000000000000000e+00,1.915079995362458862e-02
6.000000000000000000e+00,3.040000000141642594e-02
7.000000000000000000e+00,4.924209937913938406e-02
8.000000000000000000e+00,7.579679047393958480e-02
9.000000000000000000e+00,1.093178884917200416e-01
1.000000000000000000e+01,1.506194999284410918e-01
1.100000000000000000e+01,1.994709859544200325e-01
1.200000000000000000e+01,2.555997521555283258e-01
1.300000000000000000e+01,3.182435466130169033e-01
1.400000000000000000e+01,3.867458829269753151e-01
1.500000000000000000e+01,4.602445169584080675e-01
1.600000000000000000e+01,5.379673191224277895e-01
1.700000000000000000e+01,6.191774226311346219e-01
1.800000000000000000e+01,7.031902908290142973e-01
1.900000000000000000e+01,7.894112883908621647e-01
2.000000000000000000e+01,8.773107547724756650e-01
2.100000000000000000e+01,9.664287407574517763e-01
2.200000000000000000e+01,1.056374431346372988e+00
2.300000000000000000e+01,1.146819169731694288e+00
2.400000000000000000e+01,1.237468734356828692e+00
2.500000000000000000e+01,1.328087469343904203e+00
2.600000000000000000e+01,1.418474098578777154e+00
2.700000000000000000e+01,1.508458885298277652e+00
2.800000000000000000e+01,1.597900779934798399e+00
2.900000000000000000e+01,1.686684169881390805e+00
3.000000000000000000e+01,1.774709584882680602e+00
3.100000000000000000e+01,1.861901869047477787e+00
3.200000000000000000e+01,1.948197279914634761e+00
3.300000000000000000e+01,2.033541071927033705e+00
3.400000000000000000e+01,2.117897626534992472e+00
3.500000000000000000e+01,2.201235350815835101e+00
3.600000000000000000e+01,2.283529714977875269e+00
3.700000000000000000e+01,2.364764898985391550e+00
3.800000000000000000e+01,2.444929906214090565e+00
3.900000000000000000e+01,2.524020152410543449e+00
4.000000000000000000e+01,2.602033384110617131e+00
4.100000000000000000e+01,2.678971290874879951e+00
4.200000000000000000e+01,2.754840255184686004e+00
4.300000000000000000e+01,2.829647150863730420e+00
4.400000000000000000e+01,2.903395953623991943e+00
4.500000000000000000e+01,2.976101199684240139e+00
4.600000000000000000e+01,3.047777936265425147e+00
4.700000000000000000e+01,3.118433595199523900e+00
4.800000000000000000e+01,3.188083753455928537e+00
4.900000000000000000e+01,3.256744462256753625e+00
5.000000000000000000e+01,3.324431173702785625e+00
5.100000000000000000e+01,3.391156911104820537e+00
5.200000000000000000e+01,3.456941445664601265e+00
5.300000000000000000e+01,3.521797905730827960e+00
5.400000000000000000e+01,3.585742613957441982e+00
5.500000000000000000e+01,3.648793165496652779e+00
5.600000000000000000e+01,3.710966636923449080e+00
5.700000000000000000e+01,3.772277901208169304e+00
5.800000000000000000e+01,3.832741614331276025e+00
5.900000000000000000e+01,3.892376784378150489e+00
6.000000000000000000e+01,3.951198464664415599e+00
6.100000000000000000e+01,4.009222316250404816e+00
6.200000000000000000e+01,4.066463173951620824e+00
6.300000000000000000e+01,4.122936123653794915e+00
6.400000000000000000e+01,4.178656005157010966e+00
6.500000000000000000e+01,4.233637192033484986e+00
6.600000000000000000e+01,4.287894299856062297e+00
6.700000000000000000e+01,4.341443725279948929e+00
6.800000000000000000e+01,4.394297207983535181e+00
6.900000000000000000e+01,4.446467132450213633e+00
7.000000000000000000e+01,4.497967519121285562e+00
7.100000000000000000e+01,4.548811831024450747e+00
7.200000000000000000e+01,4.599015109436819237e+00
7.300000000000000000e+01,4.648586467982476655e+00
7.400000000000000000e+01,4.697538490861841609e+00
7.500000000000000000e+01,4.745884312068451294e+00
7.600000000000000000e+01,4.793636523141468153e+00
7.700000000000000000e+01,4.840803262630650750e+00
7.800000000000000000e+01,4.887397591605167513e+00
7.900000000000000000e+01,4.933431441547605267e+00
8.000000000000000000e+01,4.978913155171293958e+00
8.100000000000000000e+01,5.023855308543373255e+00
8.200000000000000000e+01,5.068265990488471040e+00
8.300000000000000000e+01,5.112155179894886103e+00
8.400000000000000000e+01,5.155533652736613348e+00
8.500000000000000000e+01,5.198409486662349366e+00
8.600000000000000000e+01,5.240793386247621477e+00
8.700000000000000000e+01,5.282693057170936513e+00
8.800000000000000000e+01,5.324118595709201429e+00
8.900000000000000000e+01,5.365077217427865364e+00
9.000000000000000000e+01,5.405578155357847692e+00
9.100000000000000000e+01,5.445628401837291577e+00
9.200000000000000000e+01,5.485237846335453860e+00
9.300000000000000000e+01,5.524412430985330857e+00
9.400000000000000000e+01,5.563161495548046176e+00
9.500000000000000000e+01,5.601490043016604581e+00
9.600000000000000000e+01,5.639407568106291180e+00
9.700000000000000000e+01,5.676920311640209604e+00
9.800000000000000000e+01,5.714033980095750920e+00
9.900000000000000000e+01,5.750757883377413116e+00
1.000000000000000000e+02,5.787096493015604359e+00
1.010000000000000000e+02,5.823057887368147334e+00
1.020000000000000000e+02,5.858646607586559973e+00
1.030000000000000000e+02,5.893870068614631919e+00
1.040000000000000000e+02,5.928734658894943443e+00
1.050000000000000000e+02,5.963244680166595479e+00
1.060000000000000000e+02,5.997407998087886938e+00
1.070000000000000000e+02,6.031228472136084484e+00
1.080000000000000000e+02,6.064712701134292949e+00
1.090000000000000000e+02,6.097866001230953792e+00
1.100000000000000000e+02,6.130692412280227543e+00
1.110000000000000000e+02,6.163198493582911830e+00
1.120000000000000000e+02,6.195388770309263826e+00
1.130000000000000000e+02,6.227267739617897035e+00
1.140000000000000000e+02,6.258841903755261171e+00
1.150000000000000000e+02,6.290114167286771085e+00
1.160000000000000000e+02,6.321090429781283326e+00
1.170000000000000000e+02,6.351775291578962701e+00
1.180000000000000000e+02,6.382171598838130677e+00
1.190000000000000000e+02,6.412285166413997928e+00
1.200000000000000000e+02,6.442120239886326871e+00
1.210000000000000000e+02,6.471680098884514898e+00
1.220000000000000000e+02,6.500970424468599518e+00
1.230000000000000000e+02,6.529994223523943653e+00
1.240000000000000000e+02,6.558754939991830568e+00
1.250000000000000000e+02,6.587257514912997713e+00
1.260000000000000000e+02,6.615504845505930653e+00
1.270000000000000000e+02,6.643501319727546317e+00
1.280000000000000000e+02,6.671250650122375170e+00
1.290000000000000000e+02,6.698755380296249839e+00
1.300000000000000000e+02,6.726020555120345357e+00
1.310000000000000000e+02,6.753049000296138082e+00
1.320000000000000000e+02,6.779842938746992509e+00
1.330000000000000000e+02,6.806407551714100279e+00
1.340000000000000000e+02,6.832744094922923672e+00
1.350000000000000000e+02,6.858857264853012836e+00
1.360000000000000000e+02,6.884749882944806387e+00
1.370000000000000000e+02,6.910424436765755907e+00
1.380000000000000000e+02,6.935885039133280472e+00
1.390000000000000000e+02,6.961133262632465346e+00
1.400000000000000000e+02,6.986172548392173276e+00
1.410000000000000000e+02,7.011006472821533109e+00
1.420000000000000000e+02,7.035636142038518948e+00
1.430000000000000000e+02,7.060066149011992032e+00
1.440000000000000000e+02,7.084297456851467167e+00
1.450000000000000000e+02,7.108334009050317981e+00
1.460000000000000000e+02,7.132177567002799812e+00
1.470000000000000000e+02,7.155830754601851140e+00
1.480000000000000000e+02,7.179296348784765414e+00
1.490000000000000000e+02,7.202576146659852796e+00
1.500000000000000000e+02,7.225674360277050567e+00
1.510000000000000000e+02,7.248591079475329657e+00
1.520000000000000000e+02,7.271329929065095676e+00
1.530000000000000000e+02,7.293893118501746820e+00
1.540000000000000000e+02,7.316281267081389927e+00
1.550000000000000000e+02,7.338498451709571491e+00
1.560000000000000000e+02,7.360546053405526479e+00
1.570000000000000000e+02,7.382426274475752059e+00
1.580000000000000000e+02,7.404140833316088077e+00
1.590000000000000000e+02,7.425692040168082819e+00
1.600000000000000000e+02,7.447081302761662691e+00
1.610000000000000000e+02,7.468311460886958741e+00
1.620000000000000000e+02,7.489383407073167298e+00
1.630000000000000000e+02,7.510300084394247122e+00
1.640000000000000000e+02,7.531062508486466633e+00
1.650000000000000000e+02,7.551673515403150461e+00
1.660000000000000000e+02,7.572133629272401301e+00
1.670000000000000000e+02,7.592445388995130884e+00
1.680000000000000000e+02,7.612609860912171733e+00
1.690000000000000000e+02,7.632629490890729507e+00
1.700000000000000000e+02,7.652504870255015135e+00
1.710000000000000000e+02,7.672239158893255251e+00
1.720000000000000000e+02,7.691831886301685017e+00
1.730000000000000000e+02,7.711286327385960426e+00
1.740000000000000000e+02,7.730602944761022499e+00
1.750000000000000000e+02,7.749784136629178199e+00
1.760000000000000000e+02,7.768830698142867419e+00
1.770000000000000000e+02,7.787744755843792888e+00
1.780000000000000000e+02,7.806526086059788483e+00
1.790000000000000000e+02,7.825177523935805901e+00
1.800000000000000000e+02,7.843700514901029486e+00
1.810000000000000000e+02,7.862095905120665584e+00
1.820000000000000000e+02,7.880365463551985528e+00
1.830000000000000000e+02,7.898509796796382432e+00
1.840000000000000000e+02,7.916530056815653360e+00
1.850000000000000000e+02,7.934428672405598348e+00
1.860000000000000000e+02,7.952205988777589774e+00
1.870000000000000000e+02,7.969863447009091217e+00
1.880000000000000000e+02,7.987401541630640978e+00
1.890000000000000000e+02,8.004822216294714465e+00
1.900000000000000000e+02,8.022126831645461920e+00
1.910000000000000000e+02,8.039315634673522837e+00
1.920000000000000000e+02,8.056390487776738496e+00
1.930000000000000000e+02,8.073351961231596263e+00
1.940000000000000000e+02,8.090200969986254265e+00
1.950000000000000000e+02,8.106939300900414480e+00
1.960000000000000000e+02,8.123567111608219093e+00
1.970000000000000000e+02,8.140085613766697037e+00
1.980000000000000000e+02,8.156496523944365862e+00
1.990000000000000000e+02,8.172799950645794453e+00
2.000000000000000000e+02,8.188996521047970489e+00
2.010000000000000000e+02,8.205088761794009145e+00
2.020000000000000000e+02,8.221076039272764646e+00
2.030000000000000000e+02,8.236959451831394219e+00
2.040000000000000000e+02,8.252740249625002633e+00
2.050000000000000000e+02,8.268420174306220005e+00
2.060000000000000000e+02,8.283998038324030588e+00
2.070000000000000000e+02,8.299475557855803487e+00
2.080000000000000000e+02,8.314854589812188834e+00
2.090000000000000000e+02,8.330134936430194870e+00
2.100000000000000000e+02,8.345317072194122332e+00
2.110000000000000000e+02,8.360401964143589382e+00
2.120000000000000000e+02,8.375391229962023232e+00
2.130000000000000000e+02,8.390284798530293742e+00
2.140000000000000000e+02,8.405083591058550851e+00
2.150000000000000000e+02,8.419787687351181660e+00
2.160000000000000000e+02,8.434398808731963015e+00
2.170000000000000000e+02,8.448917502053909345e+00
2.180000000000000000e+02,8.463343977060979739e+00
2.190000000000000000e+02,8.477678926495475054e+00
2.200000000000000000e+02,8.491923030997277522e+00
2.210000000000000000e+02,8.506076635784747708e+00
2.220000000000000000e+02,8.520141368804951654e+00
2.230000000000000000e+02,8.534117065913626732e+00
2.240000000000000000e+02,8.548004523680177158e+00
2.250000000000000000e+02,8.561804206322269906e+00
2.260000000000000000e+02,8.575516569453430549e+00
2.270000000000000000e+02,8.589142377597736910e+00
2.280000000000000000e+02,8.602682699358283003e+00
2.290000000000000000e+02,8.616136852869413332e+00
2.300000000000000000e+02,8.629506520073222831e+00
2.310000000000000000e+02,8.642791949192082157e+00
2.320000000000000000e+02,8.655993226658996065e+00
2.330000000000000000e+02,8.669111214132238175e+00
2.340000000000000000e+02,8.682146605075693913e+00
2.350000000000000000e+02,8.695099617687606752e+00
2.360000000000000000e+02,8.707970773857462987e+00
2.370000000000000000e+02,8.720760432946176977e+00
2.380000000000000000e+02,8.733469254613412502e+00
2.390000000000000000e+02,8.746097888439797075e+00
2.400000000000000000e+02,8.758646363758833431e+00
2.410000000000000000e+02,8.771115163646156176e+00
2.420000000000000000e+02,8.783505218496811651e+00
2.430000000000000000e+02,8.795816386741989845e+00
2.440000000000000000e+02,8.808049280462372010e+00
2.450000000000000000e+02,8.820204653077379220e+00
2.460000000000000000e+02,8.832282497112096564e+00
2.470000000000000000e+02,8.844283551115850628e+00
2.480000000000000000e+02,8.856207946347053550e+00
2.490000000000000000e+02,8.868056108062704723e+00
2.500000000000000000e+02,8.879828751614621041e+00
2.510000000000000000e+02,8.891525694134717384e+00
2.520000000000000000e+02,8.903147490805588760e+00
2.530000000000000000e+02,8.914694541469913247e+00
2.540000000000000000e+02,8.926167680353271905e+00
2.550000000000000000e+02,8.937566851651780553e+00
2.560000000000000000e+02,8.948892436444069176e+00
2.570000000000000000e+02,8.960145392985097601e+00
2.580000000000000000e+02,8.971325213326844406e+00
2.590000000000000000e+02,8.982432843234228415e+00
2.600000000000000000e+02,8.993468493337765324e+00
2.610000000000000000e+02,9.004432081309921898e+00
2.620000000000000000e+02,9.015324243604259991e+00
2.630000000000000000e+02,9.026145464715243705e+00
2.640000000000000000e+02,9.036896222387268196e+00
2.650000000000000000e+02,9.047576558727298490e+00
2.660000000000000000e+02,9.058186656018339278e+00
2.670000000000000000e+02,9.068727119750640497e+00
2.680000000000000000e+02,9.079197979687940290e+00
2.690000000000000000e+02,9.089600113346977039e+00
2.700000000000000000e+02,9.099933398654368233e+00
2.710000000000000000e+02,9.110198276775857806e+00
2.720000000000000000e+02,9.120394760690249569e+00
2.730000000000000000e+02,9.130523282473165025e+00
2.740000000000000000e+02,9.140584408456184917e+00
2.750000000000000000e+02,9.150578558194508716e+00
2.760000000000000000e+02,9.160505448114312443e+00
2.770000000000000000e+02,9.170365769492452301e+00
2.780000000000000000e+02,9.180159511185443932e+00
2.790000000000000000e+02,9.189887630428419385e+00
2.800000000000000000e+02,9.199549967894350644e+00
2.810000000000000000e+02,9.209146087598513830e+00
2.820000000000000000e+02,9.218677345881445717e+00
2.830000000000000000e+02,9.228143848815079764e+00
2.840000000000000000e+02,9.237545288158937495e+00
2.850000000000000000e+02,9.246882314588708240e+00
2.860000000000000000e+02,9.256155025106833634e+00
2.870000000000000000e+02,9.265364059479967551e+00
2.880000000000000000e+02,9.274508961802469642e+00
2.890000000000000000e+02,9.283590771933672769e+00
2.900000000000000000e+02,9.292609164145357425e+00
2.910000000000000000e+02,9.301564354570571069e+00
2.920000000000000000e+02,9.310457095980327225e+00
2.930000000000000000e+02,9.319286920498916160e+00
2.940000000000000000e+02,9.328054438199970377e+00
2.950000000000000000e+02,9.336759984176749683e+00
2.960000000000000000e+02,9.345403621142880368e+00
2.970000000000000000e+02,9.353985543320264995e+00
2.980000000000000000e+02,9.362505674605863248e+00
2.990000000000000000e+02,9.370964337538326916e+00
3.000000000000000000e+02,9.379362382775511264e+00
3.010000000000000000e+02,9.387699059176856764e+00
3.020000000000000000e+02,9.395974945072868678e+00
3.030000000000000000e+02,9.404190215841104816e+00
3.040000000000000000e+02,9.412345572387387449e+00
3.050000000000000000e+02,9.420439994226352809e+00
3.060000000000000000e+02,9.428474441311127663e+00
3.070000000000000000e+02,9.436449470906515202e+00
3.080000000000000000e+02,9.444364191145625753e+00
3.090000000000000000e+02,9.452219286610759497e+00
3.100000000000000000e+02,9.460015043156591474e+00
3.110000000000000000e+02,9.467751743009445775e+00
3.120000000000000000e+02,9.475428882537993758e+00
3.130000000000000000e+02,9.483046740636305927e+00
3.140000000000000000e+02,9.490605852574354628e+00
3.150000000000000000e+02,9.498106359204504301e+00
3.160000000000000000e+02,9.505548269209402434e+00
3.170000000000000000e+02,9.512931330780176609e+00
3.180000000000000000e+02,9.520256325165348699e+00
3.190000000000000000e+02,9.527765688874159977e+00
3.200000000000000000e+02,9.535070621593357387e+00
3.210000000000000000e+02,9.542279658471496617e+00
3.220000000000000000e+02,9.549419155500668666e+00
3.230000000000000000e+02,9.556492364163622355e+00
3.240000000000000000e+02,9.563502898297018717e+00
3.250000000000000000e+02,9.570451153341267059e+00
3.260000000000000000e+02,9.577339179469444019e+00
3.270000000000000000e+02,9.584167483878731630e+00
3.280000000000000000e+02,9.590936314489903580e+00
3.290000000000000000e+02,9.597646805536509618e+00
3.300000000000000000e+02,9.604299194781090065e+00
3.310000000000000000e+02,9.610893463436575246e+00
3.320000000000000000e+02,9.617431362864843791e+00
3.330000000000000000e+02,9.623911726291717983e+00
3.340000000000000000e+02,9.630335284792810313e+00
3.350000000000000000e+02,9.636702133568112671e+00
3.360000000000000000e+02,9.643012491502037875e+00
3.370000000000000000e+02,9.649266700365783933e+00
3.380000000000000000e+02,9.655464596228842566e+00
3.390000000000000000e+02,9.661606265126213344e+00
3.400000000000000000e+02,9.667691665723401329e+00
3.410000000000000000e+02,9.673720379933154589e+00
3.420000000000000000e+02,9.679693364327665250e+00
3.430000000000000000e+02,9.685610570814572995e+00
3.440000000000000000e+02,9.691471451336777676e+00
3.450000000000000000e+02,9.697276579132042329e+00
3.460000000000000000e+02,9.703025901329080938e+00
3.470000000000000000e+02,9.708719487812489390e+00
3.480000000000000000e+02,9.714357158362336264e+00
3.490000000000000000e+02,9.719939599220481341e+00
3.500000000000000000e+02,9.725466501707469291e+00
3.510000000000000000e+02,9.730938051362235441e+00
3.520000000000000000e+02,9.736354554697893349e+00
3.530000000000000000e+02,9.741715575101816071e+00
3.540000000000000000e+02,9.747021538710134436e+00
3.550000000000000000e+02,9.752273360462933027e+00
3.560000000000000000e+02,9.757470228408569923e+00
3.570000000000000000e+02,9.762612560626054758e+00
3.580000000000000000e+02,9.767700771784387115e+00
3.590000000000000000e+02,9.772734660359207126e+00
3.600000000000000000e+02,9.777714391355207368e+00
3.610000000000000000e+02,9.782640983714989247e+00
3.620000000000000000e+02,9.787513739919694089e+00
3.630000000000000000e+02,9.792333184406679436e+00
3.640000000000000000e+02,9.797099594039323733e+00
3.650000000000000000e+02,9.801812999347289335e+00
3.660000000000000000e+02,9.806473550899738711e+00
3.670000000000000000e+02,9.811082126799712810e+00
3.680000000000000000e+02,9.815638263837710653e+00
3.690000000000000000e+02,9.820142712865198575e+00
3.700000000000000000e+02,9.824595250248240319e+00
3.710000000000000000e+02,9.828996499835449541e+00
3.720000000000000000e+02,9.833346476443198370e+00
3.730000000000000000e+02,9.837645798134593278e+00
3.740000000000000000e+02,9.841894475098806438e+00
3.750000000000000000e+02,9.846093361281839762e+00
3.760000000000000000e+02,9.850241979189421571e+00
3.770000000000000000e+02,9.854341539164797936e+00
3.780000000000000000e+02,9.858391318985278318e+00
3.790000000000000000e+02,9.862392161955032321e+00
3.800000000000000000e+02,9.866344666763906091e+00
3.810000000000000000e+02,9.870248948215824214e+00
3.820000000000000000e+02,9.874105479622221182e+00
3.830000000000000000e+02,9.877914611540996148e+00
3.840000000000000000e+02,9.881676572285135407e+00
3.850000000000000000e+02,9.885391827782836316e+00
3.860000000000000000e+02,9.889060841311737349e+00
3.870000000000000000e+02,9.892683953934788832e+00
3.880000000000000000e+02,9.896261863090666466e+00
3.890000000000000000e+02,9.899794426930306201e+00
3.900000000000000000e+02,9.903282696416082942e+00
3.910000000000000000e+02,9.906726525663197336e+00
3.920000000000000000e+02,9.910126602416841735e+00
3.930000000000000000e+02,9.913483134979447442e+00
3.940000000000000000e+02,9.916797282262807656e+00
3.950000000000000000e+02,9.920069128446469264e+00
3.960000000000000000e+02,9.923298518707575511e+00
3.970000000000000000e+02,9.926487079602560826e+00
3.980000000000000000e+02,9.929634532926160162e+00
