# Time [s], Temperature [C]
1.000000000000000000e+00,2.499997099999999861e+01
2.000000000000000000e+00,6.887882999999999356e+01
3.000000000000000000e+00,9.292203499999999394e+01
4.000000000000000000e+00,1.124530699999999968e+02
5.000000000000000000e+00,1.285987499999999955e+02
6.000000000000000000e+00,1.427042500000000018e+02
7.000000000000000000e+00,1.552587900000000047e+02
8.000000000000000000e+00,1.666351899999999944e+02
9.000000000000000000e+00,1.770621500000000026e+02
1.000000000000000000e+01,1.867089499999999873e+02
1.100000000000000000e+01,1.956934500000000128e+02
1.200000000000000000e+01,2.041112799999999936e+02
1.300000000000000000e+01,2.120346399999999960e+02
1.400000000000000000e+01,2.195236500000000035e+02
1.500000000000000000e+01,2.266259499999999889e+02
1.600000000000000000e+01,2.333828399999999874e+02
1.700000000000000000e+01,2.398305799999999977e+02
1.800000000000000000e+01,2.459985399999999913e+02
1.900000000000000000e+01,2.519160200000000032e+02
2.000000000000000000e+01,2.576122700000000236e+02
2.100000000000000000e+01,2.631082799999999793e+02
2.200000000000000000e+01,2.684257200000000125e+02
2.300000000000000000e+01,2.735829200000000014e+02
2.400000000000000000e+01,2.785837999999999965e+02
2.500000000000000000e+01,2.834302400000000262e+02
2.600000000000000000e+01,2.881225900000000024e+02
2.700000000000000000e+01,2.926515200000000050e+02
2.800000000000000000e+01,2.970176399999999717e+02
2.900000000000000000e+01,3.012235099999999761e+02
3.000000000000000000e+01,3.052718499999999722e+02
3.100000000000000000e+01,3.091732200000000148e+02
3.200000000000000000e+01,3.129363700000000108e+02
3.300000000000000000e+01,3.165665900000000192e+02
3.400000000000000000e+01,3.200721700000000283e+02
3.500000000000000000e+01,3.234615800000000263e+02
3.600000000000000000e+01,3.267365100000000098e+02
3.700000000000000000e+01,3.299005999999999972e+02
3.800000000000000000e+01,3.329600800000000049e+02
3.900000000000000000e+01,3.359121400000000222e+02
4.000000000000000000e+01,3.387618100000000254e+02
4.100000000000000000e+01,3.415138900000000035e+02
4.200000000000000000e+01,3.441638500000000249e+02
4.300000000000000000e+01,3.467166100000000029e+02
4.400000000000000000e+01,3.491717499999999745e+02
4.500000000000000000e+01,3.515308800000000247e+02
4.600000000000000000e+01,3.537950099999999907e+02
4.700000000000000000e+01,3.559679300000000239e+02
4.800000000000000000e+01,3.580509900000000130e+02
4.900000000000000000e+01,3.600463300000000118e+02
5.000000000000000000e+01,3.619581299999999828e+02
5.100000000000000000e+01,3.637888500000000249e+02
5.200000000000000000e+01,3.655442199999999957e+02
5.300000000000000000e+01,3.669791900000000169e+02
5.400000000000000000e+01,3.674455899999999815e+02
5.500000000000000000e+01,3.690326499999999896e+02
5.600000000000000000e+01,3.704508400000000279e+02
5.700000000000000000e+01,3.719046000000000163e+02
5.800000000000000000e+01,3.733033100000000104e+02
5.900000000000000000e+01,3.746722700000000259e+02
6.000000000000000000e+01,3.760032699999999863e+02
6.100000000000000000e+01,3.773059099999999830e+02
6.200000000000000000e+01,3.785772999999999797e+02
6.300000000000000000e+01,3.798255300000000148e+02
6.400000000000000000e+01,3.810570099999999911e+02
6.500000000000000000e+01,3.822674299999999903e+02
6.600000000000000000e+01,3.834680200000000241e+02
6.700000000000000000e+01,3.846568899999999758e+02
6.800000000000000000e+01,3.858357799999999997e+02
6.900000000000000000e+01,3.870108000000000175e+02
7.000000000000000000e+01,3.881837800000000129e+02
7.100000000000000000e+01,3.893513500000000249e+02
7.200000000000000000e+01,3.905221900000000232e+02
7.300000000000000000e+01,3.916962899999999763e+02
7.400000000000000000e+01,3.928632799999999747e+02
7.500000000000000000e+01,3.940392200000000003e+02
7.600000000000000000e+01,3.952173500000000104e+02
7.700000000000000000e+01,3.963942900000000122e+02
7.800000000000000000e+01,3.975780599999999936e+02
7.900000000000000000e+01,3.987644000000000233e+02
8.000000000000000000e+01,3.999491300000000251e+02
8.100000000000000000e+01,4.011384300000000280e+02
8.200000000000000000e+01,4.023282500000000255e+02
8.300000000000000000e+01,4.035143400000000042e+02
8.400000000000000000e+01,4.047018400000000042e+02
8.500000000000000000e+01,4.058865999999999872e+02
8.600000000000000000e+01,4.070623800000000188e+02
8.700000000000000000e+01,4.082383399999999938e+02
8.800000000000000000e+01,4.094081400000000031e+02
8.900000000000000000e+01,4.105684800000000223e+02
9.000000000000000000e+01,4.117230799999999817e+02
9.100000000000000000e+01,4.128692300000000159e+02
9.200000000000000000e+01,4.140073899999999867e+02
9.300000000000000000e+01,4.151395299999999793e+02
9.400000000000000000e+01,4.162566199999999981e+02
9.500000000000000000e+01,4.173652000000000157e+02
9.600000000000000000e+01,4.184646599999999808e+02
9.700000000000000000e+01,4.195556000000000267e+02
9.800000000000000000e+01,4.206411400000000071e+02
9.900000000000000000e+01,4.217130099999999970e+02
1.000000000000000000e+02,4.227794499999999971e+02
1.010000000000000000e+02,4.238373700000000213e+02
1.020000000000000000e+02,4.248934600000000046e+02
1.030000000000000000e+02,4.259367100000000050e+02
1.040000000000000000e+02,4.269856300000000147e+02
1.050000000000000000e+02,4.280174600000000282e+02
1.060000000000000000e+02,4.290465100000000120e+02
1.070000000000000000e+02,4.300728100000000040e+02
1.080000000000000000e+02,4.310877399999999966e+02
1.090000000000000000e+02,4.321033899999999903e+02
1.100000000000000000e+02,4.331115699999999720e+02
1.110000000000000000e+02,4.341169399999999996e+02
1.120000000000000000e+02,4.351089799999999741e+02
1.130000000000000000e+02,4.360977500000000191e+02
1.140000000000000000e+02,4.370820899999999938e+02
1.150000000000000000e+02,4.380631399999999758e+02
1.160000000000000000e+02,4.390304600000000050e+02
1.170000000000000000e+02,4.399960599999999999e+02
1.180000000000000000e+02,4.409463499999999954e+02
1.190000000000000000e+02,4.419024999999999750e+02
1.200000000000000000e+02,4.428384100000000103e+02
1.210000000000000000e+02,4.437763400000000047e+02
1.220000000000000000e+02,4.447090099999999779e+02
1.230000000000000000e+02,4.456257299999999759e+02
1.240000000000000000e+02,4.465467199999999934e+02
1.250000000000000000e+02,4.474559600000000046e+02
1.260000000000000000e+02,4.483554100000000062e+02
1.270000000000000000e+02,4.492575400000000059e+02
1.280000000000000000e+02,4.501493199999999888e+02
1.290000000000000000e+02,4.510409200000000283e+02
1.300000000000000000e+02,4.519158600000000092e+02
1.310000000000000000e+02,4.527983100000000150e+02
1.320000000000000000e+02,4.536677900000000250e+02
1.330000000000000000e+02,4.545385099999999738e+02
1.340000000000000000e+02,4.553974900000000048e+02
1.350000000000000000e+02,4.562582400000000007e+02
1.360000000000000000e+02,4.571037600000000225e+02
1.370000000000000000e+02,4.579549000000000092e+02
1.380000000000000000e+02,4.587987400000000093e+02
1.390000000000000000e+02,4.596334200000000010e+02
1.400000000000000000e+02,4.604667699999999968e+02
1.410000000000000000e+02,4.612907999999999902e+02
1.420000000000000000e+02,4.621138000000000261e+02
1.430000000000000000e+02,4.629324300000000108e+02
1.440000000000000000e+02,4.637409700000000043e+02
1.450000000000000000e+02,4.645465399999999931e+02
1.460000000000000000e+02,4.653494299999999839e+02
1.470000000000000000e+02,4.661466399999999908e+02
1.480000000000000000e+02,4.669337199999999939e+02
1.490000000000000000e+02,4.677219499999999925e+02
1.500000000000000000e+02,4.685040000000000191e+02
1.510000000000000000e+02,4.692818300000000136e+02
1.520000000000000000e+02,4.700509299999999939e+02
1.530000000000000000e+02,4.708211400000000140e+02
1.540000000000000000e+02,4.715842599999999720e+02
1.550000000000000000e+02,4.723453099999999836e+02
1.560000000000000000e+02,4.731000099999999975e+02
1.570000000000000000e+02,4.736406600000000253e+02
1.580000000000000000e+02,4.718917799999999829e+02
1.590000000000000000e+02,4.725492899999999850e+02
1.600000000000000000e+02,4.728861400000000117e+02
1.610000000000000000e+02,4.735084800000000200e+02
1.620000000000000000e+02,4.741179799999999886e+02
1.630000000000000000e+02,4.747929399999999873e+02
1.640000000000000000e+02,4.754843399999999747e+02
1.650000000000000000e+02,4.761945200000000114e+02
1.660000000000000000e+02,4.769129300000000171e+02
1.670000000000000000e+02,4.776384300000000280e+02
1.680000000000000000e+02,4.783687400000000025e+02
1.690000000000000000e+02,4.790960099999999784e+02
1.700000000000000000e+02,4.798208900000000199e+02
1.710000000000000000e+02,4.805461399999999799e+02
1.720000000000000000e+02,4.812689799999999991e+02
1.730000000000000000e+02,4.819887699999999882e+02
1.740000000000000000e+02,4.827087399999999775e+02
1.750000000000000000e+02,4.834197100000000091e+02
1.760000000000000000e+02,4.841286600000000249e+02
1.770000000000000000e+02,4.848319999999999936e+02
1.780000000000000000e+02,4.855304899999999861e+02
1.790000000000000000e+02,4.862292199999999980e+02
1.800000000000000000e+02,4.869179100000000062e+02
1.810000000000000000e+02,4.876032700000000091e+02
1.820000000000000000e+02,4.882853099999999813e+02
1.830000000000000000e+02,4.889649999999999750e+02
1.840000000000000000e+02,4.896352200000000039e+02
1.850000000000000000e+02,4.903029799999999909e+02
1.860000000000000000e+02,4.909685999999999808e+02
1.870000000000000000e+02,4.916259800000000268e+02
1.880000000000000000e+02,4.922802100000000110e+02
1.890000000000000000e+02,4.929309099999999830e+02
1.900000000000000000e+02,4.935747999999999820e+02
1.910000000000000000e+02,4.942166100000000029e+02
1.920000000000000000e+02,4.948557999999999879e+02
1.930000000000000000e+02,4.954874599999999987e+02
1.940000000000000000e+02,4.961187699999999836e+02
1.950000000000000000e+02,4.967441999999999780e+02
1.960000000000000000e+02,4.973655400000000100e+02
1.970000000000000000e+02,4.979853200000000015e+02
1.980000000000000000e+02,4.985968599999999924e+02
1.990000000000000000e+02,4.992085299999999961e+02
2.000000000000000000e+02,4.998167700000000195e+02
2.010000000000000000e+02,5.004212600000000180e+02
2.020000000000000000e+02,5.010179699999999912e+02
2.030000000000000000e+02,5.016161200000000235e+02
2.040000000000000000e+02,5.022088600000000156e+02
2.050000000000000000e+02,5.027985199999999963e+02
2.060000000000000000e+02,5.033811000000000035e+02
2.070000000000000000e+02,5.039636499999999728e+02
2.080000000000000000e+02,5.045415600000000040e+02
2.090000000000000000e+02,5.051174899999999752e+02
2.100000000000000000e+02,5.056850600000000213e+02
2.110000000000000000e+02,5.062565900000000170e+02
2.120000000000000000e+02,5.068203399999999874e+02
2.130000000000000000e+02,5.073793000000000006e+02
2.140000000000000000e+02,5.079413799999999810e+02
2.150000000000000000e+02,5.084932900000000018e+02
2.160000000000000000e+02,5.090445599999999899e+02
2.170000000000000000e+02,5.095928599999999733e+02
2.180000000000000000e+02,5.101340900000000147e+02
2.190000000000000000e+02,5.106777000000000157e+02
2.200000000000000000e+02,5.112120400000000018e+02
2.210000000000000000e+02,5.117480199999999968e+02
2.220000000000000000e+02,5.122802699999999732e+02
2.230000000000000000e+02,5.128046900000000505e+02
2.240000000000000000e+02,5.133323400000000447e+02
2.250000000000000000e+02,5.138522299999999632e+02
2.260000000000000000e+02,5.143044999999999618e+02
2.270000000000000000e+02,5.146955000000000382e+02
2.280000000000000000e+02,5.151306200000000217e+02
2.290000000000000000e+02,5.155851400000000240e+02
2.300000000000000000e+02,5.160393100000000004e+02
2.310000000000000000e+02,5.164967699999999695e+02
2.320000000000000000e+02,5.169589799999999968e+02
2.330000000000000000e+02,5.174260299999999688e+02
2.340000000000000000e+02,5.178910499999999502e+02
2.350000000000000000e+02,5.183591900000000123e+02
2.360000000000000000e+02,5.188312399999999798e+02
2.370000000000000000e+02,5.192999899999999798e+02
2.380000000000000000e+02,5.197722800000000234e+02
2.390000000000000000e+02,5.202415200000000368e+02
2.400000000000000000e+02,5.207105699999999615e+02
2.410000000000000000e+02,5.211806000000000267e+02
2.420000000000000000e+02,5.216463599999999587e+02
2.430000000000000000e+02,5.221135299999999688e+02
2.440000000000000000e+02,5.225783099999999877e+02
2.450000000000000000e+02,5.230389400000000251e+02
2.460000000000000000e+02,5.234974399999999832e+02
2.470000000000000000e+02,5.239544100000000526e+02
2.480000000000000000e+02,5.244093599999999924e+02
2.490000000000000000e+02,5.248623000000000047e+02
2.500000000000000000e+02,5.253097500000000082e+02
2.510000000000000000e+02,5.257578700000000254e+02
2.520000000000000000e+02,5.262026399999999740e+02
2.530000000000000000e+02,5.266425199999999904e+02
2.540000000000000000e+02,5.270809900000000425e+02
2.550000000000000000e+02,5.275165399999999636e+02
2.560000000000000000e+02,5.279506199999999581e+02
2.570000000000000000e+02,5.283789699999999812e+02
2.580000000000000000e+02,5.288064600000000155e+02
2.590000000000000000e+02,5.292308299999999690e+02
2.600000000000000000e+02,5.296530800000000454e+02
2.610000000000000000e+02,5.300693999999999733e+02
2.620000000000000000e+02,5.304852899999999636e+02
2.630000000000000000e+02,5.308998400000000402e+02
2.640000000000000000e+02,5.313101199999999835e+02
2.650000000000000000e+02,5.317177100000000110e+02
2.660000000000000000e+02,5.321214599999999564e+02
2.670000000000000000e+02,5.325238000000000511e+02
2.680000000000000000e+02,5.329234000000000151e+02
2.690000000000000000e+02,5.333212300000000141e+02
2.700000000000000000e+02,5.337156999999999698e+02
2.710000000000000000e+02,5.341084600000000364e+02
2.720000000000000000e+02,5.344964599999999564e+02
2.730000000000000000e+02,5.348834799999999632e+02
2.740000000000000000e+02,5.352677599999999529e+02
2.750000000000000000e+02,5.356513099999999667e+02
2.760000000000000000e+02,5.360312500000000000e+02
2.770000000000000000e+02,5.364088100000000168e+02
2.780000000000000000e+02,5.367857099999999946e+02
2.790000000000000000e+02,5.371597299999999677e+02
2.800000000000000000e+02,5.375286300000000210e+02
2.810000000000000000e+02,5.378925199999999904e+02
2.820000000000000000e+02,5.382447499999999536e+02
2.830000000000000000e+02,5.385902099999999564e+02
2.840000000000000000e+02,5.389340799999999945e+02
2.850000000000000000e+02,5.392758800000000292e+02
2.860000000000000000e+02,5.396176799999999503e+02
2.870000000000000000e+02,5.399564800000000560e+02
2.880000000000000000e+02,5.402958999999999605e+02
2.890000000000000000e+02,5.406346399999999903e+02
2.900000000000000000e+02,5.409735699999999952e+02
2.910000000000000000e+02,5.413111599999999726e+02
2.920000000000000000e+02,5.416492899999999509e+02
2.930000000000000000e+02,5.419842499999999745e+02
2.940000000000000000e+02,5.423203700000000254e+02
2.950000000000000000e+02,5.426554599999999482e+02
2.960000000000000000e+02,5.429910300000000234e+02
2.970000000000000000e+02,5.433251299999999446e+02
2.980000000000000000e+02,5.436587500000000546e+02
2.990000000000000000e+02,5.439939000000000533e+02
3.000000000000000000e+02,5.443240399999999681e+02
3.010000000000000000e+02,5.446569799999999759e+02
3.020000000000000000e+02,5.449877900000000182e+02
3.030000000000000000e+02,5.453181200000000217e+02
3.040000000000000000e+02,5.456473399999999856e+02
3.050000000000000000e+02,5.459774200000000519e+02
3.060000000000000000e+02,5.463035899999999856e+02
3.070000000000000000e+02,5.466308599999999842e+02
3.080000000000000000e+02,5.469571499999999560e+02
3.090000000000000000e+02,5.472816199999999753e+02
3.100000000000000000e+02,5.476068099999999959e+02
3.110000000000000000e+02,5.479298099999999749e+02
3.120000000000000000e+02,5.482531099999999924e+02
3.130000000000000000e+02,5.485751999999999953e+02
3.140000000000000000e+02,5.488973999999999478e+02
3.150000000000000000e+02,5.492186900000000378e+02
3.160000000000000000e+02,5.495407099999999900e+02
3.170000000000000000e+02,5.498595599999999877e+02
3.180000000000000000e+02,5.501794399999999996e+02
3.190000000000000000e+02,5.504986000000000104e+02
3.200000000000000000e+02,5.508174999999999955e+02
3.210000000000000000e+02,5.511367199999999684e+02
3.220000000000000000e+02,5.514553799999999910e+02
3.230000000000000000e+02,5.517738600000000133e+02
3.240000000000000000e+02,5.520915499999999838e+02
3.250000000000000000e+02,5.524091200000000299e+02
3.260000000000000000e+02,5.527282699999999522e+02
3.270000000000000000e+02,5.530442500000000337e+02
3.280000000000000000e+02,5.533620600000000422e+02
3.290000000000000000e+02,5.536800500000000511e+02
3.300000000000000000e+02,5.539979200000000219e+02
3.310000000000000000e+02,5.543168899999999439e+02
3.320000000000000000e+02,5.546339699999999766e+02
3.330000000000000000e+02,5.549522699999999986e+02
3.340000000000000000e+02,5.552703199999999697e+02
3.350000000000000000e+02,5.555901499999999942e+02
3.360000000000000000e+02,5.559114399999999705e+02
3.370000000000000000e+02,5.562313199999999824e+02
3.380000000000000000e+02,5.565559100000000399e+02
3.390000000000000000e+02,5.568784200000000055e+02
3.400000000000000000e+02,5.572023299999999608e+02
3.410000000000000000e+02,5.575289900000000216e+02
3.420000000000000000e+02,5.578536400000000413e+02
3.430000000000000000e+02,5.581810299999999643e+02
3.440000000000000000e+02,5.585095199999999522e+02
3.450000000000000000e+02,5.588394799999999805e+02
3.460000000000000000e+02,5.591714500000000498e+02
3.470000000000000000e+02,5.595066500000000360e+02
3.480000000000000000e+02,5.598411300000000210e+02
3.490000000000000000e+02,5.601793800000000374e+02
3.500000000000000000e+02,5.605197100000000319e+02
3.510000000000000000e+02,5.608619400000000041e+02
3.520000000000000000e+02,5.612064800000000560e+02
3.530000000000000000e+02,5.615559100000000399e+02
3.540000000000000000e+02,5.619052699999999732e+02
3.550000000000000000e+02,5.622595199999999522e+02
3.560000000000000000e+02,5.626167599999999993e+02
3.570000000000000000e+02,5.629768699999999626e+02
3.580000000000000000e+02,5.633403299999999945e+02
3.590000000000000000e+02,5.637085600000000341e+02
3.600000000000000000e+02,5.640784899999999880e+02
3.610000000000000000e+02,5.644537400000000389e+02
3.620000000000000000e+02,5.648334999999999582e+02
3.630000000000000000e+02,5.652182000000000244e+02
3.640000000000000000e+02,5.656069300000000339e+02
3.650000000000000000e+02,5.660011600000000271e+02
3.660000000000000000e+02,5.664005700000000161e+02
3.670000000000000000e+02,5.668044999999999618e+02
3.680000000000000000e+02,5.672123400000000402e+02
3.690000000000000000e+02,5.676268300000000409e+02
3.700000000000000000e+02,5.680463899999999740e+02
3.710000000000000000e+02,5.684731399999999439e+02
3.720000000000000000e+02,5.689023999999999432e+02
3.730000000000000000e+02,5.693388099999999667e+02
3.740000000000000000e+02,5.697814300000000003e+02
3.750000000000000000e+02,5.702287599999999657e+02
3.760000000000000000e+02,5.706795700000000124e+02
3.770000000000000000e+02,5.711374499999999443e+02
3.780000000000000000e+02,5.716000999999999976e+02
3.790000000000000000e+02,5.720639599999999518e+02
3.800000000000000000e+02,5.725372300000000223e+02
3.810000000000000000e+02,5.730106200000000172e+02
3.820000000000000000e+02,5.734898100000000341e+02
3.830000000000000000e+02,5.739730200000000195e+02
3.840000000000000000e+02,5.744558700000000044e+02
3.850000000000000000e+02,5.749461099999999760e+02
3.860000000000000000e+02,5.754361000000000104e+02
3.870000000000000000e+02,5.759290799999999990e+02
3.880000000000000000e+02,5.764222999999999502e+02
3.890000000000000000e+02,5.769181499999999687e+02
3.900000000000000000e+02,5.774145499999999629e+02
3.910000000000000000e+02,5.779121699999999464e+02
3.920000000000000000e+02,5.784111900000000333e+02
3.930000000000000000e+02,5.789067400000000134e+02
3.940000000000000000e+02,5.794065600000000131e+02
3.950000000000000000e+02,5.799037499999999454e+02
3.960000000000000000e+02,5.804009399999999914e+02
3.970000000000000000e+02,5.808943500000000313e+02
3.980000000000000000e+02,5.813917199999999639e+02
3.990000000000000000e+02,5.818839699999999766e+02
