# Time [s], Temperature [C]
1.000000000000000000e+00,2.499998300000000029e+01
2.000000000000000000e+00,4.728298999999999808e+01
3.000000000000000000e+00,6.204493000000000080e+01
4.000000000000000000e+00,7.421890999999999394e+01
5.000000000000000000e+00,8.467194399999999632e+01
6.000000000000000000e+00,9.396447000000000571e+01
7.000000000000000000e+00,1.023820099999999940e+02
8.000000000000000000e+00,1.101151499999999999e+02
9.000000000000000000e+00,1.172925099999999929e+02
1.000000000000000000e+01,1.240071800000000053e+02
1.100000000000000000e+01,1.303296200000000056e+02
1.200000000000000000e+01,1.363161900000000060e+02
1.300000000000000000e+01,1.420137200000000064e+02
1.400000000000000000e+01,1.474642599999999959e+02
1.500000000000000000e+01,1.527084800000000087e+02
1.600000000000000000e+01,1.577887599999999964e+02
1.700000000000000000e+01,1.627510499999999922e+02
1.800000000000000000e+01,1.676469099999999912e+02
1.900000000000000000e+01,1.725306400000000053e+02
2.000000000000000000e+01,1.774509899999999902e+02
2.100000000000000000e+01,1.824357500000000130e+02
2.200000000000000000e+01,1.874753699999999981e+02
2.300000000000000000e+01,1.925113699999999994e+02
2.400000000000000000e+01,1.974499099999999885e+02
2.500000000000000000e+01,2.021975700000000131e+02
2.600000000000000000e+01,2.066964700000000050e+02
2.700000000000000000e+01,2.109286199999999951e+02
2.800000000000000000e+01,2.149107500000000073e+02
2.900000000000000000e+01,2.186746500000000140e+02
3.000000000000000000e+01,2.222477299999999900e+02
3.100000000000000000e+01,2.256597899999999868e+02
3.200000000000000000e+01,2.289408400000000086e+02
3.300000000000000000e+01,2.320985000000000014e+02
3.400000000000000000e+01,2.351515200000000050e+02
3.500000000000000000e+01,2.381256999999999948e+02
3.600000000000000000e+01,2.410081800000000101e+02
3.700000000000000000e+01,2.438128199999999879e+02
3.800000000000000000e+01,2.465734899999999925e+02
3.900000000000000000e+01,2.492531400000000019e+02
4.000000000000000000e+01,2.518669399999999996e+02
4.100000000000000000e+01,2.544697899999999890e+02
4.200000000000000000e+01,2.569898999999999774e+02
4.300000000000000000e+01,2.594492799999999875e+02
4.400000000000000000e+01,2.619384800000000268e+02
4.500000000000000000e+01,2.643314199999999801e+02
4.600000000000000000e+01,2.666646400000000199e+02
4.700000000000000000e+01,2.690830399999999827e+02
4.800000000000000000e+01,2.713796699999999760e+02
4.900000000000000000e+01,2.736120300000000043e+02
5.000000000000000000e+01,2.760072299999999927e+02
5.100000000000000000e+01,2.782388599999999883e+02
5.200000000000000000e+01,2.803970299999999725e+02
5.300000000000000000e+01,2.828237899999999740e+02
5.400000000000000000e+01,2.850280500000000075e+02
5.500000000000000000e+01,2.871414800000000014e+02
5.600000000000000000e+01,2.896698299999999904e+02
5.700000000000000000e+01,2.918931000000000040e+02
5.800000000000000000e+01,2.939992100000000050e+02
5.900000000000000000e+01,2.967175599999999918e+02
6.000000000000000000e+01,2.990217299999999909e+02
6.100000000000000000e+01,3.011708699999999794e+02
6.200000000000000000e+01,3.041952499999999873e+02
6.300000000000000000e+01,3.066706800000000044e+02
6.400000000000000000e+01,3.089396699999999782e+02
6.500000000000000000e+01,3.124302099999999882e+02
6.600000000000000000e+01,3.152243700000000217e+02
6.700000000000000000e+01,3.177567700000000173e+02
6.800000000000000000e+01,3.219578900000000203e+02
6.900000000000000000e+01,3.253759800000000268e+02
7.000000000000000000e+01,3.296133399999999938e+02
7.100000000000000000e+01,3.355480299999999829e+02
7.200000000000000000e+01,3.402783800000000269e+02
7.300000000000000000e+01,3.444113199999999892e+02
7.400000000000000000e+01,3.481716299999999933e+02
7.500000000000000000e+01,3.516840799999999945e+02
7.600000000000000000e+01,3.550377500000000168e+02
7.700000000000000000e+01,3.582953800000000228e+02
7.800000000000000000e+01,3.615122700000000009e+02
7.900000000000000000e+01,3.647391999999999825e+02
8.000000000000000000e+01,3.680205100000000016e+02
8.100000000000000000e+01,3.713915700000000015e+02
8.200000000000000000e+01,3.748634000000000128e+02
8.300000000000000000e+01,3.781049199999999928e+02
8.400000000000000000e+01,3.810037500000000250e+02
8.500000000000000000e+01,3.836790799999999990e+02
8.600000000000000000e+01,3.861559799999999996e+02
8.700000000000000000e+01,3.884744299999999839e+02
8.800000000000000000e+01,3.906723900000000071e+02
8.900000000000000000e+01,3.927766100000000051e+02
9.000000000000000000e+01,3.948065199999999777e+02
9.100000000000000000e+01,3.967792400000000157e+02
9.200000000000000000e+01,3.987105700000000184e+02
9.300000000000000000e+01,4.006119100000000230e+02
9.400000000000000000e+01,4.024959400000000187e+02
9.500000000000000000e+01,4.043802800000000275e+02
9.600000000000000000e+01,4.062702899999999886e+02
9.700000000000000000e+01,4.081759599999999750e+02
9.800000000000000000e+01,4.101065699999999765e+02
9.900000000000000000e+01,4.120528600000000097e+02
1.000000000000000000e+02,4.139730799999999817e+02
1.010000000000000000e+02,4.158239699999999743e+02
1.020000000000000000e+02,4.175989999999999895e+02
1.030000000000000000e+02,4.193002000000000180e+02
1.040000000000000000e+02,4.209334099999999808e+02
1.050000000000000000e+02,4.225070799999999736e+02
1.060000000000000000e+02,4.240241399999999885e+02
1.070000000000000000e+02,4.254970099999999888e+02
1.080000000000000000e+02,4.269271499999999833e+02
1.090000000000000000e+02,4.283251599999999826e+02
1.100000000000000000e+02,4.296960799999999949e+02
1.110000000000000000e+02,4.310441599999999767e+02
1.120000000000000000e+02,4.323738999999999919e+02
1.130000000000000000e+02,4.336914400000000001e+02
1.140000000000000000e+02,4.349999700000000189e+02
1.150000000000000000e+02,4.363032200000000103e+02
1.160000000000000000e+02,4.376070300000000088e+02
1.170000000000000000e+02,4.389135999999999740e+02
1.180000000000000000e+02,4.402228700000000003e+02
1.190000000000000000e+02,4.415254199999999969e+02
1.200000000000000000e+02,4.428142100000000028e+02
1.210000000000000000e+02,4.440839199999999778e+02
1.220000000000000000e+02,4.453261699999999905e+02
1.230000000000000000e+02,4.465383600000000115e+02
1.240000000000000000e+02,4.477207000000000221e+02
1.250000000000000000e+02,4.488787500000000250e+02
1.260000000000000000e+02,4.500089100000000144e+02
1.270000000000000000e+02,4.511166400000000181e+02
1.280000000000000000e+02,4.522035799999999881e+02
1.290000000000000000e+02,4.532700199999999882e+02
1.300000000000000000e+02,4.543161000000000058e+02
1.310000000000000000e+02,4.553494600000000219e+02
1.320000000000000000e+02,4.563700000000000045e+02
1.330000000000000000e+02,4.573799999999999955e+02
1.340000000000000000e+02,4.583814399999999978e+02
1.350000000000000000e+02,4.593753399999999942e+02
1.360000000000000000e+02,4.603646200000000022e+02
1.370000000000000000e+02,4.613507999999999925e+02
1.380000000000000000e+02,4.623337700000000154e+02
1.390000000000000000e+02,4.633128399999999942e+02
1.400000000000000000e+02,4.642853400000000192e+02
1.410000000000000000e+02,4.652480800000000158e+02
1.420000000000000000e+02,4.661995800000000258e+02
1.430000000000000000e+02,4.671389800000000037e+02
1.440000000000000000e+02,4.680638999999999896e+02
1.450000000000000000e+02,4.689746099999999842e+02
1.460000000000000000e+02,4.698721899999999891e+02
1.470000000000000000e+02,4.707583000000000197e+02
1.480000000000000000e+02,4.716297000000000139e+02
1.490000000000000000e+02,4.724882799999999747e+02
1.500000000000000000e+02,4.733367600000000266e+02
1.510000000000000000e+02,4.741731899999999769e+02
1.520000000000000000e+02,4.750024999999999977e+02
1.530000000000000000e+02,4.758218699999999899e+02
1.540000000000000000e+02,4.766350400000000036e+02
1.550000000000000000e+02,4.774403399999999920e+02
1.560000000000000000e+02,4.782408100000000104e+02
1.570000000000000000e+02,4.790346400000000244e+02
1.580000000000000000e+02,4.798258400000000279e+02
1.590000000000000000e+02,4.806101699999999823e+02
1.600000000000000000e+02,4.813902299999999741e+02
1.610000000000000000e+02,4.821630599999999731e+02
1.620000000000000000e+02,4.829306000000000267e+02
1.630000000000000000e+02,4.836918600000000197e+02
1.640000000000000000e+02,4.844436000000000035e+02
1.650000000000000000e+02,4.851881099999999947e+02
1.660000000000000000e+02,4.859249599999999987e+02
1.670000000000000000e+02,4.866539599999999837e+02
1.680000000000000000e+02,4.873725299999999834e+02
1.690000000000000000e+02,4.880842000000000098e+02
1.700000000000000000e+02,4.887895500000000197e+02
1.710000000000000000e+02,4.894879199999999742e+02
1.720000000000000000e+02,4.901793799999999806e+02
1.730000000000000000e+02,4.908652299999999968e+02
1.740000000000000000e+02,4.915449800000000096e+02
1.750000000000000000e+02,4.922171599999999785e+02
1.760000000000000000e+02,4.928854400000000169e+02
1.770000000000000000e+02,4.935490100000000098e+02
1.780000000000000000e+02,4.942080100000000016e+02
1.790000000000000000e+02,4.948629199999999742e+02
1.800000000000000000e+02,4.955126300000000015e+02
1.810000000000000000e+02,4.961571400000000267e+02
1.820000000000000000e+02,4.967967800000000125e+02
1.830000000000000000e+02,4.974305100000000266e+02
1.840000000000000000e+02,4.980584699999999998e+02
1.850000000000000000e+02,4.986834099999999808e+02
1.860000000000000000e+02,4.993017600000000016e+02
1.870000000000000000e+02,4.999135999999999740e+02
1.880000000000000000e+02,5.005197400000000130e+02
1.890000000000000000e+02,5.011203300000000240e+02
1.900000000000000000e+02,5.017153900000000135e+02
1.910000000000000000e+02,5.023059999999999832e+02
1.920000000000000000e+02,5.028932500000000232e+02
1.930000000000000000e+02,5.034749100000000226e+02
1.940000000000000000e+02,5.040518200000000206e+02
1.950000000000000000e+02,5.046237800000000107e+02
1.960000000000000000e+02,5.051905800000000113e+02
1.970000000000000000e+02,5.057554000000000087e+02
1.980000000000000000e+02,5.063149399999999787e+02
1.990000000000000000e+02,5.068693799999999783e+02
2.000000000000000000e+02,5.074219400000000064e+02
2.010000000000000000e+02,5.079686300000000188e+02
2.020000000000000000e+02,5.085103799999999978e+02
2.030000000000000000e+02,5.090498999999999796e+02
2.040000000000000000e+02,5.095834699999999771e+02
2.050000000000000000e+02,5.101125200000000177e+02
2.060000000000000000e+02,5.106393100000000231e+02
2.070000000000000000e+02,5.111604899999999816e+02
2.080000000000000000e+02,5.116767300000000205e+02
2.090000000000000000e+02,5.121908600000000433e+02
2.100000000000000000e+02,5.126992800000000443e+02
2.110000000000000000e+02,5.132050199999999904e+02
2.120000000000000000e+02,5.137064800000000560e+02
2.130000000000000000e+02,5.142051400000000285e+02
2.140000000000000000e+02,5.146987299999999550e+02
2.150000000000000000e+02,5.151901900000000296e+02
2.160000000000000000e+02,5.156765100000000075e+02
2.170000000000000000e+02,5.161599700000000439e+02
2.180000000000000000e+02,5.166392799999999852e+02
2.190000000000000000e+02,5.171157200000000103e+02
2.200000000000000000e+02,5.175872799999999643e+02
2.210000000000000000e+02,5.180570699999999533e+02
2.220000000000000000e+02,5.185212999999999965e+02
2.230000000000000000e+02,5.189828499999999849e+02
2.240000000000000000e+02,5.194418899999999439e+02
2.250000000000000000e+02,5.198959999999999582e+02
2.260000000000000000e+02,5.203474700000000439e+02
2.270000000000000000e+02,5.207949800000000096e+02
2.280000000000000000e+02,5.212394399999999450e+02
2.290000000000000000e+02,5.216810900000000402e+02
2.300000000000000000e+02,5.221187099999999646e+02
2.310000000000000000e+02,5.225538299999999481e+02
2.320000000000000000e+02,5.229861499999999523e+02
2.330000000000000000e+02,5.234139400000000251e+02
2.340000000000000000e+02,5.238392300000000432e+02
2.350000000000000000e+02,5.242618400000000065e+02
2.360000000000000000e+02,5.246801799999999503e+02
2.370000000000000000e+02,5.250964400000000296e+02
2.380000000000000000e+02,5.255095199999999522e+02
2.390000000000000000e+02,5.259202299999999468e+02
2.400000000000000000e+02,5.263261700000000474e+02
2.410000000000000000e+02,5.267299799999999550e+02
2.420000000000000000e+02,5.271314700000000357e+02
2.430000000000000000e+02,5.275302699999999732e+02
2.440000000000000000e+02,5.279246200000000044e+02
2.450000000000000000e+02,5.283171999999999571e+02
2.460000000000000000e+02,5.287069699999999557e+02
2.470000000000000000e+02,5.290939300000000003e+02
2.480000000000000000e+02,5.294788200000000415e+02
2.490000000000000000e+02,5.298591900000000123e+02
2.500000000000000000e+02,5.302372400000000425e+02
2.510000000000000000e+02,5.306131599999999935e+02
2.520000000000000000e+02,5.309859000000000151e+02
2.530000000000000000e+02,5.313565700000000334e+02
2.540000000000000000e+02,5.317248499999999467e+02
2.550000000000000000e+02,5.320901499999999942e+02
2.560000000000000000e+02,5.324513500000000477e+02
2.570000000000000000e+02,5.328109100000000353e+02
2.580000000000000000e+02,5.331679100000000062e+02
2.590000000000000000e+02,5.335225799999999481e+02
2.600000000000000000e+02,5.338753100000000131e+02
2.610000000000000000e+02,5.342252799999999979e+02
2.620000000000000000e+02,5.345725099999999657e+02
2.630000000000000000e+02,5.349174199999999928e+02
2.640000000000000000e+02,5.352602500000000418e+02
2.650000000000000000e+02,5.356004000000000360e+02
2.660000000000000000e+02,5.359382299999999759e+02
2.670000000000000000e+02,5.362735599999999749e+02
2.680000000000000000e+02,5.366066299999999956e+02
2.690000000000000000e+02,5.369376800000000003e+02
2.700000000000000000e+02,5.372656899999999496e+02
2.710000000000000000e+02,5.375914299999999457e+02
2.720000000000000000e+02,5.379151600000000144e+02
2.730000000000000000e+02,5.382366299999999910e+02
2.740000000000000000e+02,5.385558499999999640e+02
2.750000000000000000e+02,5.388727400000000216e+02
2.760000000000000000e+02,5.391875599999999622e+02
2.770000000000000000e+02,5.394998799999999619e+02
2.780000000000000000e+02,5.398104200000000219e+02
2.790000000000000000e+02,5.401187099999999646e+02
2.800000000000000000e+02,5.404244999999999663e+02
2.810000000000000000e+02,5.407288800000000037e+02
2.820000000000000000e+02,5.410310699999999997e+02
2.830000000000000000e+02,5.413311800000000176e+02
2.840000000000000000e+02,5.416289699999999812e+02
2.850000000000000000e+02,5.419248700000000554e+02
2.860000000000000000e+02,5.422183800000000247e+02
2.870000000000000000e+02,5.425101899999999659e+02
2.880000000000000000e+02,5.427995600000000422e+02
2.890000000000000000e+02,5.430888700000000426e+02
2.900000000000000000e+02,5.433758500000000140e+02
2.910000000000000000e+02,5.436603999999999814e+02
2.920000000000000000e+02,5.439423199999999952e+02
2.930000000000000000e+02,5.442231399999999439e+02
2.940000000000000000e+02,5.445018900000000031e+02
2.950000000000000000e+02,5.447781400000000076e+02
2.960000000000000000e+02,5.450544999999999618e+02
2.970000000000000000e+02,5.453283099999999877e+02
2.980000000000000000e+02,5.455999100000000226e+02
2.990000000000000000e+02,5.458693200000000161e+02
3.000000000000000000e+02,5.461372699999999440e+02
3.010000000000000000e+02,5.464034400000000460e+02
3.020000000000000000e+02,5.466687600000000202e+02
3.030000000000000000e+02,5.469321300000000292e+02
3.040000000000000000e+02,5.471933599999999842e+02
3.050000000000000000e+02,5.474523900000000367e+02
3.060000000000000000e+02,5.477100199999999859e+02
3.070000000000000000e+02,5.479674700000000485e+02
3.080000000000000000e+02,5.482225300000000061e+02
3.090000000000000000e+02,5.484759500000000116e+02
3.100000000000000000e+02,5.487270499999999629e+02
3.110000000000000000e+02,5.489771100000000388e+02
3.120000000000000000e+02,5.492266799999999876e+02
3.130000000000000000e+02,5.494733899999999949e+02
3.140000000000000000e+02,5.497188700000000381e+02
3.150000000000000000e+02,5.499626500000000533e+02
3.160000000000000000e+02,5.502054399999999532e+02
3.170000000000000000e+02,5.504469599999999900e+02
3.180000000000000000e+02,5.506862200000000485e+02
3.190000000000000000e+02,5.509243199999999661e+02
3.200000000000000000e+02,5.511622300000000223e+02
3.210000000000000000e+02,5.513972800000000234e+02
3.220000000000000000e+02,5.516310399999999845e+02
3.230000000000000000e+02,5.518640699999999697e+02
3.240000000000000000e+02,5.520956400000000031e+02
3.250000000000000000e+02,5.523256800000000339e+02
3.260000000000000000e+02,5.525537699999999859e+02
3.270000000000000000e+02,5.527819200000000137e+02
3.280000000000000000e+02,5.530074499999999489e+02
3.290000000000000000e+02,5.532319899999999961e+02
3.300000000000000000e+02,5.534558100000000422e+02
3.310000000000000000e+02,5.536782799999999725e+02
3.320000000000000000e+02,5.538992299999999886e+02
3.330000000000000000e+02,5.541192600000000539e+02
3.340000000000000000e+02,5.543378300000000536e+02
3.350000000000000000e+02,5.545546900000000505e+02
3.360000000000000000e+02,5.547720900000000483e+02
3.370000000000000000e+02,5.549868199999999661e+02
3.380000000000000000e+02,5.552007399999999961e+02
3.390000000000000000e+02,5.554139400000000251e+02
3.400000000000000000e+02,5.556259199999999510e+02
3.410000000000000000e+02,5.558359400000000505e+02
3.420000000000000000e+02,5.560461999999999989e+02
3.430000000000000000e+02,5.562540900000000192e+02
3.440000000000000000e+02,5.564614299999999503e+02
3.450000000000000000e+02,5.566688799999999446e+02
3.460000000000000000e+02,5.568737200000000485e+02
3.470000000000000000e+02,5.570778199999999742e+02
3.480000000000000000e+02,5.572813099999999622e+02
3.490000000000000000e+02,5.574837599999999611e+02
3.500000000000000000e+02,5.576856099999999969e+02
3.510000000000000000e+02,5.578862900000000309e+02
3.520000000000000000e+02,5.580852099999999609e+02
3.530000000000000000e+02,5.582847900000000436e+02
3.540000000000000000e+02,5.584818699999999581e+02
3.550000000000000000e+02,5.586794399999999996e+02
3.560000000000000000e+02,5.588750599999999622e+02
3.570000000000000000e+02,5.590698200000000497e+02
3.580000000000000000e+02,5.592640999999999849e+02
3.590000000000000000e+02,5.594576399999999694e+02
3.600000000000000000e+02,5.596502699999999777e+02
3.610000000000000000e+02,5.598416700000000219e+02
3.620000000000000000e+02,5.600315600000000131e+02
3.630000000000000000e+02,5.602221700000000055e+02
3.640000000000000000e+02,5.604105200000000195e+02
3.650000000000000000e+02,5.605990000000000464e+02
3.660000000000000000e+02,5.607866199999999708e+02
3.670000000000000000e+02,5.609723500000000058e+02
3.680000000000000000e+02,5.611591200000000299e+02
3.690000000000000000e+02,5.613438099999999622e+02
3.700000000000000000e+02,5.615288699999999835e+02
3.710000000000000000e+02,5.617120999999999640e+02
3.720000000000000000e+02,5.618959399999999960e+02
3.730000000000000000e+02,5.620775099999999611e+02
3.740000000000000000e+02,5.622587300000000141e+02
3.750000000000000000e+02,5.624395799999999781e+02
3.760000000000000000e+02,5.626195099999999911e+02
3.770000000000000000e+02,5.627990099999999529e+02
3.780000000000000000e+02,5.629770499999999629e+02
3.790000000000000000e+02,5.631557000000000244e+02
3.800000000000000000e+02,5.633325200000000450e+02
3.810000000000000000e+02,5.635100700000000415e+02
3.820000000000000000e+02,5.636854200000000219e+02
3.830000000000000000e+02,5.638616299999999910e+02
3.840000000000000000e+02,5.640358899999999949e+02
3.850000000000000000e+02,5.642095900000000483e+02
3.860000000000000000e+02,5.643830600000000004e+02
3.870000000000000000e+02,5.645551100000000133e+02
3.880000000000000000e+02,5.647280899999999519e+02
3.890000000000000000e+02,5.648993500000000267e+02
3.900000000000000000e+02,5.650710400000000391e+02
3.910000000000000000e+02,5.652408400000000483e+02
3.920000000000000000e+02,5.654115600000000086e+02
3.930000000000000000e+02,5.655801400000000285e+02
3.940000000000000000e+02,5.657486599999999726e+02
3.950000000000000000e+02,5.659169900000000553e+02
3.960000000000000000e+02,5.660847199999999475e+02
3.970000000000000000e+02,5.662518900000000031e+02
3.980000000000000000e+02,5.664185199999999440e+02
3.990000000000000000e+02,5.665845299999999725e+02
