# Time [s], Temperature [C]
1.000000000000000000e+00,4.720732100000000031e+01
2.000000000000000000e+00,5.930729300000000137e+01
3.000000000000000000e+00,6.920007300000000328e+01
4.000000000000000000e+00,7.741168999999999301e+01
5.000000000000000000e+00,8.462335199999999702e+01
6.000000000000000000e+00,9.107472199999999418e+01
7.000000000000000000e+00,9.695302599999999416e+01
8.000000000000000000e+00,1.023693999999999988e+02
9.000000000000000000e+00,1.074071399999999983e+02
1.000000000000000000e+01,1.121259900000000016e+02
1.100000000000000000e+01,1.165712400000000031e+02
1.200000000000000000e+01,1.207787200000000070e+02
1.300000000000000000e+01,1.247767000000000053e+02
1.400000000000000000e+01,1.285891699999999958e+02
1.500000000000000000e+01,1.322347900000000038e+02
1.600000000000000000e+01,1.357295699999999954e+02
1.700000000000000000e+01,1.390879799999999875e+02
1.800000000000000000e+01,1.423208799999999883e+02
1.900000000000000000e+01,1.454387099999999862e+02
2.000000000000000000e+01,1.484507399999999961e+02
2.100000000000000000e+01,1.513638300000000072e+02
2.200000000000000000e+01,1.541855799999999874e+02
2.300000000000000000e+01,1.569224100000000135e+02
2.400000000000000000e+01,1.595787500000000136e+02
2.500000000000000000e+01,1.621597299999999962e+02
2.600000000000000000e+01,1.646707299999999918e+02
2.700000000000000000e+01,1.671145899999999926e+02
2.800000000000000000e+01,1.694952399999999955e+02
2.900000000000000000e+01,1.718168900000000008e+02
3.000000000000000000e+01,1.740814799999999991e+02
3.100000000000000000e+01,1.762920399999999859e+02
3.200000000000000000e+01,1.784521599999999921e+02
3.300000000000000000e+01,1.805626100000000065e+02
3.400000000000000000e+01,1.826267200000000059e+02
3.500000000000000000e+01,1.846466100000000097e+02
3.600000000000000000e+01,1.866235399999999913e+02
3.700000000000000000e+01,1.885594299999999919e+02
3.800000000000000000e+01,1.904566800000000057e+02
3.900000000000000000e+01,1.923158599999999865e+02
4.000000000000000000e+01,1.941387000000000000e+02
4.100000000000000000e+01,1.959273699999999963e+02
4.200000000000000000e+01,1.976822699999999884e+02
4.300000000000000000e+01,1.994048500000000104e+02
4.400000000000000000e+01,2.010968799999999987e+02
4.500000000000000000e+01,2.027582600000000070e+02
4.600000000000000000e+01,2.043910500000000070e+02
4.700000000000000000e+01,2.059962500000000034e+02
4.800000000000000000e+01,2.075741700000000094e+02
4.900000000000000000e+01,2.091257300000000043e+02
5.000000000000000000e+01,2.106527399999999943e+02
5.100000000000000000e+01,2.121549500000000137e+02
5.200000000000000000e+01,2.136334400000000073e+02
5.300000000000000000e+01,2.150900100000000066e+02
5.400000000000000000e+01,2.165238200000000006e+02
5.500000000000000000e+01,2.179361100000000135e+02
5.600000000000000000e+01,2.193281200000000126e+02
5.700000000000000000e+01,2.206997200000000134e+02
5.800000000000000000e+01,2.220517000000000110e+02
5.900000000000000000e+01,2.233848999999999876e+02
6.000000000000000000e+01,2.246998900000000106e+02
6.100000000000000000e+01,2.259969800000000077e+02
6.200000000000000000e+01,2.272767200000000116e+02
6.300000000000000000e+01,2.285397600000000011e+02
6.400000000000000000e+01,2.297861599999999953e+02
6.500000000000000000e+01,2.310173299999999870e+02
6.600000000000000000e+01,2.322329400000000135e+02
6.700000000000000000e+01,2.334334699999999998e+02
6.800000000000000000e+01,2.346198899999999981e+02
6.900000000000000000e+01,2.357917300000000012e+02
7.000000000000000000e+01,2.369499399999999980e+02
7.100000000000000000e+01,2.380951399999999865e+02
7.200000000000000000e+01,2.392270800000000008e+02
7.300000000000000000e+01,2.403464099999999917e+02
7.400000000000000000e+01,2.414538300000000106e+02
7.500000000000000000e+01,2.425490700000000004e+02
7.600000000000000000e+01,2.436330000000000098e+02
7.700000000000000000e+01,2.447055499999999881e+02
7.800000000000000000e+01,2.457668799999999862e+02
7.900000000000000000e+01,2.468175999999999988e+02
8.000000000000000000e+01,2.478581700000000012e+02
8.100000000000000000e+01,2.488886300000000062e+02
8.200000000000000000e+01,2.499090899999999920e+02
8.300000000000000000e+01,2.509200899999999876e+02
8.400000000000000000e+01,2.519218299999999999e+02
8.500000000000000000e+01,2.529140500000000031e+02
8.600000000000000000e+01,2.538978700000000117e+02
8.700000000000000000e+01,2.548727399999999932e+02
8.800000000000000000e+01,2.558391100000000051e+02
8.900000000000000000e+01,2.567976400000000012e+02
9.000000000000000000e+01,2.577478899999999840e+02
9.100000000000000000e+01,2.586902200000000107e+02
9.200000000000000000e+01,2.596252099999999814e+02
9.300000000000000000e+01,2.605525799999999776e+02
9.400000000000000000e+01,2.614722899999999868e+02
9.500000000000000000e+01,2.623856200000000172e+02
9.600000000000000000e+01,2.632914700000000039e+02
9.700000000000000000e+01,2.641904599999999732e+02
9.800000000000000000e+01,2.650833700000000022e+02
9.900000000000000000e+01,2.659692400000000134e+02
1.000000000000000000e+02,2.668488199999999892e+02
1.010000000000000000e+02,2.677222899999999868e+02
1.020000000000000000e+02,2.685893899999999803e+02
1.030000000000000000e+02,2.694505300000000148e+02
1.040000000000000000e+02,2.703060899999999833e+02
1.050000000000000000e+02,2.711555500000000052e+02
1.060000000000000000e+02,2.719991099999999733e+02
1.070000000000000000e+02,2.728372499999999832e+02
1.080000000000000000e+02,2.736698600000000283e+02
1.090000000000000000e+02,2.744969800000000077e+02
1.100000000000000000e+02,2.753190900000000170e+02
1.110000000000000000e+02,2.761354999999999791e+02
1.120000000000000000e+02,2.769468100000000277e+02
1.130000000000000000e+02,2.777533900000000244e+02
1.140000000000000000e+02,2.785546899999999937e+02
1.150000000000000000e+02,2.793508899999999926e+02
1.160000000000000000e+02,2.801425800000000095e+02
1.170000000000000000e+02,2.809291999999999803e+02
1.180000000000000000e+02,2.817110000000000127e+02
1.190000000000000000e+02,2.824883399999999938e+02
1.200000000000000000e+02,2.832606200000000172e+02
1.210000000000000000e+02,2.840284399999999891e+02
1.220000000000000000e+02,2.847920500000000175e+02
1.230000000000000000e+02,2.855509900000000130e+02
1.240000000000000000e+02,2.863055400000000077e+02
1.250000000000000000e+02,2.870560899999999833e+02
1.260000000000000000e+02,2.878020900000000211e+02
1.270000000000000000e+02,2.885439799999999764e+02
1.280000000000000000e+02,2.892820699999999761e+02
1.290000000000000000e+02,2.900156900000000064e+02
1.300000000000000000e+02,2.907451199999999858e+02
1.310000000000000000e+02,2.914708600000000160e+02
1.320000000000000000e+02,2.921924399999999764e+02
1.330000000000000000e+02,2.929100599999999872e+02
1.340000000000000000e+02,2.936243000000000052e+02
1.350000000000000000e+02,2.943343800000000101e+02
1.360000000000000000e+02,2.950406800000000089e+02
1.370000000000000000e+02,2.957435600000000022e+02
1.380000000000000000e+02,2.964427800000000275e+02
1.390000000000000000e+02,2.971383700000000090e+02
1.400000000000000000e+02,2.978306299999999851e+02
1.410000000000000000e+02,2.985192000000000121e+02
1.420000000000000000e+02,2.992044099999999958e+02
1.430000000000000000e+02,2.998863200000000120e+02
1.440000000000000000e+02,3.005646699999999782e+02
1.450000000000000000e+02,3.012398400000000152e+02
1.460000000000000000e+02,3.019119900000000030e+02
1.470000000000000000e+02,3.025804699999999912e+02
1.480000000000000000e+02,3.032457299999999805e+02
1.490000000000000000e+02,3.039082300000000032e+02
1.500000000000000000e+02,3.045673800000000142e+02
1.510000000000000000e+02,3.052233299999999758e+02
1.520000000000000000e+02,3.058765900000000215e+02
1.530000000000000000e+02,3.065264300000000048e+02
1.540000000000000000e+02,3.071734299999999962e+02
1.550000000000000000e+02,3.078177800000000275e+02
1.560000000000000000e+02,3.084587700000000154e+02
1.570000000000000000e+02,3.090970800000000054e+02
1.580000000000000000e+02,3.097328200000000038e+02
1.590000000000000000e+02,3.103652299999999968e+02
1.600000000000000000e+02,3.109949300000000108e+02
1.610000000000000000e+02,3.116220999999999890e+02
1.620000000000000000e+02,3.122462800000000129e+02
1.630000000000000000e+02,3.128677700000000073e+02
1.640000000000000000e+02,3.134867899999999850e+02
1.650000000000000000e+02,3.141028699999999958e+02
1.660000000000000000e+02,3.147160299999999893e+02
1.670000000000000000e+02,3.153271500000000174e+02
1.680000000000000000e+02,3.159351199999999835e+02
1.690000000000000000e+02,3.165405900000000088e+02
1.700000000000000000e+02,3.171437700000000177e+02
1.710000000000000000e+02,3.177441999999999780e+02
1.720000000000000000e+02,3.183420100000000161e+02
1.730000000000000000e+02,3.189375299999999811e+02
1.740000000000000000e+02,3.195301200000000108e+02
1.750000000000000000e+02,3.201205400000000054e+02
1.760000000000000000e+02,3.207083099999999831e+02
1.770000000000000000e+02,3.212937600000000202e+02
1.780000000000000000e+02,3.218763700000000085e+02
1.790000000000000000e+02,3.224568499999999744e+02
1.800000000000000000e+02,3.230347600000000057e+02
1.810000000000000000e+02,3.236102000000000203e+02
1.820000000000000000e+02,3.241833500000000186e+02
1.830000000000000000e+02,3.247539699999999812e+02
1.840000000000000000e+02,3.253221399999999903e+02
1.850000000000000000e+02,3.258881799999999771e+02
1.860000000000000000e+02,3.264517799999999852e+02
1.870000000000000000e+02,3.270126599999999826e+02
1.880000000000000000e+02,3.275717500000000086e+02
1.890000000000000000e+02,3.281279599999999732e+02
1.900000000000000000e+02,3.286820999999999913e+02
1.910000000000000000e+02,3.292338599999999929e+02
1.920000000000000000e+02,3.297833899999999971e+02
1.930000000000000000e+02,3.303302899999999909e+02
1.940000000000000000e+02,3.308751800000000003e+02
1.950000000000000000e+02,3.314175999999999931e+02
1.960000000000000000e+02,3.319577300000000264e+02
1.970000000000000000e+02,3.324954799999999864e+02
1.980000000000000000e+02,3.330311300000000188e+02
1.990000000000000000e+02,3.335640599999999836e+02
2.000000000000000000e+02,3.340953400000000215e+02
2.010000000000000000e+02,3.346239299999999730e+02
2.020000000000000000e+02,3.351501799999999776e+02
2.030000000000000000e+02,3.541757200000000125e+02
2.040000000000000000e+02,3.630460199999999986e+02
2.050000000000000000e+02,3.705076900000000251e+02
2.060000000000000000e+02,3.763658100000000104e+02
2.070000000000000000e+02,3.814311200000000213e+02
2.080000000000000000e+02,3.858116099999999733e+02
2.090000000000000000e+02,3.897002600000000143e+02
2.100000000000000000e+02,3.931776699999999778e+02
2.110000000000000000e+02,3.963200400000000059e+02
2.120000000000000000e+02,3.991759000000000128e+02
2.130000000000000000e+02,4.017902799999999957e+02
2.140000000000000000e+02,4.041952499999999873e+02
2.150000000000000000e+02,4.064171799999999735e+02
2.160000000000000000e+02,4.084833399999999983e+02
2.170000000000000000e+02,4.104135400000000118e+02
2.180000000000000000e+02,4.122223799999999869e+02
2.190000000000000000e+02,4.139311799999999835e+02
2.200000000000000000e+02,4.155505699999999933e+02
2.210000000000000000e+02,4.170908499999999890e+02
2.220000000000000000e+02,4.185678399999999897e+02
2.230000000000000000e+02,4.199891400000000203e+02
2.240000000000000000e+02,4.213604399999999828e+02
2.250000000000000000e+02,4.226927800000000275e+02
2.260000000000000000e+02,4.239945999999999913e+02
2.270000000000000000e+02,4.252627600000000143e+02
2.280000000000000000e+02,4.265115700000000061e+02
2.290000000000000000e+02,4.277445099999999911e+02
2.300000000000000000e+02,4.289586499999999774e+02
2.310000000000000000e+02,4.301651899999999955e+02
2.320000000000000000e+02,4.313621499999999855e+02
2.330000000000000000e+02,4.325501100000000179e+02
2.340000000000000000e+02,4.337367600000000039e+02
2.350000000000000000e+02,4.349207200000000171e+02
2.360000000000000000e+02,4.361002500000000168e+02
2.370000000000000000e+02,4.372802399999999921e+02
2.380000000000000000e+02,4.384593499999999722e+02
2.390000000000000000e+02,4.396336699999999951e+02
2.400000000000000000e+02,4.408087499999999750e+02
2.410000000000000000e+02,4.419813800000000015e+02
2.420000000000000000e+02,4.431475199999999859e+02
2.430000000000000000e+02,4.443112199999999916e+02
2.440000000000000000e+02,4.454691799999999944e+02
2.450000000000000000e+02,4.466179500000000075e+02
2.460000000000000000e+02,4.477608000000000175e+02
2.470000000000000000e+02,4.488908400000000256e+02
2.480000000000000000e+02,4.500081500000000005e+02
2.490000000000000000e+02,4.511124599999999987e+02
2.500000000000000000e+02,4.522042500000000018e+02
2.510000000000000000e+02,4.532761800000000108e+02
2.520000000000000000e+02,4.543367299999999886e+02
2.530000000000000000e+02,4.553775899999999979e+02
2.540000000000000000e+02,4.564046000000000163e+02
2.550000000000000000e+02,4.574109799999999950e+02
2.560000000000000000e+02,4.584086899999999787e+02
2.570000000000000000e+02,4.593843400000000088e+02
2.580000000000000000e+02,4.603494000000000028e+02
2.590000000000000000e+02,4.612950399999999718e+02
2.600000000000000000e+02,4.622372399999999857e+02
2.610000000000000000e+02,4.631614099999999894e+02
2.620000000000000000e+02,4.640753799999999956e+02
2.630000000000000000e+02,4.649801600000000121e+02
2.640000000000000000e+02,4.658718600000000265e+02
2.650000000000000000e+02,4.667546699999999760e+02
2.660000000000000000e+02,4.676292100000000005e+02
2.670000000000000000e+02,4.684952099999999859e+02
2.680000000000000000e+02,4.693485999999999763e+02
2.690000000000000000e+02,4.701966600000000085e+02
2.700000000000000000e+02,4.710342400000000112e+02
2.710000000000000000e+02,4.718564799999999764e+02
2.720000000000000000e+02,4.726767300000000205e+02
2.730000000000000000e+02,4.734816599999999767e+02
2.740000000000000000e+02,4.742801799999999730e+02
2.750000000000000000e+02,4.750704700000000003e+02
2.760000000000000000e+02,4.758503699999999981e+02
2.770000000000000000e+02,4.766184099999999830e+02
2.780000000000000000e+02,4.773808300000000031e+02
2.790000000000000000e+02,4.781358900000000176e+02
2.800000000000000000e+02,4.788786600000000249e+02
2.810000000000000000e+02,4.796158100000000104e+02
2.820000000000000000e+02,4.803449100000000271e+02
2.830000000000000000e+02,4.810622900000000186e+02
2.840000000000000000e+02,4.817763400000000047e+02
2.850000000000000000e+02,4.824837600000000180e+02
2.860000000000000000e+02,4.831865500000000111e+02
2.870000000000000000e+02,4.838791499999999814e+02
2.880000000000000000e+02,4.845662800000000061e+02
2.890000000000000000e+02,4.852475600000000213e+02
2.900000000000000000e+02,4.859257799999999747e+02
2.910000000000000000e+02,4.865927699999999732e+02
2.920000000000000000e+02,4.872553399999999897e+02
2.930000000000000000e+02,4.879152799999999957e+02
2.940000000000000000e+02,4.885679900000000089e+02
2.950000000000000000e+02,4.892137099999999919e+02
2.960000000000000000e+02,4.898561700000000201e+02
2.970000000000000000e+02,4.904886200000000258e+02
2.980000000000000000e+02,4.911187100000000214e+02
2.990000000000000000e+02,4.917395900000000211e+02
3.000000000000000000e+02,4.923562000000000012e+02
3.010000000000000000e+02,4.929717699999999923e+02
3.020000000000000000e+02,4.935766300000000228e+02
3.030000000000000000e+02,4.941788300000000049e+02
3.040000000000000000e+02,4.947713600000000156e+02
3.050000000000000000e+02,4.953667300000000182e+02
3.060000000000000000e+02,4.959499200000000201e+02
3.070000000000000000e+02,4.965322600000000079e+02
3.080000000000000000e+02,4.971095000000000255e+02
3.090000000000000000e+02,4.976826199999999858e+02
3.100000000000000000e+02,4.982488999999999919e+02
3.110000000000000000e+02,4.988127700000000004e+02
3.120000000000000000e+02,4.993719500000000266e+02
3.130000000000000000e+02,4.999241299999999910e+02
3.140000000000000000e+02,5.004793099999999981e+02
3.150000000000000000e+02,5.010222499999999854e+02
3.160000000000000000e+02,5.015676000000000272e+02
3.170000000000000000e+02,5.021043399999999792e+02
3.180000000000000000e+02,5.026386699999999905e+02
3.190000000000000000e+02,5.031691000000000145e+02
3.200000000000000000e+02,5.036937300000000164e+02
3.210000000000000000e+02,5.042144799999999805e+02
3.220000000000000000e+02,5.047321200000000090e+02
3.230000000000000000e+02,5.052478300000000218e+02
3.240000000000000000e+02,5.057540300000000002e+02
3.250000000000000000e+02,5.062627299999999764e+02
3.260000000000000000e+02,5.067667200000000207e+02
3.270000000000000000e+02,5.072636699999999905e+02
3.280000000000000000e+02,5.077583900000000199e+02
3.290000000000000000e+02,5.082506399999999758e+02
3.300000000000000000e+02,5.087391999999999825e+02
3.310000000000000000e+02,5.092222300000000246e+02
3.320000000000000000e+02,5.097036100000000260e+02
3.330000000000000000e+02,5.101805699999999888e+02
3.340000000000000000e+02,5.106546299999999974e+02
3.350000000000000000e+02,5.111265599999999836e+02
3.360000000000000000e+02,5.115926499999999919e+02
3.370000000000000000e+02,5.120575000000000045e+02
3.380000000000000000e+02,5.125181300000000419e+02
3.390000000000000000e+02,5.129750999999999976e+02
3.400000000000000000e+02,5.134299899999999752e+02
3.410000000000000000e+02,5.138822599999999738e+02
3.420000000000000000e+02,5.143284899999999880e+02
3.430000000000000000e+02,5.147739299999999503e+02
3.440000000000000000e+02,5.152165499999999838e+02
3.450000000000000000e+02,5.156535000000000082e+02
3.460000000000000000e+02,5.160884399999999914e+02
3.470000000000000000e+02,5.165211199999999963e+02
3.480000000000000000e+02,5.169511700000000474e+02
3.490000000000000000e+02,5.173773800000000165e+02
3.500000000000000000e+02,5.177999300000000176e+02
3.510000000000000000e+02,5.182205199999999650e+02
3.520000000000000000e+02,5.186380599999999959e+02
3.530000000000000000e+02,5.190542000000000371e+02
3.540000000000000000e+02,5.194661899999999832e+02
3.550000000000000000e+02,5.198729200000000219e+02
3.560000000000000000e+02,5.202795399999999972e+02
3.570000000000000000e+02,5.206825000000000045e+02
3.580000000000000000e+02,5.210835600000000341e+02
3.590000000000000000e+02,5.214821799999999712e+02
3.600000000000000000e+02,5.218748799999999619e+02
3.610000000000000000e+02,5.222667800000000398e+02
3.620000000000000000e+02,5.226569799999999759e+02
3.630000000000000000e+02,5.230433299999999690e+02
3.640000000000000000e+02,5.234270000000000209e+02
3.650000000000000000e+02,5.238096299999999701e+02
3.660000000000000000e+02,5.241891500000000406e+02
3.670000000000000000e+02,5.245651199999999790e+02
3.680000000000000000e+02,5.249392100000000028e+02
3.690000000000000000e+02,5.253086499999999432e+02
3.700000000000000000e+02,5.256771899999999960e+02
3.710000000000000000e+02,5.260432100000000446e+02
3.720000000000000000e+02,5.264060100000000375e+02
3.730000000000000000e+02,5.267672099999999773e+02
3.740000000000000000e+02,5.271263400000000274e+02
3.750000000000000000e+02,5.274839500000000498e+02
3.760000000000000000e+02,5.278364299999999503e+02
3.770000000000000000e+02,5.281881100000000515e+02
3.780000000000000000e+02,5.285361299999999574e+02
3.790000000000000000e+02,5.288825100000000248e+02
3.800000000000000000e+02,5.292271100000000388e+02
3.810000000000000000e+02,5.295690299999999979e+02
3.820000000000000000e+02,5.299081400000000031e+02
3.830000000000000000e+02,5.302471900000000460e+02
3.840000000000000000e+02,5.305801999999999907e+02
3.850000000000000000e+02,5.309123499999999467e+02
3.860000000000000000e+02,5.312425500000000511e+02
3.870000000000000000e+02,5.315704299999999876e+02
3.880000000000000000e+02,5.318963599999999587e+02
3.890000000000000000e+02,5.322219800000000305e+02
3.900000000000000000e+02,5.325420500000000175e+02
3.910000000000000000e+02,5.328615099999999529e+02
3.920000000000000000e+02,5.331807300000000396e+02
3.930000000000000000e+02,5.334960300000000188e+02
3.940000000000000000e+02,5.338105500000000347e+02
3.950000000000000000e+02,5.341208500000000186e+02
3.960000000000000000e+02,5.344301799999999503e+02
3.970000000000000000e+02,5.347366899999999532e+02
3.980000000000000000e+02,5.350418100000000550e+02
3.990000000000000000e+02,5.353458299999999781e+02
