# Time [s], Convective Heat Transfer Coefficient [W/m2K]
1.000000000000000000e+00,0.000000000000000000e+00
2.000000000000000000e+00,0.000000000000000000e+00
3.000000000000000000e+00,1.915079995362458862e-02
4.000000000000000000e+00,3.574028725257893252e-02
5.000000000000000000e+00,5.917354552135824924e-02
6.000000000000000000e+00,9.162028243445757836e-02
7.000000000000000000e+00,1.337291113248581520e-01
8.000000000000000000e+00,1.865953559812408014e-01
9.000000000000000000e+00,2.499386429051544956e-01
1.000000000000000000e+01,3.232611866642507437e-01
1.100000000000000000e+01,4.056183966954967079e-01
1.200000000000000000e+01,4.958345670970891739e-01
1.300000000000000000e+01,5.927033811412254494e-01
1.400000000000000000e+01,6.949988788250289762e-01
1.500000000000000000e+01,8.016048071233344841e-01
1.600000000000000000e+01,9.115085500344597413e-01
1.700000000000000000e+01,1.023836024362068997e+00
1.800000000000000000e+01,1.137844959820116353e+00
1.900000000000000000e+01,1.252900560687089104e+00
2.000000000000000000e+01,1.368472100432631455e+00
2.100000000000000000e+01,1.484127608984804114e+00
2.200000000000000000e+01,1.599501982202503170e+00
2.300000000000000000e+01,1.714298678715245883e+00
2.400000000000000000e+01,1.828275175520959861e+00
2.500000000000000000e+01,1.941232014105644277e+00
2.600000000000000000e+01,2.053004779068860142e+00
2.700000000000000000e+01,2.163461321980432839e+00
2.800000000000000000e+01,2.272495575820723701e+00
2.900000000000000000e+01,2.380020077267723355e+00
3.000000000000000000e+01,2.485970997773257363e+00
3.100000000000000000e+01,2.590301299465890494e+00
3.200000000000000000e+01,2.692976552193127926e+00
3.300000000000000000e+01,2.793979181748635021e+00
3.400000000000000000e+01,2.893305335703274306e+00
3.500000000000000000e+01,2.990958300158663263e+00
3.600000000000000000e+01,3.086956039655486261e+00
3.700000000000000000e+01,3.181318436160460283e+00
3.800000000000000000e+01,3.274076039890755574e+00
3.900000000000000000e+01,3.365261565643494546e+00
4.000000000000000000e+01,3.454907492393921586e+00
4.100000000000000000e+01,3.543050278216916649e+00
4.200000000000000000e+01,3.629726141728845334e+00
4.300000000000000000e+01,3.714973356559495787e+00
4.400000000000000000e+01,3.798825142936788524e+00
4.500000000000000000e+01,3.881318911707910324e+00
4.600000000000000000e+01,3.962487799708780400e+00
4.700000000000000000e+01,4.042363020448029864e+00
4.800000000000000000e+01,4.120977578231966199e+00
4.900000000000000000e+01,4.198360161797582535e+00
5.000000000000000000e+01,4.274541048343206917e+00
5.100000000000000000e+01,4.349547599922694019e+00
5.200000000000000000e+01,4.423406950556159956e+00
5.300000000000000000e+01,4.496145412654851015e+00
5.400000000000000000e+01,4.567788062980046249e+00
5.500000000000000000e+01,4.638359993083618349e+00
5.600000000000000000e+01,4.707886716334673594e+00
5.700000000000000000e+01,4.776387998051291106e+00
5.800000000000000000e+01,4.843887636037677247e+00
5.900000000000000000e+01,4.910408802585751076e+00
6.000000000000000000e+01,4.975971402557566314e+00
6.100000000000000000e+01,5.040596936575913567e+00
6.200000000000000000e+01,5.104305410490736605e+00
6.300000000000000000e+01,5.167116776399206302e+00
6.400000000000000000e+01,5.229050075924861929e+00
6.500000000000000000e+01,5.290124546122914495e+00
6.600000000000000000e+01,5.350358985136692169e+00
6.700000000000000000e+01,5.409771404635394632e+00
6.800000000000000000e+01,5.468379238455638003e+00
6.900000000000000000e+01,5.526200715695856580e+00
7.000000000000000000e+01,5.585160662820331190e+00
7.100000000000000000e+01,5.642216351389063966e+00
7.200000000000000000e+01,5.698285843310185506e+00
7.300000000000000000e+01,5.753440954293507659e+00
7.400000000000000000e+01,5.807773908043255773e+00
7.500000000000000000e+01,5.861328025894787963e+00
7.600000000000000000e+01,5.914138276653475579e+00
7.700000000000000000e+01,5.966231883126144275e+00
7.800000000000000000e+01,6.017633092123602978e+00
7.900000000000000000e+01,6.068364408273695609e+00
8.000000000000000000e+01,6.118448674269243881e+00
8.100000000000000000e+01,6.167907381520815413e+00
8.200000000000000000e+01,6.216762623942610588e+00
8.300000000000000000e+01,6.265035650250264432e+00
8.400000000000000000e+01,6.312745695144366564e+00
8.500000000000000000e+01,6.359910679274560330e+00
8.600000000000000000e+01,6.406544909393612208e+00
8.700000000000000000e+01,6.452661022929667034e+00
8.800000000000000000e+01,6.498267885858764359e+00
8.900000000000000000e+01,6.543373010112434329e+00
9.000000000000000000e+01,6.587981778692257429e+00
9.100000000000000000e+01,6.632097210741810578e+00
9.200000000000000000e+01,6.675724313972997592e+00
9.300000000000000000e+01,6.718867358955426639e+00
9.400000000000000000e+01,6.761531970010249637e+00
9.500000000000000000e+01,6.803723520263483593e+00
9.600000000000000000e+01,6.845448393093636952e+00
9.700000000000000000e+01,6.886712684955338837e+00
9.800000000000000000e+01,6.927523440027552049e+00
9.900000000000000000e+01,6.967884012739413713e+00
1.000000000000000000e+02,7.007798567043693083e+00
1.010000000000000000e+02,7.047269906967053466e+00
1.020000000000000000e+02,7.086300481572785692e+00
1.030000000000000000e+02,7.124890095323963557e+00
1.040000000000000000e+02,7.163039696018405067e+00
1.050000000000000000e+02,7.200747021092515077e+00
1.060000000000000000e+02,7.238012568452619533e+00
1.070000000000000000e+02,7.274836354757177048e+00
1.080000000000000000e+02,7.311220563477071721e+00
1.090000000000000000e+02,7.347168567745535839e+00
1.100000000000000000e+02,7.382685300465564815e+00
1.110000000000000000e+02,7.417777179320608205e+00
1.120000000000000000e+02,7.452451616155297387e+00
1.130000000000000000e+02,7.486713839870774656e+00
1.140000000000000000e+02,7.520571963527773462e+00
1.150000000000000000e+02,7.554032549361657800e+00
1.160000000000000000e+02,7.587100881994084389e+00
1.170000000000000000e+02,7.619782435922595631e+00
1.180000000000000000e+02,7.652081468879464943e+00
1.190000000000000000e+02,7.684001668038842325e+00
1.200000000000000000e+02,7.715544993751679570e+00
1.210000000000000000e+02,7.746713699547989940e+00
1.220000000000000000e+02,7.777508964923507406e+00
1.230000000000000000e+02,7.807932280497498212e+00
1.240000000000000000e+02,7.837985244216564951e+00
1.250000000000000000e+02,7.867671825562386978e+00
1.260000000000000000e+02,7.896996399611678541e+00
1.270000000000000000e+02,7.925964850897715408e+00
1.280000000000000000e+02,7.954585260142106762e+00
1.290000000000000000e+02,7.982864705728968779e+00
1.300000000000000000e+02,8.010812402869392557e+00
1.310000000000000000e+02,8.038435285062059066e+00
1.320000000000000000e+02,8.065742043649059667e+00
1.330000000000000000e+02,8.092738782083262805e+00
1.340000000000000000e+02,8.119431945364839365e+00
1.350000000000000000e+02,8.145826723314421258e+00
1.360000000000000000e+02,8.171926041095300519e+00
1.370000000000000000e+02,8.197733941608806418e+00
1.380000000000000000e+02,8.223251569816094175e+00
1.390000000000000000e+02,8.248480015163378809e+00
1.400000000000000000e+02,8.273418944755761117e+00
1.410000000000000000e+02,8.298069535225950588e+00
1.420000000000000000e+02,8.322430878352879091e+00
1.430000000000000000e+02,8.346505081886288480e+00
1.440000000000000000e+02,8.370293339746140759e+00
1.450000000000000000e+02,8.393800277638371554e+00
1.460000000000000000e+02,8.417029892734054997e+00
1.470000000000000000e+02,8.439987544292540278e+00
1.480000000000000000e+02,8.462678774260613324e+00
1.490000000000000000e+02,8.485109792120594463e+00
1.500000000000000000e+02,8.507285033325912238e+00
1.510000000000000000e+02,8.529208494402002572e+00
1.520000000000000000e+02,8.550883745490615695e+00
1.530000000000000000e+02,8.572312667835936040e+00
1.540000000000000000e+02,8.593496923049402270e+00
1.550000000000000000e+02,8.614437327773018183e+00
1.560000000000000000e+02,8.635133246175561439e+00
1.570000000000000000e+02,8.655584342833817502e+00
1.580000000000000000e+02,8.675788708703173313e+00
1.590000000000000000e+02,8.695745218687999767e+00
1.600000000000000000e+02,8.715452896134230798e+00
1.610000000000000000e+02,8.734911675641892970e+00
1.620000000000000000e+02,8.754122687660050417e+00
1.630000000000000000e+02,8.773088688439830918e+00
1.640000000000000000e+02,8.791814176962743588e+00
1.650000000000000000e+02,8.810303398715944923e+00
1.660000000000000000e+02,8.828560502716616298e+00
1.670000000000000000e+02,8.846590292824863866e+00
1.680000000000000000e+02,8.864395236539470702e+00
1.690000000000000000e+02,8.881978332202599802e+00
1.700000000000000000e+02,8.899340734446479217e+00
1.710000000000000000e+02,8.916483262918042385e+00
1.720000000000000000e+02,8.933405088648161296e+00
1.730000000000000000e+02,8.950105226165561589e+00
1.740000000000000000e+02,8.966581662125093999e+00
1.750000000000000000e+02,8.982832968953164965e+00
1.760000000000000000e+02,8.998856558585520915e+00
1.770000000000000000e+02,9.014650862599596692e+00
1.780000000000000000e+02,9.030215169650967155e+00
1.790000000000000000e+02,9.045550325287525339e+00
1.800000000000000000e+02,9.060658705395750800e+00
1.810000000000000000e+02,9.075543622718313941e+00
1.820000000000000000e+02,9.090209312517350426e+00
1.830000000000000000e+02,9.104659083310231438e+00
1.840000000000000000e+02,9.118896036742551559e+00
1.850000000000000000e+02,9.132922229848647433e+00
1.860000000000000000e+02,9.146738691870321958e+00
1.870000000000000000e+02,9.160345021624706874e+00
1.880000000000000000e+02,9.173741077743834182e+00
1.890000000000000000e+02,9.186925032802033542e+00
1.900000000000000000e+02,9.199894918179728265e+00
1.910000000000000000e+02,9.212649176734883483e+00
1.920000000000000000e+02,9.225185143121375830e+00
1.930000000000000000e+02,9.237501938521592848e+00
1.940000000000000000e+02,9.249599624978600332e+00
1.950000000000000000e+02,9.261479056271776145e+00
1.960000000000000000e+02,9.273144045880098219e+00
1.970000000000000000e+02,9.284598071600493441e+00
1.980000000000000000e+02,9.295845771172981387e+00
1.990000000000000000e+02,9.306890226901831653e+00
2.000000000000000000e+02,9.317734468616203358e+00
2.010000000000000000e+02,9.328379592032433720e+00
2.020000000000000000e+02,9.338827063219444113e+00
2.030000000000000000e+02,9.349076571980937445e+00
2.040000000000000000e+02,9.359127120490560614e+00
2.050000000000000000e+02,9.368978763935464471e+00
2.060000000000000000e+02,9.378630070524783591e+00
2.070000000000000000e+02,9.388080527059956992e+00
2.080000000000000000e+02,9.397331059410948484e+00
2.090000000000000000e+02,9.406383092230024445e+00
2.100000000000000000e+02,9.415241053510255753e+00
2.110000000000000000e+02,9.423909579430743477e+00
2.120000000000000000e+02,9.432393777239402866e+00
2.130000000000000000e+02,9.440699354105523966e+00
2.140000000000000000e+02,9.448829466975878333e+00
2.150000000000000000e+02,9.456787756555364410e+00
2.160000000000000000e+02,9.464575600088602769e+00
2.170000000000000000e+02,9.472195262002987448e+00
2.180000000000000000e+02,9.479647412315651778e+00
2.190000000000000000e+02,9.486932570277959442e+00
2.200000000000000000e+02,9.494051235532745991e+00
2.210000000000000000e+02,9.501005314837868809e+00
2.220000000000000000e+02,9.507797464654411002e+00
2.230000000000000000e+02,9.514431086495212853e+00
2.240000000000000000e+02,9.520912905417462824e+00
2.250000000000000000e+02,9.527248951029733348e+00
2.260000000000000000e+02,9.533445594377964127e+00
2.270000000000000000e+02,9.539507103425993506e+00
2.280000000000000000e+02,9.545437713443094552e+00
2.290000000000000000e+02,9.551240473451512614e+00
2.300000000000000000e+02,9.556917126181982525e+00
2.310000000000000000e+02,9.562469652619942195e+00
2.320000000000000000e+02,9.567899248089906550e+00
2.330000000000000000e+02,9.573207859844933054e+00
2.340000000000000000e+02,9.578397928080850221e+00
2.350000000000000000e+02,9.583472766148407374e+00
2.360000000000000000e+02,9.588438466470201149e+00
2.370000000000000000e+02,9.593301724878580572e+00
2.380000000000000000e+02,9.598068314078215479e+00
2.390000000000000000e+02,9.602743978092609822e+00
2.400000000000000000e+02,9.607332531114430196e+00
2.410000000000000000e+02,9.611836754506070335e+00
2.420000000000000000e+02,9.616258655375487407e+00
2.430000000000000000e+02,9.620599723477157639e+00
2.440000000000000000e+02,9.624861186549798830e+00
2.450000000000000000e+02,9.629045400474391059e+00
2.460000000000000000e+02,9.633154835486367418e+00
2.470000000000000000e+02,9.637194092691462544e+00
2.480000000000000000e+02,9.641168888161576689e+00
2.490000000000000000e+02,9.645086300702399029e+00
2.500000000000000000e+02,9.648951749508906772e+00
2.510000000000000000e+02,9.652769252761814300e+00
2.520000000000000000e+02,9.656541182564415848e+00
2.530000000000000000e+02,9.660268898857266251e+00
2.540000000000000000e+02,9.663953630886529922e+00
2.550000000000000000e+02,9.667596477812439915e+00
2.560000000000000000e+02,9.671199160226827019e+00
2.570000000000000000e+02,9.674764017953274120e+00
2.580000000000000000e+02,9.678298007017520632e+00
2.590000000000000000e+02,9.681807438103609442e+00
2.600000000000000000e+02,9.685297854462701750e+00
2.610000000000000000e+02,9.688774783137899860e+00
2.620000000000000000e+02,9.692241118334521843e+00
2.630000000000000000e+02,9.695698251636834186e+00
2.640000000000000000e+02,9.699145704095290199e+00
2.650000000000000000e+02,9.702584987628583235e+00
2.660000000000000000e+02,9.706017609838072602e+00
2.670000000000000000e+02,9.709447805806686205e+00
2.680000000000000000e+02,9.712882528485357270e+00
2.690000000000000000e+02,9.716331315059496987e+00
2.700000000000000000e+02,9.719801197421958250e+00
2.710000000000000000e+02,9.723294605897354614e+00
2.720000000000000000e+02,9.726813963477370706e+00
2.730000000000000000e+02,9.730360449338157025e+00
2.740000000000000000e+02,9.733933756172437057e+00
2.750000000000000000e+02,9.737537651125485638e+00
2.760000000000000000e+02,9.741178850343265694e+00
2.770000000000000000e+02,9.744869842779888103e+00
2.780000000000000000e+02,9.748621723277041795e+00
2.790000000000000000e+02,9.752442719614185407e+00
2.800000000000000000e+02,9.756334267049302511e+00
2.810000000000000000e+02,9.760297424475618655e+00
2.820000000000000000e+02,9.764332261861518703e+00
2.830000000000000000e+02,9.768448782385238616e+00
2.840000000000000000e+02,9.772665041208032477e+00
2.850000000000000000e+02,9.777002944363283987e+00
2.860000000000000000e+02,9.781476236843717587e+00
2.870000000000000000e+02,9.786086745921561914e+00
2.880000000000000000e+02,9.790835669635239213e+00
2.890000000000000000e+02,9.795732362898403878e+00
2.900000000000000000e+02,9.800815256263501141e+00
2.910000000000000000e+02,9.806135018867921715e+00
2.920000000000000000e+02,9.811704861257476651e+00
2.930000000000000000e+02,9.817516277807309066e+00
2.940000000000000000e+02,9.823634032157031015e+00
2.950000000000000000e+02,9.830180419668986147e+00
2.960000000000000000e+02,9.837160378057630439e+00
2.970000000000000000e+02,9.845163268765647402e+00
2.980000000000000000e+02,9.853177043766969234e+00
2.990000000000000000e+02,9.861049959911863283e+00
3.000000000000000000e+02,9.868845060833390193e+00
3.010000000000000000e+02,9.876590545866879012e+00
3.020000000000000000e+02,9.884302693972145448e+00
3.030000000000000000e+02,9.891993255707024701e+00
3.040000000000000000e+02,9.899667577874820878e+00
3.050000000000000000e+02,9.907329662249381386e+00
3.060000000000000000e+02,9.914982771419193597e+00
3.070000000000000000e+02,9.922630266767397345e+00
3.080000000000000000e+02,9.930274658041501112e+00
3.090000000000000000e+02,9.937915357867751709e+00
3.100000000000000000e+02,9.945553320986840973e+00
3.110000000000000000e+02,9.953189614464761803e+00
3.120000000000000000e+02,9.960824236996597136e+00
3.130000000000000000e+02,9.968458836526837175e+00
3.140000000000000000e+02,9.976091287022157417e+00
3.150000000000000000e+02,9.983722294061072589e+00
3.160000000000000000e+02,9.991353614292631136e+00
3.170000000000000000e+02,9.998982778628775492e+00
3.180000000000000000e+02,1.000660978805106716e+01
3.190000000000000000e+02,1.001423534391356007e+01
3.200000000000000000e+02,1.002185874471391358e+01
3.210000000000000000e+02,1.002948092244530720e+01
3.220000000000000000e+02,1.003709966614997917e+01
3.230000000000000000e+02,1.004471544675347161e+01
3.240000000000000000e+02,1.005232942741411684e+01
3.250000000000000000e+02,1.005993940985368162e+01
3.260000000000000000e+02,1.006754494150958479e+01
3.270000000000000000e+02,1.007514787897882691e+01
3.280000000000000000e+02,1.008274557696323370e+01
3.290000000000000000e+02,1.009033816546544671e+01
3.300000000000000000e+02,1.009792565892536942e+01
3.310000000000000000e+02,1.010550875948726102e+01
3.320000000000000000e+02,1.011308576151153460e+01
3.330000000000000000e+02,1.012065668386822281e+01
3.340000000000000000e+02,1.012822108887314698e+01
3.350000000000000000e+02,1.013577956697589322e+01
3.360000000000000000e+02,1.014333077094749846e+01
3.370000000000000000e+02,1.015087438404251863e+01
3.380000000000000000e+02,1.015841122579013778e+01
3.390000000000000000e+02,1.016593927913493722e+01
3.400000000000000000e+02,1.017345868791100827e+01
3.410000000000000000e+02,1.018097140208682028e+01
3.420000000000000000e+02,1.018847451107556168e+01
3.430000000000000000e+02,1.019596782390685874e+01
3.440000000000000000e+02,1.020345373682507351e+01
3.450000000000000000e+02,1.021092924290233483e+01
3.460000000000000000e+02,1.021839494031673112e+01
3.470000000000000000e+02,1.022585142376179768e+01
3.480000000000000000e+02,1.023329738415456625e+01
3.490000000000000000e+02,1.024073174326552937e+01
3.500000000000000000e+02,1.024815710728509721e+01
3.510000000000000000e+02,1.025557072499702826e+01
3.520000000000000000e+02,1.026297263951992633e+01
3.530000000000000000e+02,1.027036455839081341e+01
3.540000000000000000e+02,1.027774374657769840e+01
3.550000000000000000e+02,1.028511113650933240e+01
3.560000000000000000e+02,1.029246754476773518e+01
3.570000000000000000e+02,1.029981113500023326e+01
3.580000000000000000e+02,1.030714184430030222e+01
3.590000000000000000e+02,1.031446093047709311e+01
3.600000000000000000e+02,1.032176623805639082e+01
3.610000000000000000e+02,1.032905847646133601e+01
3.620000000000000000e+02,1.033633747456366692e+01
3.630000000000000000e+02,1.034360382806078071e+01
3.640000000000000000e+02,1.035085714595856743e+01
3.650000000000000000e+02,1.035809616658076671e+01
3.660000000000000000e+02,1.036532246807202640e+01
3.670000000000000000e+02,1.037253479089650021e+01
3.680000000000000000e+02,1.037973231709239386e+01
3.690000000000000000e+02,1.038691640322260668e+01
3.700000000000000000e+02,1.039408612293393119e+01
3.710000000000000000e+02,1.040124109595750035e+01
3.720000000000000000e+02,1.040838191656461298e+01
3.730000000000000000e+02,1.041550766503876702e+01
3.740000000000000000e+02,1.042261807320365641e+01
3.750000000000000000e+02,1.042971459610369855e+01
3.760000000000000000e+02,1.043679588669628622e+01
3.770000000000000000e+02,1.044386135644576363e+01
3.780000000000000000e+02,1.045091159888817955e+01
3.790000000000000000e+02,1.045794656211323570e+01
3.800000000000000000e+02,1.046496662199591299e+01
3.810000000000000000e+02,1.047197097814070688e+01
3.820000000000000000e+02,1.047895947399801742e+01
3.830000000000000000e+02,1.048593280549127016e+01
3.840000000000000000e+02,1.049289038894158743e+01
3.850000000000000000e+02,1.049983164370519617e+01
3.860000000000000000e+02,1.050675758274917548e+01
3.870000000000000000e+02,1.051366571890857848e+01
3.880000000000000000e+02,1.052055918341143936e+01
3.890000000000000000e+02,1.052743633794235478e+01
3.900000000000000000e+02,1.053429702948938562e+01
3.910000000000000000e+02,1.054114173786657460e+01
3.920000000000000000e+02,1.054797020383833761e+01
3.930000000000000000e+02,1.055478185420924397e+01
3.940000000000000000e+02,1.056157800763221211e+01
3.950000000000000000e+02,1.056835609802154785e+01
3.960000000000000000e+02,1.057511849203575416e+01
3.970000000000000000e+02,1.058186388525066945e+01
3.980000000000000000e+02,1.058859285914995318e+01
