# Time [s], Convective Heat Transfer Coefficient [W/m2K]
1.000000000000000000e+00,0.000000000000000000e+00
2.000000000000000000e+00,0.000000000000000000e+00
3.000000000000000000e+00,1.915079995362458862e-02
4.000000000000000000e+00,3.040000000141642594e-02
5.000000000000000000e+00,4.774898591629385403e-02
6.000000000000000000e+00,7.260821395136821121e-02
7.000000000000000000e+00,1.061927940227121725e-01
8.000000000000000000e+00,1.479940158281781437e-01
9.000000000000000000e+00,1.982871540031453106e-01
1.000000000000000000e+01,2.564569365290869096e-01
1.100000000000000000e+01,3.217304537462397085e-01
1.200000000000000000e+01,3.932794391298838343e-01
1.300000000000000000e+01,4.700690184081455225e-01
1.400000000000000000e+01,5.511589426523939572e-01
1.500000000000000000e+01,6.356451206904867313e-01
1.600000000000000000e+01,7.227450554498108248e-01
1.700000000000000000e+01,8.117540789089662256e-01
1.800000000000000000e+01,9.020858001086204947e-01
1.900000000000000000e+01,9.932379176183094849e-01
2.000000000000000000e+01,1.084800404915689631e+00
2.100000000000000000e+01,1.176424326921901686e+00
2.200000000000000000e+01,1.267825885635062155e+00
2.300000000000000000e+01,1.358775402199067006e+00
2.400000000000000000e+01,1.449088015942703755e+00
2.500000000000000000e+01,1.538611086608173251e+00
2.600000000000000000e+01,1.627223154514086723e+00
2.700000000000000000e+01,1.714832664916985827e+00
2.800000000000000000e+01,1.801364652291451929e+00
2.900000000000000000e+01,1.886763856632740932e+00
3.000000000000000000e+01,1.970988087522835830e+00
3.100000000000000000e+01,2.054009685434992072e+00
3.200000000000000000e+01,2.135809387489671973e+00
3.300000000000000000e+01,2.216375702819638693e+00
3.400000000000000000e+01,2.295705644191356143e+00
3.500000000000000000e+01,2.373800018957478386e+00
3.600000000000000000e+01,2.450665193776447204e+00
3.700000000000000000e+01,2.526310153263807923e+00
3.800000000000000000e+01,2.600747962479692532e+00
3.900000000000000000e+01,2.673993145375603842e+00
4.000000000000000000e+01,2.746063588805553568e+00
4.100000000000000000e+01,2.816977760307403322e+00
4.200000000000000000e+01,2.886755955416192343e+00
4.300000000000000000e+01,2.955417603245749980e+00
4.400000000000000000e+01,3.022983399515494440e+00
4.500000000000000000e+01,3.089475570530777038e+00
4.600000000000000000e+01,3.154915735066689653e+00
4.700000000000000000e+01,3.219325886366277256e+00
4.800000000000000000e+01,3.282727429697201327e+00
4.900000000000000000e+01,3.345142017655844846e+00
5.000000000000000000e+01,3.406591515732377395e+00
5.100000000000000000e+01,3.467096624542580496e+00
5.200000000000000000e+01,3.526677861577466100e+00
5.300000000000000000e+01,3.585356454809240478e+00
5.400000000000000000e+01,3.643152343436764529e+00
5.500000000000000000e+01,3.700085888418521041e+00
5.600000000000000000e+01,3.756174724114906827e+00
5.700000000000000000e+01,3.811438171774545136e+00
5.800000000000000000e+01,3.865896219218572405e+00
5.900000000000000000e+01,3.919564939749494048e+00
6.000000000000000000e+01,3.972462584337096647e+00
6.100000000000000000e+01,4.024605919327079562e+00
6.200000000000000000e+01,4.076011629843773854e+00
6.300000000000000000e+01,4.126694496521023048e+00
6.400000000000000000e+01,4.176671338749658347e+00
6.500000000000000000e+01,4.225956807853300745e+00
6.600000000000000000e+01,4.274565777842170178e+00
6.700000000000000000e+01,4.322512914852528532e+00
6.800000000000000000e+01,4.369811262825378684e+00
6.900000000000000000e+01,4.416474610667495249e+00
7.000000000000000000e+01,4.462515924065127315e+00
7.100000000000000000e+01,4.507948042373169706e+00
7.200000000000000000e+01,4.552782769795776119e+00
7.300000000000000000e+01,4.597032454476818408e+00
7.400000000000000000e+01,4.640709216403642756e+00
7.500000000000000000e+01,4.683824475559117850e+00
7.600000000000000000e+01,4.726388741516383440e+00
7.700000000000000000e+01,4.768413330540365536e+00
7.800000000000000000e+01,4.809908819363664989e+00
7.900000000000000000e+01,4.850886044695535304e+00
8.000000000000000000e+01,4.891354459870405513e+00
8.100000000000000000e+01,4.931324454649291589e+00
8.200000000000000000e+01,4.970805711504505453e+00
8.300000000000000000e+01,5.009807815358756855e+00
8.400000000000000000e+01,5.048340532062702835e+00
8.500000000000000000e+01,5.086413293275004577e+00
8.600000000000000000e+01,5.124035396074269499e+00
8.700000000000000000e+01,5.161215702185502074e+00
8.800000000000000000e+01,5.197963316144560864e+00
8.900000000000000000e+01,5.234287523594743696e+00
9.000000000000000000e+01,5.270195838679226696e+00
9.100000000000000000e+01,5.305696574540180066e+00
9.200000000000000000e+01,5.340797968391709283e+00
9.300000000000000000e+01,5.375508550023943677e+00
9.400000000000000000e+01,5.409836402610702422e+00
9.500000000000000000e+01,5.443788874204411599e+00
9.600000000000000000e+01,5.477373909994422085e+00
9.700000000000000000e+01,5.510598859491886437e+00
9.800000000000000000e+01,5.543470359472150832e+00
9.900000000000000000e+01,5.575995316641084720e+00
1.000000000000000000e+02,5.608180705853826886e+00
1.010000000000000000e+02,5.640033455953647135e+00
1.020000000000000000e+02,5.671559833925869043e+00
1.030000000000000000e+02,5.702766201290320858e+00
1.040000000000000000e+02,5.733658617508157640e+00
1.050000000000000000e+02,5.764242680151947518e+00
1.060000000000000000e+02,5.794524176830531559e+00
1.070000000000000000e+02,5.824508523523471482e+00
1.080000000000000000e+02,5.854201637667395097e+00
1.090000000000000000e+02,5.883608391721417696e+00
1.100000000000000000e+02,5.912734607163333322e+00
1.110000000000000000e+02,5.941584455454512081e+00
1.120000000000000000e+02,5.970162639450067310e+00
1.130000000000000000e+02,5.998474010541301915e+00
1.140000000000000000e+02,6.026523078617072926e+00
1.150000000000000000e+02,6.054314698804480699e+00
1.160000000000000000e+02,6.081853201747972726e+00
1.170000000000000000e+02,6.109142448896155209e+00
1.180000000000000000e+02,6.136185977868922059e+00
1.190000000000000000e+02,6.162988526901713726e+00
1.200000000000000000e+02,6.189553661348755398e+00
1.210000000000000000e+02,6.215885520563804612e+00
1.220000000000000000e+02,6.241987682540184323e+00
1.230000000000000000e+02,6.267863366305135742e+00
1.240000000000000000e+02,6.293516067471671249e+00
1.250000000000000000e+02,6.318949283480522539e+00
1.260000000000000000e+02,6.344166281186569556e+00
1.270000000000000000e+02,6.369170971948879156e+00
1.280000000000000000e+02,6.393966226267018271e+00
1.290000000000000000e+02,6.418554624480492521e+00
1.300000000000000000e+02,6.442939539520681436e+00
1.310000000000000000e+02,6.467123903934355766e+00
1.320000000000000000e+02,6.491110393240943743e+00
1.330000000000000000e+02,6.514902428470327855e+00
1.340000000000000000e+02,6.538502506652829283e+00
1.350000000000000000e+02,6.561913593513121867e+00
1.360000000000000000e+02,6.585138027376546077e+00
1.370000000000000000e+02,6.608178077501991154e+00
1.380000000000000000e+02,6.631036745307497426e+00
1.390000000000000000e+02,6.653716417568332098e+00
1.400000000000000000e+02,6.676219675399112319e+00
1.410000000000000000e+02,6.698549027131782019e+00
1.420000000000000000e+02,6.720707170174900824e+00
1.430000000000000000e+02,6.742695440266154527e+00
1.440000000000000000e+02,6.764516413881900725e+00
1.450000000000000000e+02,6.786172343533765527e+00
1.460000000000000000e+02,6.807665420896832131e+00
1.470000000000000000e+02,6.828998029965081429e+00
1.480000000000000000e+02,6.850171992962106771e+00
1.490000000000000000e+02,6.871189579549474402e+00
1.500000000000000000e+02,6.892053000572520460e+00
1.510000000000000000e+02,6.912764165127817328e+00
1.520000000000000000e+02,6.933324202730908326e+00
1.530000000000000000e+02,6.953735665149083367e+00
1.540000000000000000e+02,6.974000078305788719e+00
1.550000000000000000e+02,6.994119407911900232e+00
1.560000000000000000e+02,7.014095333253545839e+00
1.570000000000000000e+02,7.033929965279989815e+00
1.580000000000000000e+02,7.053624658328175201e+00
1.590000000000000000e+02,7.073181435162979369e+00
1.600000000000000000e+02,7.092601805286493644e+00
1.610000000000000000e+02,7.111887241969346185e+00
1.620000000000000000e+02,7.131040334354059596e+00
1.630000000000000000e+02,7.150062010228233511e+00
1.640000000000000000e+02,7.168953174524202332e+00
1.650000000000000000e+02,7.187716296013852535e+00
1.660000000000000000e+02,7.206352436570017339e+00
1.670000000000000000e+02,7.224862857337414290e+00
1.680000000000000000e+02,7.243249236860414442e+00
1.690000000000000000e+02,7.261512772696516294e+00
1.700000000000000000e+02,7.279655077165208432e+00
1.710000000000000000e+02,7.297677947406339349e+00
1.720000000000000000e+02,7.315582486117247818e+00
1.730000000000000000e+02,7.333369553939740548e+00
1.740000000000000000e+02,7.351041291740722627e+00
1.750000000000000000e+02,7.368598287440483396e+00
1.760000000000000000e+02,7.386042187874720888e+00
1.770000000000000000e+02,7.403374178999278854e+00
1.780000000000000000e+02,7.420595421936847735e+00
1.790000000000000000e+02,7.437707476870556889e+00
1.800000000000000000e+02,7.454711240839471564e+00
1.810000000000000000e+02,7.471608011355930223e+00
1.820000000000000000e+02,7.488398642484975554e+00
1.830000000000000000e+02,7.505085217426861632e+00
1.840000000000000000e+02,7.521668124764896213e+00
1.850000000000000000e+02,7.538148773824815407e+00
1.860000000000000000e+02,7.554528546974784931e+00
1.870000000000000000e+02,7.570808187660292177e+00
1.880000000000000000e+02,7.586988830976606479e+00
1.890000000000000000e+02,7.603071792932047934e+00
1.900000000000000000e+02,7.619058163456286614e+00
1.910000000000000000e+02,7.634949212869936552e+00
1.920000000000000000e+02,7.650745588316948620e+00
1.930000000000000000e+02,7.666448919995820788e+00
1.940000000000000000e+02,7.682059817635241927e+00
1.950000000000000000e+02,7.697579866843688556e+00
1.960000000000000000e+02,7.713009445150892596e+00
1.970000000000000000e+02,7.728350294023404565e+00
1.980000000000000000e+02,7.743603149386410145e+00
1.990000000000000000e+02,7.758769317115002728e+00
2.000000000000000000e+02,7.773849499818686226e+00
2.010000000000000000e+02,7.788844773368649221e+00
2.020000000000000000e+02,7.803756579818957206e+00
2.030000000000000000e+02,7.818585188622717119e+00
2.040000000000000000e+02,7.833332580427743608e+00
2.050000000000000000e+02,7.847999374150259833e+00
2.060000000000000000e+02,7.862585799213110072e+00
2.070000000000000000e+02,7.877094155316382462e+00
2.080000000000000000e+02,7.891524263331435307e+00
2.090000000000000000e+02,7.905877818135808255e+00
2.100000000000000000e+02,7.920155368988926803e+00
2.110000000000000000e+02,7.934358385595219332e+00
2.120000000000000000e+02,7.948487018365983481e+00
2.130000000000000000e+02,7.962542522039711912e+00
2.140000000000000000e+02,7.976525764444155620e+00
2.150000000000000000e+02,7.990437600030753984e+00
2.160000000000000000e+02,8.004278504751715317e+00
2.170000000000000000e+02,8.018049857210398201e+00
2.180000000000000000e+02,8.031752471591707021e+00
2.190000000000000000e+02,8.045386788192441685e+00
2.200000000000000000e+02,8.058953420492395381e+00
2.210000000000000000e+02,8.072453511556584971e+00
2.220000000000000000e+02,8.085887292949701433e+00
2.230000000000000000e+02,8.099255884375480719e+00
2.240000000000000000e+02,8.112559856192168795e+00
2.250000000000000000e+02,8.125799770309351189e+00
2.260000000000000000e+02,8.138976180359005497e+00
2.270000000000000000e+02,8.152089984153187530e+00
2.280000000000000000e+02,8.165141189139863087e+00
2.290000000000000000e+02,8.178131201932863803e+00
2.300000000000000000e+02,8.191060014648803289e+00
2.310000000000000000e+02,8.203928662164672758e+00
2.320000000000000000e+02,8.216736605083680089e+00
2.330000000000000000e+02,8.229485211141899015e+00
2.340000000000000000e+02,8.242174968739702123e+00
2.350000000000000000e+02,8.254806015864470936e+00
2.360000000000000000e+02,8.267379001777685588e+00
2.370000000000000000e+02,8.279894225538543040e+00
2.380000000000000000e+02,8.292351811540280337e+00
2.390000000000000000e+02,8.304752730500158719e+00
2.400000000000000000e+02,8.317096925420335296e+00
2.410000000000000000e+02,8.329385014075846527e+00
2.420000000000000000e+02,8.341617269712026328e+00
2.430000000000000000e+02,8.353793626101991165e+00
2.440000000000000000e+02,8.365914686008018464e+00
2.450000000000000000e+02,8.377980544107151317e+00
2.460000000000000000e+02,8.389991792084547484e+00
2.470000000000000000e+02,8.401947853310609560e+00
2.480000000000000000e+02,8.413849479733359615e+00
2.490000000000000000e+02,8.426088023439321617e+00
2.500000000000000000e+02,8.438031030061740267e+00
2.510000000000000000e+02,8.449873761486877299e+00
2.520000000000000000e+02,8.461623224397763821e+00
2.530000000000000000e+02,8.473295800236208208e+00
2.540000000000000000e+02,8.484897769098653342e+00
2.550000000000000000e+02,8.496432908169008869e+00
2.560000000000000000e+02,8.507903658231478872e+00
2.570000000000000000e+02,8.519312270984507052e+00
2.580000000000000000e+02,8.530660329232064853e+00
2.590000000000000000e+02,8.541948916374936474e+00
2.600000000000000000e+02,8.553179423175272689e+00
2.610000000000000000e+02,8.564352426676272501e+00
2.620000000000000000e+02,8.575469451868119819e+00
2.630000000000000000e+02,8.586531054262092510e+00
2.640000000000000000e+02,8.597537940986171634e+00
2.650000000000000000e+02,8.608490337044035101e+00
2.660000000000000000e+02,8.619389409534669255e+00
2.670000000000000000e+02,8.630234583971805762e+00
2.680000000000000000e+02,8.641026388079200871e+00
2.690000000000000000e+02,8.651763623090674926e+00
2.700000000000000000e+02,8.662446661094977074e+00
2.710000000000000000e+02,8.673074313286356585e+00
2.720000000000000000e+02,8.683645711867530537e+00
2.730000000000000000e+02,8.694159841443680037e+00
2.740000000000000000e+02,8.704615695187326807e+00
2.750000000000000000e+02,8.715011966367345764e+00
2.760000000000000000e+02,8.725347974340255774e+00
2.770000000000000000e+02,8.735622123046042020e+00
2.780000000000000000e+02,8.745833748089699711e+00
2.790000000000000000e+02,8.755982036947354885e+00
2.800000000000000000e+02,8.766066335246829766e+00
2.810000000000000000e+02,8.776086144851058535e+00
2.820000000000000000e+02,8.786040818707947508e+00
2.830000000000000000e+02,8.795930016354565950e+00
2.840000000000000000e+02,8.805752794612613954e+00
2.850000000000000000e+02,8.815509271139072567e+00
2.860000000000000000e+02,8.825198508442412049e+00
2.870000000000000000e+02,8.834819875126791899e+00
2.880000000000000000e+02,8.844372892800546282e+00
2.890000000000000000e+02,8.853856487693320787e+00
2.900000000000000000e+02,8.863270188993283227e+00
2.910000000000000000e+02,8.872612932751962944e+00
2.920000000000000000e+02,8.881883958320436534e+00
2.930000000000000000e+02,8.891082508885315150e+00
2.940000000000000000e+02,8.900207683526971891e+00
2.950000000000000000e+02,8.909258586034720651e+00
2.960000000000000000e+02,8.918234766253751999e+00
2.970000000000000000e+02,8.927135774826957970e+00
2.980000000000000000e+02,8.935961309699496979e+00
2.990000000000000000e+02,8.944711068282016342e+00
3.000000000000000000e+02,8.953385185474738606e+00
3.010000000000000000e+02,8.961983792165401752e+00
3.020000000000000000e+02,8.970506724327638182e+00
3.030000000000000000e+02,8.978954106584067674e+00
3.040000000000000000e+02,8.987326349475985410e+00
3.050000000000000000e+02,8.995623134211710337e+00
3.060000000000000000e+02,9.003844718926295343e+00
3.070000000000000000e+02,9.011990924461901642e+00
3.080000000000000000e+02,9.020062001560692266e+00
3.090000000000000000e+02,9.028057334417441737e+00
3.100000000000000000e+02,9.035977025366028315e+00
3.110000000000000000e+02,9.043820600447705971e+00
3.120000000000000000e+02,9.051587585858285934e+00
3.130000000000000000e+02,9.059278363660080657e+00
3.140000000000000000e+02,9.066891886199337947e+00
3.150000000000000000e+02,9.074428389018455832e+00
3.160000000000000000e+02,9.081887393198904590e+00
3.170000000000000000e+02,9.089269128122245078e+00
3.180000000000000000e+02,9.096573393961131515e+00
3.190000000000000000e+02,9.103800695041650570e+00
3.200000000000000000e+02,9.110951388149628016e+00
3.210000000000000000e+02,9.118025542936228689e+00
3.220000000000000000e+02,9.125024209431744637e+00
3.230000000000000000e+02,9.131947585766859277e+00
3.240000000000000000e+02,9.138796005837310332e+00
3.250000000000000000e+02,9.145569938314928038e+00
3.260000000000000000e+02,9.152269845948371341e+00
3.270000000000000000e+02,9.158896046115474476e+00
3.280000000000000000e+02,9.165448851267017361e+00
3.290000000000000000e+02,9.171928151541457908e+00
3.300000000000000000e+02,9.178334251490188223e+00
3.310000000000000000e+02,9.184667173362923265e+00
3.320000000000000000e+02,9.190926797639979995e+00
3.330000000000000000e+02,9.197113279148529941e+00
3.340000000000000000e+02,9.203226907004264490e+00
3.350000000000000000e+02,9.209267413614789177e+00
3.360000000000000000e+02,9.215234943242899490e+00
3.370000000000000000e+02,9.221129636311374611e+00
3.380000000000000000e+02,9.226952041928358383e+00
3.390000000000000000e+02,9.232702566050015491e+00
3.400000000000000000e+02,9.238381883901510605e+00
3.410000000000000000e+02,9.243990390431051196e+00
3.420000000000000000e+02,9.249529159861522132e+00
3.430000000000000000e+02,9.254998711741484030e+00
3.440000000000000000e+02,9.260399833355720034e+00
3.450000000000000000e+02,9.265733441900794176e+00
3.460000000000000000e+02,9.270999766687635812e+00
3.470000000000000000e+02,9.276199441441493221e+00
3.480000000000000000e+02,9.281333230308447924e+00
3.490000000000000000e+02,9.286401077027480966e+00
3.500000000000000000e+02,9.291403329805971723e+00
3.510000000000000000e+02,9.296340468253104561e+00
3.520000000000000000e+02,9.301212832110932638e+00
3.530000000000000000e+02,9.306020757204059635e+00
3.540000000000000000e+02,9.310764710530454735e+00
3.550000000000000000e+02,9.315444615155165309e+00
3.560000000000000000e+02,9.320061200592794748e+00
3.570000000000000000e+02,9.324614517903937028e+00
3.580000000000000000e+02,9.329105288071328772e+00
3.590000000000000000e+02,9.333534226949520729e+00
3.600000000000000000e+02,9.337902850869053140e+00
3.610000000000000000e+02,9.342211192903690176e+00
3.620000000000000000e+02,9.346460891868208165e+00
3.630000000000000000e+02,9.350652373577840848e+00
3.640000000000000000e+02,9.354786595341694877e+00
3.650000000000000000e+02,9.358864509101012530e+00
3.660000000000000000e+02,9.362887195093332338e+00
3.670000000000000000e+02,9.366854260370869767e+00
3.680000000000000000e+02,9.370766644556505653e+00
3.690000000000000000e+02,9.374625415519551197e+00
3.700000000000000000e+02,9.378431103501098320e+00
3.710000000000000000e+02,9.382183836362619545e+00
3.720000000000000000e+02,9.385883606986007877e+00
3.730000000000000000e+02,9.389531336021398999e+00
3.740000000000000000e+02,9.393127408907327336e+00
3.750000000000000000e+02,9.396672473434101391e+00
3.760000000000000000e+02,9.400167173853805735e+00
3.770000000000000000e+02,9.403612548096003110e+00
3.780000000000000000e+02,9.407008439005696943e+00
3.790000000000000000e+02,9.410357067816407906e+00
3.800000000000000000e+02,9.413658666596523616e+00
3.810000000000000000e+02,9.416914389460517398e+00
3.820000000000000000e+02,9.420125649869621753e+00
3.830000000000000000e+02,9.423292801596829804e+00
3.840000000000000000e+02,9.426416459760426747e+00
3.850000000000000000e+02,9.429497894960913840e+00
3.860000000000000000e+02,9.432537583966942307e+00
3.870000000000000000e+02,9.435535869770916406e+00
3.880000000000000000e+02,9.438493487657884984e+00
3.890000000000000000e+02,9.441411170056779767e+00
3.900000000000000000e+02,9.444288990401609851e+00
3.910000000000000000e+02,9.447127283307926504e+00
3.920000000000000000e+02,9.449927299228274791e+00
3.930000000000000000e+02,9.452688712645340274e+00
3.940000000000000000e+02,9.455413030961951293e+00
3.950000000000000000e+02,9.458100579524712614e+00
3.960000000000000000e+02,9.460752336040716415e+00
3.970000000000000000e+02,9.463369405946727042e+00
3.980000000000000000e+02,9.465952368923847615e+00
