# Time [s], Convective Heat Transfer Coefficient [W/m2K]
1.000000000000000000e+00,0.000000000000000000e+00
2.000000000000000000e+00,0.000000000000000000e+00
3.000000000000000000e+00,0.000000000000000000e+00
4.000000000000000000e+00,1.915079995362458862e-02
5.000000000000000000e+00,3.574028725257893252e-02
6.000000000000000000e+00,5.780487740346602205e-02
7.000000000000000000e+00,8.784074779022797708e-02
8.000000000000000000e+00,1.258808595825459120e-01
9.000000000000000000e+00,1.725539995221521683e-01
1.000000000000000000e+01,2.273224328547099604e-01
1.100000000000000000e+01,2.897791327869571609e-01
1.200000000000000000e+01,3.590448689661050463e-01
1.300000000000000000e+01,4.342446523081556209e-01
1.400000000000000000e+01,5.144621041527962513e-01
1.500000000000000000e+01,5.988180327029768435e-01
1.600000000000000000e+01,6.865028960633295929e-01
1.700000000000000000e+01,7.767959942137920848e-01
1.800000000000000000e+01,8.690616007037441637e-01
1.900000000000000000e+01,9.627562957483908335e-01
2.000000000000000000e+01,1.057414011785907437e+00
2.100000000000000000e+01,1.152641707036449414e+00
2.200000000000000000e+01,1.248105893381507014e+00
2.300000000000000000e+01,1.343525604585395161e+00
2.400000000000000000e+01,1.438671731631467443e+00
2.500000000000000000e+01,1.533350109814848539e+00
2.600000000000000000e+01,1.627399973167506619e+00
2.700000000000000000e+01,1.720695365955166922e+00
2.800000000000000000e+01,1.813127486473905314e+00
2.900000000000000000e+01,1.904610898339483382e+00
3.000000000000000000e+01,1.995076371619047384e+00
3.100000000000000000e+01,2.084471684008818659e+00
3.200000000000000000e+01,2.172755764530267975e+00
3.300000000000000000e+01,2.259898002348994961e+00
3.400000000000000000e+01,2.345875947408006201e+00
3.500000000000000000e+01,2.430674027185703245e+00
3.600000000000000000e+01,2.514284770504171540e+00
3.700000000000000000e+01,2.596705078323979343e+00
3.800000000000000000e+01,2.677935485319653974e+00
3.900000000000000000e+01,2.757980843900776691e+00
4.000000000000000000e+01,2.836850016598488455e+00
4.100000000000000000e+01,2.914551357675839949e+00
4.200000000000000000e+01,2.991097653750219187e+00
4.300000000000000000e+01,3.066504912785340764e+00
4.400000000000000000e+01,3.140785543977303806e+00
4.500000000000000000e+01,3.213958676760422239e+00
4.600000000000000000e+01,3.286039615802604175e+00
4.700000000000000000e+01,3.357046679318323346e+00
4.800000000000000000e+01,3.426998236877050186e+00
4.900000000000000000e+01,3.495914084845150427e+00
5.000000000000000000e+01,3.563811915713902323e+00
5.100000000000000000e+01,3.630709543493305880e+00
5.200000000000000000e+01,3.696627872767233036e+00
5.300000000000000000e+01,3.761584829740860059e+00
5.400000000000000000e+01,3.825599946019515585e+00
5.500000000000000000e+01,3.888691412891408294e+00
5.600000000000000000e+01,3.950877744457897300e+00
5.700000000000000000e+01,4.012177183718853790e+00
5.800000000000000000e+01,4.072607926527386901e+00
5.900000000000000000e+01,4.132187491224203590e+00
6.000000000000000000e+01,4.190933999257840270e+00
6.100000000000000000e+01,4.248863622181666244e+00
6.200000000000000000e+01,4.305992604507848931e+00
6.300000000000000000e+01,4.362337872182333598e+00
6.400000000000000000e+01,4.417917134208240171e+00
6.500000000000000000e+01,4.472743999904645662e+00
6.600000000000000000e+01,4.526834021415348630e+00
6.700000000000000000e+01,4.580203871038030172e+00
6.800000000000000000e+01,4.632866707315561605e+00
6.900000000000000000e+01,4.684836905212137026e+00
7.000000000000000000e+01,4.736129530522598330e+00
7.100000000000000000e+01,4.786756920597022180e+00
7.200000000000000000e+01,4.836734045962398199e+00
7.300000000000000000e+01,4.886071996858307287e+00
7.400000000000000000e+01,4.934785460598503981e+00
7.500000000000000000e+01,4.982885050176062869e+00
7.600000000000000000e+01,5.030384658083347560e+00
7.700000000000000000e+01,5.077294282972772521e+00
7.800000000000000000e+01,5.123627503316154019e+00
7.900000000000000000e+01,5.169394052990186061e+00
8.000000000000000000e+01,5.214604879588032205e+00
8.100000000000000000e+01,5.259271439215806865e+00
8.200000000000000000e+01,5.303403356980035177e+00
8.300000000000000000e+01,5.347012089881088670e+00
8.400000000000000000e+01,5.390106543153001084e+00
8.500000000000000000e+01,5.432696119977599380e+00
8.600000000000000000e+01,5.474791497508173066e+00
8.700000000000000000e+01,5.516400717828007672e+00
8.800000000000000000e+01,5.557532979218422042e+00
8.900000000000000000e+01,5.598197987652175911e+00
9.000000000000000000e+01,5.638403450382752702e+00
9.100000000000000000e+01,5.678158226382985951e+00
9.200000000000000000e+01,5.717469451049955076e+00
9.300000000000000000e+01,5.756346041559256221e+00
9.400000000000000000e+01,5.794795473738354019e+00
9.500000000000000000e+01,5.832825319515057672e+00
9.600000000000000000e+01,5.870442865324943860e+00
9.700000000000000000e+01,5.907655765880620358e+00
9.800000000000000000e+01,5.944470628786764799e+00
9.900000000000000000e+01,5.980894484442370818e+00
1.000000000000000000e+02,6.016934274618853884e+00
1.010000000000000000e+02,6.052596697191248154e+00
1.020000000000000000e+02,6.087887588001984263e+00
1.030000000000000000e+02,6.122813780490736768e+00
1.040000000000000000e+02,6.157380640797630811e+00
1.050000000000000000e+02,6.191594896759067268e+00
1.060000000000000000e+02,6.225462086644703241e+00
1.070000000000000000e+02,6.258988266373844311e+00
1.080000000000000000e+02,6.292178681061660228e+00
1.090000000000000000e+02,6.325038655702093671e+00
1.100000000000000000e+02,6.357574199121620140e+00
1.110000000000000000e+02,6.389790163324954975e+00
1.120000000000000000e+02,6.421691720551765847e+00
1.130000000000000000e+02,6.453283138900313354e+00
1.140000000000000000e+02,6.484570470707194723e+00
1.150000000000000000e+02,6.515558213974743218e+00
1.160000000000000000e+02,6.546250697019626585e+00
1.170000000000000000e+02,6.576652627710051213e+00
1.180000000000000000e+02,6.606768539953142394e+00
1.190000000000000000e+02,6.636602536066353863e+00
1.200000000000000000e+02,6.666159886753537656e+00
1.210000000000000000e+02,6.695443324543685293e+00
1.220000000000000000e+02,6.724458331372350273e+00
1.230000000000000000e+02,6.753207887944775223e+00
1.240000000000000000e+02,6.781696651921374830e+00
1.250000000000000000e+02,6.809928111847409760e+00
1.260000000000000000e+02,6.837906388051645301e+00
1.270000000000000000e+02,6.865634965694989766e+00
1.280000000000000000e+02,6.893117459637831956e+00
1.290000000000000000e+02,6.920357609630214846e+00
1.300000000000000000e+02,6.947358790768404013e+00
1.310000000000000000e+02,6.974124749927663736e+00
1.320000000000000000e+02,7.000658158907474338e+00
1.330000000000000000e+02,7.026962551642539800e+00
1.340000000000000000e+02,7.053041586552187603e+00
1.350000000000000000e+02,7.078897874445932104e+00
1.360000000000000000e+02,7.104534640219964281e+00
1.370000000000000000e+02,7.129955470905498416e+00
1.380000000000000000e+02,7.155162702791258766e+00
1.390000000000000000e+02,7.180159963098944331e+00
1.400000000000000000e+02,7.204948743272051814e+00
1.410000000000000000e+02,7.229533399394324711e+00
1.420000000000000000e+02,7.253915939229390375e+00
1.430000000000000000e+02,7.278099194827708729e+00
1.440000000000000000e+02,7.302085697884003856e+00
1.450000000000000000e+02,7.325878344198841319e+00
1.460000000000000000e+02,7.349479515417608688e+00
1.470000000000000000e+02,7.372891526430572107e+00
1.480000000000000000e+02,7.396117269710350328e+00
1.490000000000000000e+02,7.419159134318674909e+00
1.500000000000000000e+02,7.442019021778945920e+00
1.510000000000000000e+02,7.464699621638404281e+00
1.520000000000000000e+02,7.487203135061722747e+00
1.530000000000000000e+02,7.509531912460944980e+00
1.540000000000000000e+02,7.531688036651467577e+00
1.550000000000000000e+02,7.553673741257476593e+00
1.560000000000000000e+02,7.575491406614211165e+00
1.570000000000000000e+02,7.597142338964507857e+00
1.580000000000000000e+02,7.618629826191095411e+00
1.590000000000000000e+02,7.639954871028986183e+00
1.600000000000000000e+02,7.661119445821001683e+00
1.610000000000000000e+02,7.682126466023207811e+00
1.620000000000000000e+02,7.702976608404913605e+00
1.630000000000000000e+02,7.723672492235442277e+00
1.640000000000000000e+02,7.744215895103419456e+00
1.650000000000000000e+02,7.764608552065234370e+00
1.660000000000000000e+02,7.784852350112289265e+00
1.670000000000000000e+02,7.804948747974972179e+00
1.680000000000000000e+02,7.824899743188116652e+00
1.690000000000000000e+02,7.844706907544063412e+00
1.700000000000000000e+02,7.864371776534991199e+00
1.710000000000000000e+02,7.883896603757735377e+00
1.720000000000000000e+02,7.903282656791553507e+00
1.730000000000000000e+02,7.922530987462914176e+00
1.740000000000000000e+02,7.941643550770407067e+00
1.750000000000000000e+02,7.960621890400415346e+00
1.760000000000000000e+02,7.979467516397051874e+00
1.770000000000000000e+02,7.998181723138299226e+00
1.780000000000000000e+02,8.016766323073541756e+00
1.790000000000000000e+02,8.035222728434231243e+00
1.800000000000000000e+02,8.053551960573072321e+00
1.810000000000000000e+02,8.071755916611051518e+00
1.820000000000000000e+02,8.089835203562328658e+00
1.830000000000000000e+02,8.107792016343642771e+00
1.840000000000000000e+02,8.125626911653993645e+00
1.850000000000000000e+02,8.143341491755158756e+00
1.860000000000000000e+02,8.160936975836641238e+00
1.870000000000000000e+02,8.178415083462319046e+00
1.880000000000000000e+02,8.195776455655863657e+00
1.890000000000000000e+02,8.213022413164974722e+00
1.900000000000000000e+02,8.230154251067439475e+00
1.910000000000000000e+02,8.247172895235664214e+00
1.920000000000000000e+02,8.264080281258427974e+00
1.930000000000000000e+02,8.280876602712371692e+00
1.940000000000000000e+02,8.297563406841772959e+00
1.950000000000000000e+02,8.314141704736300653e+00
1.960000000000000000e+02,8.330612656821546835e+00
1.970000000000000000e+02,8.346977065982935429e+00
1.980000000000000000e+02,8.363236388815360911e+00
1.990000000000000000e+02,8.379391222625624636e+00
2.000000000000000000e+02,8.395442816759079108e+00
2.010000000000000000e+02,8.411392233013613051e+00
2.020000000000000000e+02,8.427240349304145894e+00
2.030000000000000000e+02,8.442988191631824790e+00
2.040000000000000000e+02,8.458636767816521740e+00
2.050000000000000000e+02,8.474186578905175793e+00
2.060000000000000000e+02,8.489639415074060835e+00
2.070000000000000000e+02,8.504995257607804504e+00
2.080000000000000000e+02,8.520256020284673326e+00
2.090000000000000000e+02,8.535423908217763866e+00
2.100000000000000000e+02,8.550501412964536030e+00
2.110000000000000000e+02,8.565494658409891215e+00
2.120000000000000000e+02,8.580411430026643416e+00
2.130000000000000000e+02,8.595263999032241031e+00
2.140000000000000000e+02,8.610067467124705942e+00
2.150000000000000000e+02,8.624840348418659985e+00
2.160000000000000000e+02,8.639603100309093620e+00
2.170000000000000000e+02,8.654377777572603847e+00
2.180000000000000000e+02,8.669185667530840078e+00
2.190000000000000000e+02,8.684047766409914715e+00
2.200000000000000000e+02,8.698984007481938008e+00
2.210000000000000000e+02,8.714011887586854854e+00
2.220000000000000000e+02,8.729146504316497968e+00
2.230000000000000000e+02,8.744400133477203241e+00
2.240000000000000000e+02,8.759783341588669003e+00
2.250000000000000000e+02,8.775303035586409450e+00
2.260000000000000000e+02,8.790964341680171046e+00
2.270000000000000000e+02,8.806769578049040703e+00
2.280000000000000000e+02,8.822719656922441089e+00
2.290000000000000000e+02,8.838812760587504869e+00
2.300000000000000000e+02,8.855045883805209073e+00
2.310000000000000000e+02,8.871415005018844724e+00
2.320000000000000000e+02,8.887914068912809995e+00
2.330000000000000000e+02,8.904536059152528438e+00
2.340000000000000000e+02,8.921274047992895362e+00
2.350000000000000000e+02,8.938119438550380380e+00
2.360000000000000000e+02,8.955063604198038263e+00
2.370000000000000000e+02,8.972098182473368766e+00
2.380000000000000000e+02,8.989213478889647391e+00
2.390000000000000000e+02,9.006400659179714552e+00
2.400000000000000000e+02,9.023650441290717694e+00
2.410000000000000000e+02,9.040953535505327210e+00
2.420000000000000000e+02,9.058301502409246808e+00
2.430000000000000000e+02,9.075685174968198154e+00
2.440000000000000000e+02,9.093096797423289246e+00
2.450000000000000000e+02,9.110527743064137596e+00
2.460000000000000000e+02,9.127970077269450755e+00
2.470000000000000000e+02,9.145416825143708905e+00
2.480000000000000000e+02,9.162860838549631737e+00
2.490000000000000000e+02,9.180294938810728667e+00
2.500000000000000000e+02,9.197712886312801928e+00
2.510000000000000000e+02,9.215109363097869988e+00
2.520000000000000000e+02,9.232478307735904721e+00
2.530000000000000000e+02,9.249814571159461707e+00
2.540000000000000000e+02,9.267113354440958517e+00
2.550000000000000000e+02,9.284369794848560176e+00
2.560000000000000000e+02,9.301579237537236367e+00
2.570000000000000000e+02,9.318738579597823701e+00
2.580000000000000000e+02,9.335843689607495222e+00
2.590000000000000000e+02,9.352890764401879053e+00
2.600000000000000000e+02,9.369877256232417295e+00
2.610000000000000000e+02,9.386799458530894924e+00
2.620000000000000000e+02,9.403654909278754914e+00
2.630000000000000000e+02,9.420441313294015018e+00
2.640000000000000000e+02,9.437155487537340903e+00
2.650000000000000000e+02,9.453795603123172242e+00
2.660000000000000000e+02,9.470359464573324004e+00
2.670000000000000000e+02,9.486845296375287617e+00
2.680000000000000000e+02,9.503250309685835617e+00
2.690000000000000000e+02,9.519573561295262110e+00
2.700000000000000000e+02,9.535813604658827103e+00
2.710000000000000000e+02,9.551968754858153332e+00
2.720000000000000000e+02,9.568037476000011310e+00
2.730000000000000000e+02,9.584018123605293482e+00
2.740000000000000000e+02,9.599909962340731795e+00
2.750000000000000000e+02,9.615711251781984714e+00
2.760000000000000000e+02,9.631421407907314602e+00
2.770000000000000000e+02,9.647039348937717307e+00
2.780000000000000000e+02,9.662563753964709790e+00
2.790000000000000000e+02,9.677994441341223109e+00
2.800000000000000000e+02,9.693329858753314099e+00
2.810000000000000000e+02,9.708569340134634018e+00
2.820000000000000000e+02,9.723712596375131412e+00
2.830000000000000000e+02,9.738758228261284344e+00
2.840000000000000000e+02,9.753706081277274009e+00
2.850000000000000000e+02,9.768555140999543696e+00
2.860000000000000000e+02,9.783305013623587953e+00
2.870000000000000000e+02,9.797954819046713837e+00
2.880000000000000000e+02,9.812504413731707231e+00
2.890000000000000000e+02,9.826953409944716000e+00
2.900000000000000000e+02,9.841300574914294330e+00
2.910000000000000000e+02,9.855545771200494798e+00
2.920000000000000000e+02,9.869688258356971389e+00
2.930000000000000000e+02,9.883727779898428878e+00
2.940000000000000000e+02,9.897663839361179328e+00
2.950000000000000000e+02,9.911495941881799610e+00
2.960000000000000000e+02,9.925223475214774993e+00
2.970000000000000000e+02,9.938846303736658783e+00
2.980000000000000000e+02,9.952363343623362724e+00
2.990000000000000000e+02,9.965774697115913128e+00
3.000000000000000000e+02,9.979079403001408721e+00
3.010000000000000000e+02,9.992277560966522643e+00
3.020000000000000000e+02,1.000536809575063479e+01
3.030000000000000000e+02,1.001835122160385616e+01
3.040000000000000000e+02,1.003122609885553018e+01
3.050000000000000000e+02,1.004399200766697930e+01
3.060000000000000000e+02,1.005664880930670790e+01
3.070000000000000000e+02,1.006919601508087680e+01
3.080000000000000000e+02,1.008163290575015836e+01
3.090000000000000000e+02,1.009395922355448150e+01
3.100000000000000000e+02,1.010617447877744368e+01
3.110000000000000000e+02,1.011827818110557864e+01
3.120000000000000000e+02,1.013026983949811566e+01
3.130000000000000000e+02,1.014214873445374643e+01
3.140000000000000000e+02,1.015391471528609557e+01
3.150000000000000000e+02,1.016556728719785063e+01
3.160000000000000000e+02,1.017710572812877423e+01
3.170000000000000000e+02,1.018852988053893505e+01
3.180000000000000000e+02,1.019983890726588172e+01
3.190000000000000000e+02,1.021103242161348312e+01
3.200000000000000000e+02,1.022210981009070174e+01
3.210000000000000000e+02,1.023307112902755378e+01
3.220000000000000000e+02,1.024391508938362350e+01
3.230000000000000000e+02,1.025464241034771717e+01
3.240000000000000000e+02,1.026525135473258032e+01
3.250000000000000000e+02,1.027574263208099481e+01
3.260000000000000000e+02,1.028611539061083668e+01
3.270000000000000000e+02,1.029636877872086487e+01
3.280000000000000000e+02,1.030650359778869074e+01
3.290000000000000000e+02,1.031651854633695287e+01
3.300000000000000000e+02,1.032641353360760661e+01
3.310000000000000000e+02,1.033618802426125249e+01
3.320000000000000000e+02,1.034584257357255410e+01
3.330000000000000000e+02,1.035537641564084232e+01
3.340000000000000000e+02,1.036478943684095988e+01
3.350000000000000000e+02,1.037408151715789018e+01
3.360000000000000000e+02,1.038325253018034111e+01
3.370000000000000000e+02,1.039230255987105522e+01
3.380000000000000000e+02,1.040123146588423175e+01
3.390000000000000000e+02,1.041003931752475076e+01
3.400000000000000000e+02,1.041872628409407575e+01
3.410000000000000000e+02,1.042729263404857143e+01
3.420000000000000000e+02,1.043573808926650592e+01
3.430000000000000000e+02,1.044406333187213143e+01
3.440000000000000000e+02,1.045226881796680374e+01
3.450000000000000000e+02,1.046035467250670514e+01
3.460000000000000000e+02,1.046832143963318273e+01
3.470000000000000000e+02,1.047616965288633395e+01
3.480000000000000000e+02,1.048389983536926096e+01
3.490000000000000000e+02,1.049151281895487386e+01
3.500000000000000000e+02,1.049900921117860619e+01
3.510000000000000000e+02,1.050638960905746622e+01
3.520000000000000000e+02,1.051365534057359419e+01
3.530000000000000000e+02,1.052080740223016875e+01
3.540000000000000000e+02,1.052784635589991957e+01
3.550000000000000000e+02,1.053477349211246938e+01
3.560000000000000000e+02,1.054159029873070175e+01
3.570000000000000000e+02,1.054829740786344416e+01
3.580000000000000000e+02,1.055489701822522974e+01
3.590000000000000000e+02,1.056138963227627059e+01
3.600000000000000000e+02,1.056777710664471925e+01
3.610000000000000000e+02,1.057406107373605231e+01
3.620000000000000000e+02,1.058024304794862758e+01
3.630000000000000000e+02,1.058632432218582231e+01
3.640000000000000000e+02,1.059230701271457598e+01
3.650000000000000000e+02,1.059819332528218183e+01
3.660000000000000000e+02,1.060398409751865856e+01
3.670000000000000000e+02,1.060968182245198044e+01
3.680000000000000000e+02,1.061528825058348069e+01
3.690000000000000000e+02,1.062080574322849280e+01
3.700000000000000000e+02,1.062623592196922218e+01
3.710000000000000000e+02,1.063158091552070950e+01
3.720000000000000000e+02,1.063684315054165985e+01
3.730000000000000000e+02,1.064202421351725647e+01
3.740000000000000000e+02,1.064712681713159270e+01
3.750000000000000000e+02,1.065215304136413366e+01
3.760000000000000000e+02,1.065710495521917522e+01
3.770000000000000000e+02,1.066198472002825781e+01
3.780000000000000000e+02,1.066679479506702144e+01
3.790000000000000000e+02,1.067153711417461004e+01
3.800000000000000000e+02,1.067621503967441399e+01
3.810000000000000000e+02,1.068082976500082282e+01
3.820000000000000000e+02,1.068538411774072472e+01
3.830000000000000000e+02,1.068988019680530144e+01
3.840000000000000000e+02,1.069432029693463093e+01
3.850000000000000000e+02,1.069870649902925130e+01
3.860000000000000000e+02,1.070304179529509980e+01
3.870000000000000000e+02,1.070732794158504042e+01
3.880000000000000000e+02,1.071156780911333151e+01
3.890000000000000000e+02,1.071576313746357378e+01
3.900000000000000000e+02,1.071991616904815814e+01
3.910000000000000000e+02,1.072402924016536829e+01
3.920000000000000000e+02,1.072810406883642109e+01
3.930000000000000000e+02,1.073214358669404689e+01
3.940000000000000000e+02,1.073614929407123952e+01
3.950000000000000000e+02,1.074012359956935292e+01
3.960000000000000000e+02,1.074406870132399128e+01
3.970000000000000000e+02,1.074798668923384248e+01
3.980000000000000000e+02,1.075187964672124963e+01
