# Time [s], Mass [Kg]
1.000000000000000000e+00,1.000000000000000000e+00
2.000000000000000000e+00,1.000000000000000000e+00
3.000000000000000000e+00,1.000000000000000000e+00
4.000000000000000000e+00,1.000000000000000000e+00
5.000000000000000000e+00,1.000000000000000000e+00
6.000000000000000000e+00,1.000000000000000000e+00
7.000000000000000000e+00,1.000000000000000000e+00
8.000000000000000000e+00,1.000000000000000000e+00
9.000000000000000000e+00,1.000000000000000000e+00
1.000000000000000000e+01,1.000000000000000000e+00
1.100000000000000000e+01,1.000000000000000000e+00
1.200000000000000000e+01,1.000000000000000000e+00
1.300000000000000000e+01,1.000000000000000000e+00
1.400000000000000000e+01,1.000000000000000000e+00
1.500000000000000000e+01,1.000000000000000000e+00
1.600000000000000000e+01,1.000000000000000000e+00
1.700000000000000000e+01,9.999999400000000316e-01
1.800000000000000000e+01,9.999999400000000316e-01
1.900000000000000000e+01,9.999998799999999521e-01
2.000000000000000000e+01,9.999998199999999837e-01
2.100000000000000000e+01,9.999997600000000153e-01
2.200000000000000000e+01,9.999995799999999990e-01
2.300000000000000000e+01,9.999993400000000143e-01
2.400000000000000000e+01,9.999989299999999526e-01
2.500000000000000000e+01,9.999983300000000463e-01
2.600000000000000000e+01,9.999974400000000152e-01
2.700000000000000000e+01,9.999961899999999515e-01
2.800000000000000000e+01,9.999943999999999500e-01
2.900000000000000000e+01,9.999918899999999944e-01
3.000000000000000000e+01,9.999885600000000263e-01
3.100000000000000000e+01,9.999840899999999921e-01
3.200000000000000000e+01,9.999782999999999866e-01
3.300000000000000000e+01,9.999708499999999667e-01
3.400000000000000000e+01,9.999614399999999792e-01
3.500000000000000000e+01,9.999495699999999543e-01
3.600000000000000000e+01,9.999347899999999623e-01
3.700000000000000000e+01,9.999165500000000151e-01
3.800000000000000000e+01,9.998941999999999553e-01
3.900000000000000000e+01,9.998670200000000508e-01
4.000000000000000000e+01,9.998340599999999689e-01
4.100000000000000000e+01,9.997944800000000409e-01
4.200000000000000000e+01,9.997470400000000312e-01
4.300000000000000000e+01,9.996906500000000140e-01
4.400000000000000000e+01,9.996239500000000389e-01
4.500000000000000000e+01,9.995450399999999958e-01
4.600000000000000000e+01,9.994524700000000372e-01
4.700000000000000000e+01,9.993444099999999608e-01
4.800000000000000000e+01,9.992179300000000319e-01
4.900000000000000000e+01,9.990710600000000108e-01
5.000000000000000000e+01,9.989015500000000269e-01
5.100000000000000000e+01,9.987044899999999448e-01
5.200000000000000000e+01,9.984777599999999920e-01
5.300000000000000000e+01,9.982184800000000191e-01
5.400000000000000000e+01,9.979182500000000067e-01
5.500000000000000000e+01,9.975751600000000163e-01
5.600000000000000000e+01,9.971859499999999876e-01
5.700000000000000000e+01,9.967356899999999520e-01
5.800000000000000000e+01,9.962236899999999951e-01
5.900000000000000000e+01,9.956468899999999511e-01
6.000000000000000000e+01,9.949783700000000009e-01
6.100000000000000000e+01,9.942209100000000133e-01
6.200000000000000000e+01,9.933732199999999457e-01
6.300000000000000000e+01,9.923868200000000028e-01
6.400000000000000000e+01,9.912737000000000354e-01
6.500000000000000000e+01,9.900397100000000172e-01
6.600000000000000000e+01,9.886022199999999760e-01
6.700000000000000000e+01,9.870020699999999536e-01
6.800000000000000000e+01,9.852826000000000084e-01
6.900000000000000000e+01,9.833670300000000308e-01
7.000000000000000000e+01,9.821379199999999976e-01
7.100000000000000000e+01,9.816927899999999818e-01
7.200000000000000000e+01,9.811658899999999850e-01
7.300000000000000000e+01,9.805283000000000193e-01
7.400000000000000000e+01,9.797651800000000133e-01
7.500000000000000000e+01,9.788658000000000081e-01
7.600000000000000000e+01,9.778231400000000351e-01
7.700000000000000000e+01,9.766349199999999620e-01
7.800000000000000000e+01,9.753044199999999497e-01
7.900000000000000000e+01,9.738436299999999601e-01
8.000000000000000000e+01,9.722763300000000219e-01
8.100000000000000000e+01,9.706460199999999983e-01
8.200000000000000000e+01,9.690361600000000353e-01
8.300000000000000000e+01,9.681248700000000262e-01
8.400000000000000000e+01,9.676874899999999835e-01
8.500000000000000000e+01,9.671996800000000061e-01
8.600000000000000000e+01,9.666521000000000141e-01
8.700000000000000000e+01,9.660382299999999978e-01
8.800000000000000000e+01,9.653523600000000204e-01
8.900000000000000000e+01,9.645900099999999977e-01
9.000000000000000000e+01,9.637476799999999955e-01
9.100000000000000000e+01,9.628233899999999457e-01
9.200000000000000000e+01,9.618166700000000402e-01
9.300000000000000000e+01,9.607294800000000246e-01
9.400000000000000000e+01,9.595669500000000296e-01
9.500000000000000000e+01,9.583381399999999495e-01
9.600000000000000000e+01,9.570586700000000002e-01
9.700000000000000000e+01,9.557532699999999881e-01
9.800000000000000000e+01,9.544646700000000150e-01
9.900000000000000000e+01,9.533534599999999859e-01
1.000000000000000000e+02,9.529336099999999865e-01
1.010000000000000000e+02,9.524796599999999502e-01
1.020000000000000000e+02,9.519845799999999691e-01
1.030000000000000000e+02,9.514442100000000124e-01
1.040000000000000000e+02,9.508547800000000105e-01
1.050000000000000000e+02,9.502132500000000093e-01
1.060000000000000000e+02,9.495168899999999468e-01
1.070000000000000000e+02,9.487634299999999632e-01
1.080000000000000000e+02,9.479513800000000101e-01
1.090000000000000000e+02,9.470800200000000224e-01
1.100000000000000000e+02,9.461495899999999848e-01
1.110000000000000000e+02,9.451618800000000098e-01
1.120000000000000000e+02,9.441204699999999894e-01
1.130000000000000000e+02,9.430314300000000038e-01
1.140000000000000000e+02,9.419041299999999506e-01
1.150000000000000000e+02,9.407533399999999935e-01
1.160000000000000000e+02,9.396026100000000048e-01
1.170000000000000000e+02,9.384940299999999791e-01
1.180000000000000000e+02,9.377686400000000422e-01
1.190000000000000000e+02,9.372959100000000099e-01
1.200000000000000000e+02,9.367892100000000388e-01
1.210000000000000000e+02,9.362442500000000001e-01
1.220000000000000000e+02,9.356580399999999687e-01
1.230000000000000000e+02,9.350281400000000076e-01
1.240000000000000000e+02,9.343524600000000513e-01
1.250000000000000000e+02,9.336291599999999580e-01
1.260000000000000000e+02,9.328568600000000099e-01
1.270000000000000000e+02,9.320346699999999540e-01
1.280000000000000000e+02,9.311624200000000462e-01
1.290000000000000000e+02,9.302406300000000128e-01
1.300000000000000000e+02,9.292710400000000481e-01
1.310000000000000000e+02,9.282565099999999791e-01
1.320000000000000000e+02,9.272020499999999998e-01
1.330000000000000000e+02,9.261149800000000321e-01
1.340000000000000000e+02,9.250064500000000356e-01
1.350000000000000000e+02,9.238941099999999906e-01
1.360000000000000000e+02,9.228081700000000387e-01
1.370000000000000000e+02,9.219485499999999778e-01
1.380000000000000000e+02,9.214022800000000180e-01
1.390000000000000000e+02,9.208222000000000351e-01
1.400000000000000000e+02,9.202040400000000009e-01
1.410000000000000000e+02,9.195452899999999596e-01
1.420000000000000000e+02,9.188439200000000362e-01
1.430000000000000000e+02,9.180982100000000257e-01
1.440000000000000000e+02,9.173068399999999567e-01
1.450000000000000000e+02,9.164687999999999723e-01
1.460000000000000000e+02,9.155837900000000085e-01
1.470000000000000000e+02,9.146518700000000335e-01
1.480000000000000000e+02,9.136739999999999862e-01
1.490000000000000000e+02,9.126519600000000398e-01
1.500000000000000000e+02,9.115889700000000540e-01
1.510000000000000000e+02,9.104898000000000158e-01
1.520000000000000000e+02,9.093616599999999606e-01
1.530000000000000000e+02,9.082155800000000223e-01
1.540000000000000000e+02,9.070689699999999744e-01
1.550000000000000000e+02,9.059530500000000375e-01
1.560000000000000000e+02,9.051393300000000197e-01
1.570000000000000000e+02,9.044607300000000460e-01
1.580000000000000000e+02,9.037436199999999697e-01
1.590000000000000000e+02,9.029849199999999687e-01
1.600000000000000000e+02,9.021825199999999878e-01
1.610000000000000000e+02,9.013349400000000289e-01
1.620000000000000000e+02,9.004409300000000282e-01
1.630000000000000000e+02,8.994997700000000318e-01
1.640000000000000000e+02,8.985113500000000419e-01
1.650000000000000000e+02,8.974758999999999931e-01
1.660000000000000000e+02,8.963945500000000122e-01
1.670000000000000000e+02,8.952693299999999743e-01
1.680000000000000000e+02,8.941035299999999797e-01
1.690000000000000000e+02,8.929020800000000424e-01
1.700000000000000000e+02,8.916723100000000235e-01
1.710000000000000000e+02,8.904254999999999809e-01
1.720000000000000000e+02,8.891799400000000020e-01
1.730000000000000000e+02,8.879714600000000457e-01
1.740000000000000000e+02,8.871248400000000256e-01
1.750000000000000000e+02,8.862588999999999606e-01
1.760000000000000000e+02,8.853486200000000306e-01
1.770000000000000000e+02,8.843919000000000086e-01
1.780000000000000000e+02,8.833873300000000262e-01
1.790000000000000000e+02,8.823339900000000124e-01
1.800000000000000000e+02,8.812313699999999583e-01
1.810000000000000000e+02,8.800796300000000016e-01
1.820000000000000000e+02,8.788795499999999539e-01
1.830000000000000000e+02,8.776326199999999744e-01
1.840000000000000000e+02,8.763412800000000002e-01
1.850000000000000000e+02,8.750094800000000062e-01
1.860000000000000000e+02,8.736428000000000527e-01
1.870000000000000000e+02,8.722499000000000224e-01
1.880000000000000000e+02,8.708441900000000180e-01
1.890000000000000000e+02,8.694493800000000494e-01
1.900000000000000000e+02,8.682677699999999943e-01
1.910000000000000000e+02,8.671990600000000216e-01
1.920000000000000000e+02,8.660836800000000224e-01
1.930000000000000000e+02,8.649194799999999628e-01
1.940000000000000000e+02,8.637055200000000044e-01
1.950000000000000000e+02,8.624412999999999663e-01
1.960000000000000000e+02,8.611270199999999653e-01
1.970000000000000000e+02,8.597635599999999823e-01
1.980000000000000000e+02,8.583522999999999570e-01
1.990000000000000000e+02,8.568957400000000169e-01
2.000000000000000000e+02,8.553973999999999744e-01
2.010000000000000000e+02,8.538624599999999898e-01
2.020000000000000000e+02,8.522984999999999589e-01
2.030000000000000000e+02,8.507171300000000436e-01
2.040000000000000000e+02,8.491382600000000336e-01
2.050000000000000000e+02,8.477120400000000000e-01
2.060000000000000000e+02,8.464247000000000298e-01
2.070000000000000000e+02,8.450914600000000165e-01
2.080000000000000000e+02,8.437110799999999466e-01
2.090000000000000000e+02,8.422833100000000073e-01
2.100000000000000000e+02,8.408086900000000252e-01
2.110000000000000000e+02,8.392883500000000163e-01
2.120000000000000000e+02,8.377240900000000323e-01
2.130000000000000000e+02,8.361185799999999446e-01
2.140000000000000000e+02,8.344755200000000261e-01
2.150000000000000000e+02,8.327999699999999450e-01
2.160000000000000000e+02,8.310993899999999934e-01
2.170000000000000000e+02,8.293845699999999876e-01
2.180000000000000000e+02,8.276739699999999811e-01
2.190000000000000000e+02,8.261094700000000124e-01
2.200000000000000000e+02,8.246579800000000127e-01
2.210000000000000000e+02,8.231669700000000534e-01
2.220000000000000000e+02,8.216362000000000387e-01
2.230000000000000000e+02,8.200663900000000339e-01
2.240000000000000000e+02,8.184589700000000079e-01
2.250000000000000000e+02,8.168161499999999631e-01
2.260000000000000000e+02,8.151405999999999930e-01
2.270000000000000000e+02,8.134361500000000245e-01
2.280000000000000000e+02,8.117078500000000085e-01
2.290000000000000000e+02,8.099626899999999852e-01
2.300000000000000000e+02,8.082109100000000046e-01
2.310000000000000000e+02,8.064696199999999982e-01
2.320000000000000000e+02,8.048750199999999966e-01
2.330000000000000000e+02,8.033690500000000290e-01
2.340000000000000000e+02,8.018335699999999955e-01
2.350000000000000000e+02,8.002692500000000431e-01
2.360000000000000000e+02,7.986774399999999607e-01
2.370000000000000000e+02,7.970602500000000257e-01
2.380000000000000000e+02,7.954204099999999666e-01
2.390000000000000000e+02,7.937614899999999585e-01
2.400000000000000000e+02,7.920880900000000224e-01
2.410000000000000000e+02,7.904064699999999721e-01
2.420000000000000000e+02,7.887256700000000453e-01
2.430000000000000000e+02,7.870605000000000517e-01
2.440000000000000000e+02,7.855246099999999565e-01
2.450000000000000000e+02,7.840797900000000542e-01
2.460000000000000000e+02,7.826159599999999994e-01
2.470000000000000000e+02,7.811341299999999821e-01
2.480000000000000000e+02,7.796362000000000014e-01
2.490000000000000000e+02,7.781244499999999675e-01
2.500000000000000000e+02,7.766019699999999748e-01
2.510000000000000000e+02,7.750727499999999770e-01
2.520000000000000000e+02,7.735421099999999495e-01
2.530000000000000000e+02,7.720174199999999542e-01
2.540000000000000000e+02,7.705104400000000187e-01
2.550000000000000000e+02,7.690933300000000195e-01
2.560000000000000000e+02,7.677979499999999513e-01
2.570000000000000000e+02,7.664925500000000502e-01
2.580000000000000000e+02,7.651783199999999674e-01
2.590000000000000000e+02,7.638571899999999637e-01
2.600000000000000000e+02,7.625317600000000029e-01
2.610000000000000000e+02,7.612052599999999947e-01
2.620000000000000000e+02,7.598820299999999861e-01
2.630000000000000000e+02,7.585679300000000014e-01
2.640000000000000000e+02,7.572719500000000270e-01
2.650000000000000000e+02,7.560136899999999605e-01
2.660000000000000000e+02,7.549227499999999758e-01
2.670000000000000000e+02,7.538289999999999713e-01
2.680000000000000000e+02,7.527336500000000319e-01
2.690000000000000000e+02,7.516388299999999800e-01
2.700000000000000000e+02,7.505472300000000097e-01
2.710000000000000000e+02,7.494624300000000128e-01
2.720000000000000000e+02,7.483893000000000351e-01
2.730000000000000000e+02,7.473347200000000079e-01
2.740000000000000000e+02,7.463104699999999481e-01
2.750000000000000000e+02,7.454164599999999474e-01
2.760000000000000000e+02,7.445623900000000184e-01
2.770000000000000000e+02,7.437129000000000101e-01
2.780000000000000000e+02,7.428702700000000547e-01
2.790000000000000000e+02,7.420377700000000409e-01
2.800000000000000000e+02,7.412197600000000053e-01
2.810000000000000000e+02,7.404222499999999485e-01
2.820000000000000000e+02,7.396554899999999710e-01
2.830000000000000000e+02,7.390004399999999807e-01
2.840000000000000000e+02,7.383985499999999869e-01
2.850000000000000000e+02,7.378073899999999519e-01
2.860000000000000000e+02,7.372301199999999888e-01
2.870000000000000000e+02,7.366715099999999739e-01
2.880000000000000000e+02,7.361384600000000500e-01
2.890000000000000000e+02,7.356473199999999935e-01
2.900000000000000000e+02,7.352863600000000277e-01
2.910000000000000000e+02,7.349402900000000516e-01
2.920000000000000000e+02,7.346137799999999940e-01
2.930000000000000000e+02,7.343144999999999811e-01
2.940000000000000000e+02,7.340834099999999918e-01
2.950000000000000000e+02,7.339444800000000102e-01
2.960000000000000000e+02,7.338281300000000229e-01
2.970000000000000000e+02,7.338086999999999804e-01
2.980000000000000000e+02,7.338086999999999804e-01
2.990000000000000000e+02,7.338086999999999804e-01
3.000000000000000000e+02,7.338086999999999804e-01
3.010000000000000000e+02,7.338086999999999804e-01
3.020000000000000000e+02,7.338086999999999804e-01
3.030000000000000000e+02,7.338086999999999804e-01
3.040000000000000000e+02,7.338086999999999804e-01
3.050000000000000000e+02,7.338086999999999804e-01
3.060000000000000000e+02,7.338086999999999804e-01
3.070000000000000000e+02,7.338086999999999804e-01
3.080000000000000000e+02,7.338086999999999804e-01
3.090000000000000000e+02,7.338086999999999804e-01
3.100000000000000000e+02,7.338086999999999804e-01
3.110000000000000000e+02,7.338086999999999804e-01
3.120000000000000000e+02,7.338086999999999804e-01
3.130000000000000000e+02,7.338086999999999804e-01
3.140000000000000000e+02,7.338086999999999804e-01
3.150000000000000000e+02,7.338086999999999804e-01
3.160000000000000000e+02,7.338086999999999804e-01
3.170000000000000000e+02,7.338086999999999804e-01
3.180000000000000000e+02,7.338086999999999804e-01
3.190000000000000000e+02,7.338086999999999804e-01
3.200000000000000000e+02,7.338086999999999804e-01
3.210000000000000000e+02,7.338086999999999804e-01
3.220000000000000000e+02,7.338086999999999804e-01
3.230000000000000000e+02,7.338086999999999804e-01
3.240000000000000000e+02,7.338086999999999804e-01
3.250000000000000000e+02,7.338086999999999804e-01
3.260000000000000000e+02,7.338086999999999804e-01
3.270000000000000000e+02,7.338086999999999804e-01
3.280000000000000000e+02,7.338086999999999804e-01
3.290000000000000000e+02,7.338086999999999804e-01
3.300000000000000000e+02,7.338086999999999804e-01
3.310000000000000000e+02,7.338086999999999804e-01
3.320000000000000000e+02,7.338086999999999804e-01
3.330000000000000000e+02,7.338086999999999804e-01
3.340000000000000000e+02,7.338086999999999804e-01
3.350000000000000000e+02,7.338086999999999804e-01
3.360000000000000000e+02,7.338086999999999804e-01
3.370000000000000000e+02,7.338086999999999804e-01
3.380000000000000000e+02,7.338086999999999804e-01
3.390000000000000000e+02,7.338086999999999804e-01
3.400000000000000000e+02,7.338086999999999804e-01
3.410000000000000000e+02,7.338086999999999804e-01
3.420000000000000000e+02,7.338086999999999804e-01
3.430000000000000000e+02,7.338086999999999804e-01
3.440000000000000000e+02,7.338086999999999804e-01
3.450000000000000000e+02,7.338086999999999804e-01
3.460000000000000000e+02,7.338086999999999804e-01
3.470000000000000000e+02,7.338086999999999804e-01
3.480000000000000000e+02,7.338086999999999804e-01
3.490000000000000000e+02,7.338086999999999804e-01
3.500000000000000000e+02,7.338086999999999804e-01
3.510000000000000000e+02,7.338086999999999804e-01
3.520000000000000000e+02,7.338086999999999804e-01
3.530000000000000000e+02,7.338086999999999804e-01
3.540000000000000000e+02,7.338086999999999804e-01
3.550000000000000000e+02,7.338086999999999804e-01
3.560000000000000000e+02,7.338086999999999804e-01
3.570000000000000000e+02,7.338086999999999804e-01
3.580000000000000000e+02,7.338086999999999804e-01
3.590000000000000000e+02,7.338086999999999804e-01
3.600000000000000000e+02,7.338086999999999804e-01
3.610000000000000000e+02,7.338086999999999804e-01
3.620000000000000000e+02,7.338086999999999804e-01
3.630000000000000000e+02,7.338086999999999804e-01
3.640000000000000000e+02,7.338086999999999804e-01
3.650000000000000000e+02,7.338086999999999804e-01
3.660000000000000000e+02,7.338086999999999804e-01
3.670000000000000000e+02,7.338086999999999804e-01
3.680000000000000000e+02,7.338086999999999804e-01
3.690000000000000000e+02,7.338086999999999804e-01
3.700000000000000000e+02,7.338086999999999804e-01
3.710000000000000000e+02,7.338086999999999804e-01
3.720000000000000000e+02,7.338086999999999804e-01
3.730000000000000000e+02,7.338086999999999804e-01
3.740000000000000000e+02,7.338086999999999804e-01
3.750000000000000000e+02,7.338086999999999804e-01
3.760000000000000000e+02,7.338086999999999804e-01
3.770000000000000000e+02,7.338086999999999804e-01
3.780000000000000000e+02,7.338086999999999804e-01
3.790000000000000000e+02,7.338086999999999804e-01
3.800000000000000000e+02,7.338086999999999804e-01
3.810000000000000000e+02,7.338086999999999804e-01
3.820000000000000000e+02,7.338086999999999804e-01
3.830000000000000000e+02,7.338086999999999804e-01
3.840000000000000000e+02,7.338086999999999804e-01
3.850000000000000000e+02,7.338086999999999804e-01
3.860000000000000000e+02,7.338086999999999804e-01
3.870000000000000000e+02,7.338086999999999804e-01
3.880000000000000000e+02,7.338086999999999804e-01
3.890000000000000000e+02,7.338086999999999804e-01
3.900000000000000000e+02,7.338086999999999804e-01
3.910000000000000000e+02,7.338086999999999804e-01
3.920000000000000000e+02,7.338086999999999804e-01
3.930000000000000000e+02,7.338086999999999804e-01
3.940000000000000000e+02,7.338086999999999804e-01
3.950000000000000000e+02,7.338086999999999804e-01
3.960000000000000000e+02,7.338086999999999804e-01
3.970000000000000000e+02,7.338086999999999804e-01
3.980000000000000000e+02,7.338086999999999804e-01
3.990000000000000000e+02,7.338086999999999804e-01
