# Time [s], Mass [Kg]
1.000000000000000000e+00,1.389829478398761919e-01
2.000000000000000000e+00,1.389829478397859308e-01
3.000000000000000000e+00,1.389829478396734375e-01
4.000000000000000000e+00,1.389829478395225304e-01
5.000000000000000000e+00,1.389829478393115880e-01
6.000000000000000000e+00,1.389829478390118278e-01
7.000000000000000000e+00,1.389829478385857797e-01
8.000000000000000000e+00,1.389829478379853156e-01
9.000000000000000000e+00,1.389829478371497895e-01
1.000000000000000000e+01,1.389829478360035120e-01
1.100000000000000000e+01,1.389829478344534186e-01
1.200000000000000000e+01,1.389829478323859613e-01
1.300000000000000000e+01,1.389829478296640275e-01
1.400000000000000000e+01,1.389829478261234985e-01
1.500000000000000000e+01,1.389829478215691971e-01
1.600000000000000000e+01,1.389829478157707243e-01
1.700000000000000000e+01,1.389829478084577130e-01
1.800000000000000000e+01,1.389829477993148044e-01
1.900000000000000000e+01,1.389829477879759023e-01
2.000000000000000000e+01,1.389829477740183450e-01
2.100000000000000000e+01,1.389829477569560490e-01
2.200000000000000000e+01,1.389829477362326260e-01
2.300000000000000000e+01,1.389829477112135836e-01
2.400000000000000000e+01,1.389829476811779985e-01
2.500000000000000000e+01,1.389829476453097457e-01
2.600000000000000000e+01,1.389829476026876731e-01
2.700000000000000000e+01,1.389829475522755264e-01
2.800000000000000000e+01,1.389829474929109299e-01
2.900000000000000000e+01,1.389829474232934514e-01
3.000000000000000000e+01,1.389829473419721406e-01
3.100000000000000000e+01,1.389829472473323446e-01
3.200000000000000000e+01,1.389829471375810255e-01
3.300000000000000000e+01,1.389829470107318554e-01
3.400000000000000000e+01,1.389829468645892852e-01
3.500000000000000000e+01,1.389829466967308913e-01
3.600000000000000000e+01,1.389829465044896406e-01
3.700000000000000000e+01,1.389829462849349329e-01
3.800000000000000000e+01,1.389829460348516454e-01
3.900000000000000000e+01,1.389829457507191224e-01
4.000000000000000000e+01,1.389829454286888033e-01
4.100000000000000000e+01,1.389829450645594100e-01
4.200000000000000000e+01,1.389829446537523550e-01
4.300000000000000000e+01,1.389829441912855401e-01
4.400000000000000000e+01,1.389829436717441857e-01
4.500000000000000000e+01,1.389829430892522144e-01
4.600000000000000000e+01,1.389829424374416367e-01
4.700000000000000000e+01,1.389829417094187725e-01
4.800000000000000000e+01,1.389829408977306668e-01
4.900000000000000000e+01,1.389829399943299792e-01
5.000000000000000000e+01,1.389829389905349322e-01
5.100000000000000000e+01,1.389829378769913415e-01
5.200000000000000000e+01,1.389829366436320379e-01
5.300000000000000000e+01,1.389829352796303763e-01
5.400000000000000000e+01,1.389829337733564929e-01
5.500000000000000000e+01,1.389829321123306760e-01
5.600000000000000000e+01,1.389829302831697422e-01
5.700000000000000000e+01,1.389829282715365766e-01
5.800000000000000000e+01,1.389829260620869811e-01
5.900000000000000000e+01,1.389829236384075295e-01
6.000000000000000000e+01,1.389829209829582524e-01
6.100000000000000000e+01,1.389829180770114359e-01
6.200000000000000000e+01,1.389829149005811504e-01
6.300000000000000000e+01,1.389829114323566928e-01
6.400000000000000000e+01,1.389829076496328364e-01
6.500000000000000000e+01,1.389829035282280911e-01
6.600000000000000000e+01,1.389828990424102351e-01
6.700000000000000000e+01,1.389828941648176830e-01
6.800000000000000000e+01,1.389828888663647843e-01
6.900000000000000000e+01,1.389828831161571965e-01
7.000000000000000000e+01,1.389828768814020399e-01
7.100000000000000000e+01,1.389828701273007894e-01
7.200000000000000000e+01,1.389828628169523794e-01
7.300000000000000000e+01,1.389828549112505918e-01
7.400000000000000000e+01,1.389828463687629856e-01
7.500000000000000000e+01,1.389828371456205969e-01
7.600000000000000000e+01,1.389828271954006988e-01
7.700000000000000000e+01,1.389828164689926870e-01
7.800000000000000000e+01,1.389828049144696820e-01
7.900000000000000000e+01,1.389827924769541923e-01
8.000000000000000000e+01,1.389827790984656808e-01
8.100000000000000000e+01,1.389827647177786785e-01
8.200000000000000000e+01,1.389827492702726819e-01
8.300000000000000000e+01,1.389827326877581815e-01
8.400000000000000000e+01,1.389827148983146798e-01
8.500000000000000000e+01,1.389826958261186907e-01
8.600000000000000000e+01,1.389826753912541957e-01
8.700000000000000000e+01,1.389826535095251836e-01
8.800000000000000000e+01,1.389826300922591962e-01
8.900000000000000000e+01,1.389826050461016871e-01
9.000000000000000000e+01,1.389825782728001946e-01
9.100000000000000000e+01,1.389825496689786888e-01
9.200000000000000000e+01,1.389825191259206894e-01
9.300000000000000000e+01,1.389824865293161904e-01
9.400000000000000000e+01,1.389824517590001751e-01
9.500000000000000000e+01,1.389824146887216894e-01
9.600000000000000000e+01,1.389823751858561829e-01
9.700000000000000000e+01,1.389823331111121885e-01
9.800000000000000000e+01,1.389822883182896818e-01
9.900000000000000000e+01,1.389822406539416855e-01
1.000000000000000000e+02,1.389821899570331809e-01
1.010000000000000000e+02,1.389821360587091825e-01
1.020000000000000000e+02,1.389820787818931980e-01
1.030000000000000000e+02,1.389820179408881862e-01
1.040000000000000000e+02,1.389819533411691954e-01
1.050000000000000000e+02,1.389818847789041911e-01
1.060000000000000000e+02,1.389818120404856805e-01
1.070000000000000000e+02,1.389817349023781956e-01
1.080000000000000000e+02,1.389816531305341774e-01
1.090000000000000000e+02,1.389815664798342010e-01
1.100000000000000000e+02,1.389814746940046808e-01
1.110000000000000000e+02,1.389813775049301980e-01
1.120000000000000000e+02,1.389812746320016890e-01
1.130000000000000000e+02,1.389811657821466984e-01
1.140000000000000000e+02,1.389810506489816966e-01
1.150000000000000000e+02,1.389809289120266800e-01
1.160000000000000000e+02,1.389808002369316842e-01
1.170000000000000000e+02,1.389806642744216836e-01
1.180000000000000000e+02,1.389805206593466846e-01
1.190000000000000000e+02,1.389803690111866830e-01
1.200000000000000000e+02,1.389802089327316914e-01
1.210000000000000000e+02,1.389800400089266919e-01
1.220000000000000000e+02,1.389798618077816850e-01
1.230000000000000000e+02,1.389796738787066888e-01
1.240000000000000000e+02,1.389794757510616763e-01
1.250000000000000000e+02,1.389792669355967014e-01
1.260000000000000000e+02,1.389790469224016778e-01
1.270000000000000000e+02,1.389788151791466753e-01
1.280000000000000000e+02,1.389785711532216805e-01
1.290000000000000000e+02,1.389783142691266848e-01
1.300000000000000000e+02,1.389780439262916778e-01
1.310000000000000000e+02,1.389777595022266832e-01
1.320000000000000000e+02,1.389774603491816807e-01
1.330000000000000000e+02,1.389771457913867025e-01
1.340000000000000000e+02,1.389768151295866783e-01
1.350000000000000000e+02,1.389764676367666874e-01
1.360000000000000000e+02,1.389761025546616957e-01
1.370000000000000000e+02,1.389757191001316783e-01
1.380000000000000000e+02,1.389753164596466972e-01
1.390000000000000000e+02,1.389748937848566956e-01
1.400000000000000000e+02,1.389744502012967009e-01
1.410000000000000000e+02,1.389739848014066859e-01
1.420000000000000000e+02,1.389734966389766790e-01
1.430000000000000000e+02,1.389729847408866792e-01
1.440000000000000000e+02,1.389724480981566757e-01
1.450000000000000000e+02,1.389718856588616769e-01
1.460000000000000000e+02,1.389712963439316828e-01
1.470000000000000000e+02,1.389706790356416977e-01
1.480000000000000000e+02,1.389700325685766791e-01
1.490000000000000000e+02,1.389693557506817001e-01
1.500000000000000000e+02,1.389686473484866847e-01
1.510000000000000000e+02,1.389679060756016937e-01
1.520000000000000000e+02,1.389671306205416956e-01
1.530000000000000000e+02,1.389663196277416968e-01
1.540000000000000000e+02,1.389654716828516989e-01
1.550000000000000000e+02,1.389645853490616978e-01
1.560000000000000000e+02,1.389636591430266910e-01
1.570000000000000000e+02,1.389626915163066911e-01
1.580000000000000000e+02,1.389616809023766775e-01
1.590000000000000000e+02,1.389606256859266809e-01
1.600000000000000000e+02,1.389595241792766778e-01
1.610000000000000000e+02,1.389583746831266897e-01
1.620000000000000000e+02,1.389571754475266985e-01
1.630000000000000000e+02,1.389559246419266869e-01
1.640000000000000000e+02,1.389546204330766865e-01
1.650000000000000000e+02,1.389532609355766946e-01
1.660000000000000000e+02,1.389518441741766919e-01
1.670000000000000000e+02,1.389503681829266923e-01
1.680000000000000000e+02,1.389488309427266977e-01
1.690000000000000000e+02,1.389472303338266934e-01
1.700000000000000000e+02,1.389455642610766817e-01
1.710000000000000000e+02,1.389438305758266823e-01
1.720000000000000000e+02,1.389420270166766835e-01
1.730000000000000000e+02,1.389401513666767007e-01
1.740000000000000000e+02,1.389382013555766904e-01
1.750000000000000000e+02,1.389361745858266883e-01
1.760000000000000000e+02,1.389340687290766818e-01
1.770000000000000000e+02,1.389318814046267003e-01
1.780000000000000000e+02,1.389296100874266859e-01
1.790000000000000000e+02,1.389272523520767022e-01
1.800000000000000000e+02,1.389248057222766952e-01
1.810000000000000000e+02,1.389222675571266941e-01
1.820000000000000000e+02,1.389196353524767003e-01
1.830000000000000000e+02,1.389169065553266802e-01
1.840000000000000000e+02,1.389140784239266957e-01
1.850000000000000000e+02,1.389111483968766825e-01
1.860000000000000000e+02,1.389081138664266801e-01
1.870000000000000000e+02,1.389049720080266781e-01
1.880000000000000000e+02,1.389017202294266784e-01
1.890000000000000000e+02,1.388983558946266794e-01
1.900000000000000000e+02,1.388948761167766999e-01
1.910000000000000000e+02,1.388912783020266883e-01
1.920000000000000000e+02,1.388875598153266888e-01
1.930000000000000000e+02,1.388837177303266779e-01
1.940000000000000000e+02,1.388797494835266877e-01
1.950000000000000000e+02,1.388756524723266939e-01
1.960000000000000000e+02,1.388714237550766895e-01
1.970000000000000000e+02,1.388670608328766987e-01
1.980000000000000000e+02,1.388625611690266770e-01
1.990000000000000000e+02,1.388579218314766883e-01
2.000000000000000000e+02,1.388531404200266939e-01
2.010000000000000000e+02,1.388482144969766796e-01
2.020000000000000000e+02,1.388431411646266767e-01
2.030000000000000000e+02,1.388379181572266807e-01
2.040000000000000000e+02,1.388325431700266899e-01
2.050000000000000000e+02,1.388270133626766933e-01
2.060000000000000000e+02,1.388213266376766841e-01
2.070000000000000000e+02,1.388154808549766916e-01
2.080000000000000000e+02,1.388094732523766917e-01
2.090000000000000000e+02,1.388033019320266959e-01
2.100000000000000000e+02,1.387969649474766753e-01
2.110000000000000000e+02,1.387904596321766770e-01
2.120000000000000000e+02,1.387837843161766893e-01
2.130000000000000000e+02,1.387769372720766836e-01
2.140000000000000000e+02,1.387699159424767015e-01
2.150000000000000000e+02,1.387627189078766976e-01
2.160000000000000000e+02,1.387553446797266943e-01
2.170000000000000000e+02,1.387477908189266862e-01
2.180000000000000000e+02,1.387400561759766782e-01
2.190000000000000000e+02,1.387321395175766803e-01
2.200000000000000000e+02,1.387240385269266907e-01
2.210000000000000000e+02,1.387157523377766932e-01
2.220000000000000000e+02,1.387072799822266778e-01
2.230000000000000000e+02,1.386986192647766958e-01
2.240000000000000000e+02,1.386897696098766952e-01
2.250000000000000000e+02,1.386807303196266883e-01
2.260000000000000000e+02,1.386714993142266761e-01
2.270000000000000000e+02,1.386620763112766941e-01
2.280000000000000000e+02,1.386524608825766836e-01
2.290000000000000000e+02,1.386426510541266810e-01
2.300000000000000000e+02,1.386326468322267025e-01
2.310000000000000000e+02,1.386224480522266767e-01
2.320000000000000000e+02,1.386120528327266788e-01
2.330000000000000000e+02,1.386014614622266827e-01
2.340000000000000000e+02,1.385906740302266793e-01
2.350000000000000000e+02,1.385796887322267024e-01
2.360000000000000000e+02,1.385685061272266816e-01
2.370000000000000000e+02,1.385571265462266777e-01
2.380000000000000000e+02,1.385455482432266794e-01
2.390000000000000000e+02,1.385337720327266819e-01
2.400000000000000000e+02,1.385217984717266870e-01
2.410000000000000000e+02,1.385096258527266921e-01
2.420000000000000000e+02,1.384972552292266790e-01
2.430000000000000000e+02,1.384846873662266831e-01
2.440000000000000000e+02,1.384719205757266869e-01
2.450000000000000000e+02,1.384589561307267014e-01
2.460000000000000000e+02,1.384457949842266833e-01
2.470000000000000000e+02,1.384324354487266873e-01
2.480000000000000000e+02,1.384188789977267020e-01
2.490000000000000000e+02,1.384051267537266816e-01
2.500000000000000000e+02,1.383911770112266904e-01
2.510000000000000000e+02,1.383770314252266986e-01
2.520000000000000000e+02,1.383626912697266953e-01
2.530000000000000000e+02,1.383481548037266973e-01
2.540000000000000000e+02,1.383334238427266771e-01
2.550000000000000000e+02,1.383184997932266902e-01
2.560000000000000000e+02,1.383033808647266827e-01
2.570000000000000000e+02,1.382880690157266834e-01
2.580000000000000000e+02,1.382725657677267017e-01
2.590000000000000000e+02,1.382568692667267007e-01
2.600000000000000000e+02,1.382409815952266863e-01
2.610000000000000000e+02,1.382249043722266757e-01
2.620000000000000000e+02,1.382086356702266761e-01
2.630000000000000000e+02,1.381921776802266799e-01
2.640000000000000000e+02,1.381755321047266893e-01
2.650000000000000000e+02,1.381586969342266935e-01
2.660000000000000000e+02,1.381416744537266872e-01
2.670000000000000000e+02,1.381244664357266783e-01
2.680000000000000000e+02,1.381070707812266929e-01
2.690000000000000000e+02,1.380894898552266770e-01
2.700000000000000000e+02,1.380717254887266765e-01
2.710000000000000000e+02,1.380537754887266877e-01
2.720000000000000000e+02,1.380356422877266898e-01
2.730000000000000000e+02,1.380173277652266828e-01
2.740000000000000000e+02,1.379988296327266939e-01
2.750000000000000000e+02,1.379801503792267015e-01
2.760000000000000000e+02,1.379612919217266809e-01
2.770000000000000000e+02,1.379422518747266957e-01
2.780000000000000000e+02,1.379230327757266783e-01
2.790000000000000000e+02,1.379036365737267011e-01
2.800000000000000000e+02,1.378840607872266755e-01
2.810000000000000000e+02,1.378643079932266868e-01
2.820000000000000000e+02,1.378443801662266877e-01
2.830000000000000000e+02,1.378242747312266869e-01
2.840000000000000000e+02,1.378039942977266896e-01
2.850000000000000000e+02,1.377835408602266776e-01
2.860000000000000000e+02,1.377629117537266801e-01
2.870000000000000000e+02,1.377421096152266766e-01
2.880000000000000000e+02,1.377211364557267004e-01
2.890000000000000000e+02,1.376999895247267014e-01
2.900000000000000000e+02,1.376786714802266942e-01
2.910000000000000000e+02,1.376571843457266853e-01
2.920000000000000000e+02,1.376355252917266792e-01
2.930000000000000000e+02,1.376136969947266975e-01
2.940000000000000000e+02,1.375917014887266809e-01
2.950000000000000000e+02,1.375695358712266947e-01
2.960000000000000000e+02,1.375472028347266840e-01
2.970000000000000000e+02,1.375247044222266957e-01
2.980000000000000000e+02,1.375020376642266950e-01
2.990000000000000000e+02,1.374792052667266895e-01
3.000000000000000000e+02,1.374562092817266934e-01
3.010000000000000000e+02,1.374330466802266837e-01
3.020000000000000000e+02,1.374097201797266909e-01
3.030000000000000000e+02,1.373862318402266913e-01
3.040000000000000000e+02,1.373625785822266965e-01
3.050000000000000000e+02,1.373387631332266823e-01
3.060000000000000000e+02,1.373147875607266810e-01
3.070000000000000000e+02,1.372906487427267008e-01
3.080000000000000000e+02,1.372663494167266907e-01
3.090000000000000000e+02,1.372418916597266947e-01
3.100000000000000000e+02,1.372172723147266904e-01
3.110000000000000000e+02,1.371924941282266774e-01
3.120000000000000000e+02,1.371675591882266787e-01
3.130000000000000000e+02,1.371424643122266807e-01
3.140000000000000000e+02,1.371172122557266781e-01
3.150000000000000000e+02,1.370918051182266895e-01
3.160000000000000000e+02,1.370662396997266996e-01
3.170000000000000000e+02,1.370405187657266766e-01
3.180000000000000000e+02,1.370146444282266951e-01
3.190000000000000000e+02,1.369886134787266785e-01
3.200000000000000000e+02,1.369624286932266954e-01
3.210000000000000000e+02,1.369360921977266776e-01
3.220000000000000000e+02,1.369096007832266981e-01
3.230000000000000000e+02,1.368829572372266823e-01
3.240000000000000000e+02,1.368561637022266964e-01
3.250000000000000000e+02,1.368292169762266863e-01
3.260000000000000000e+02,1.368021198592266896e-01
3.270000000000000000e+02,1.367748745122266962e-01
3.280000000000000000e+02,1.367474777487266979e-01
3.290000000000000000e+02,1.367199323817266943e-01
3.300000000000000000e+02,1.366922405922266770e-01
3.310000000000000000e+02,1.366643992167266841e-01
3.320000000000000000e+02,1.366364110822266831e-01
3.330000000000000000e+02,1.366082783912266896e-01
3.340000000000000000e+02,1.365799980107266776e-01
3.350000000000000000e+02,1.365515727827266990e-01
3.360000000000000000e+02,1.365230049322266881e-01
3.370000000000000000e+02,1.364942913632266885e-01
3.380000000000000000e+02,1.364654349332266869e-01
3.390000000000000000e+02,1.364364378917266862e-01
3.400000000000000000e+02,1.364072971862266836e-01
3.410000000000000000e+02,1.363780156912266783e-01
3.420000000000000000e+02,1.363485956817266920e-01
3.430000000000000000e+02,1.363190341542266926e-01
3.440000000000000000e+02,1.362893339997267028e-01
3.450000000000000000e+02,1.362594975197266856e-01
3.460000000000000000e+02,1.362295217652266799e-01
3.470000000000000000e+02,1.361994096442266933e-01
3.480000000000000000e+02,1.361691634857266908e-01
3.490000000000000000e+02,1.361387803992266943e-01
3.500000000000000000e+02,1.361082633092266791e-01
3.510000000000000000e+02,1.360776145717266794e-01
3.520000000000000000e+02,1.360468313597266998e-01
3.530000000000000000e+02,1.360159166137266951e-01
3.540000000000000000e+02,1.359848727162266957e-01
3.550000000000000000e+02,1.359536969077266844e-01
3.560000000000000000e+02,1.359223921447266781e-01
3.570000000000000000e+02,1.358909608357266874e-01
3.580000000000000000e+02,1.358594002902266951e-01
3.590000000000000000e+02,1.358277134787266860e-01
3.600000000000000000e+02,1.357959028357266784e-01
3.610000000000000000e+02,1.357639657422266832e-01
3.620000000000000000e+02,1.357319051817266753e-01
3.630000000000000000e+02,1.356997236127266970e-01
3.640000000000000000e+02,1.356674184892266988e-01
3.650000000000000000e+02,1.356349928062266785e-01
3.660000000000000000e+02,1.356024490442266917e-01
3.670000000000000000e+02,1.355697847307267001e-01
3.680000000000000000e+02,1.355370028687266915e-01
3.690000000000000000e+02,1.355041059592266839e-01
3.700000000000000000e+02,1.354710916047267011e-01
3.710000000000000000e+02,1.354379628142266812e-01
3.720000000000000000e+02,1.354047221062266992e-01
3.730000000000000000e+02,1.353713671572266963e-01
3.740000000000000000e+02,1.353379009792266829e-01
3.750000000000000000e+02,1.353043261052266910e-01
3.760000000000000000e+02,1.352706402852267009e-01
3.770000000000000000e+02,1.352368465312266954e-01
3.780000000000000000e+02,1.352029473872266851e-01
3.790000000000000000e+02,1.351689406752266953e-01
3.800000000000000000e+02,1.351348294042266918e-01
3.810000000000000000e+02,1.351006161257266858e-01
3.820000000000000000e+02,1.350662987312266916e-01
3.830000000000000000e+02,1.350318802227266912e-01
3.840000000000000000e+02,1.349973631562266796e-01
3.850000000000000000e+02,1.349627454907266766e-01
3.860000000000000000e+02,1.349280302172266854e-01
3.870000000000000000e+02,1.348932198927266790e-01
3.880000000000000000e+02,1.348583125412266825e-01
3.890000000000000000e+02,1.348233111387266980e-01
3.900000000000000000e+02,1.347882182382266758e-01
3.910000000000000000e+02,1.347530319257266851e-01
3.920000000000000000e+02,1.347177551587266930e-01
3.930000000000000000e+02,1.346823904827266771e-01
3.940000000000000000e+02,1.346469360427266782e-01
3.950000000000000000e+02,1.346113947727266835e-01
3.960000000000000000e+02,1.345757692062266864e-01
3.970000000000000000e+02,1.345400575447266989e-01
3.980000000000000000e+02,1.345042626952266951e-01
3.990000000000000000e+02,1.344683871742266834e-01
