# Time [s], Convective Heat Transfer Coefficient [W/m2K]
1.000000000000000000e+00,0.000000000000000000e+00
2.000000000000000000e+00,0.000000000000000000e+00
3.000000000000000000e+00,0.000000000000000000e+00
4.000000000000000000e+00,0.000000000000000000e+00
5.000000000000000000e+00,2.412849599104084641e-02
6.000000000000000000e+00,3.908348017778424249e-02
7.000000000000000000e+00,6.173553112719559754e-02
8.000000000000000000e+00,9.299410422420158195e-02
9.000000000000000000e+00,1.322063207490538350e-01
1.000000000000000000e+01,1.800114507941187603e-01
1.100000000000000000e+01,2.359395727700121792e-01
1.200000000000000000e+01,2.993306472819765029e-01
1.300000000000000000e+01,3.693951164205409032e-01
1.400000000000000000e+01,4.452374618902187886e-01
1.500000000000000000e+01,5.259465094058392021e-01
1.600000000000000000e+01,6.106610033947422744e-01
1.700000000000000000e+01,6.986008730331341177e-01
1.800000000000000000e+01,7.890504584238207109e-01
1.900000000000000000e+01,8.814026510302205297e-01
2.000000000000000000e+01,9.751187525166820080e-01
2.100000000000000000e+01,1.069747994022911985e+00
2.200000000000000000e+01,1.164907667260462798e+00
2.300000000000000000e+01,1.260270336646226452e+00
2.400000000000000000e+01,1.355562758572389059e+00
2.500000000000000000e+01,1.450562690109892472e+00
2.600000000000000000e+01,1.545078410217291198e+00
2.700000000000000000e+01,1.638956857668196987e+00
2.800000000000000000e+01,1.732068307062892165e+00
2.900000000000000000e+01,1.824310984012611492e+00
3.000000000000000000e+01,1.915599798958065092e+00
3.100000000000000000e+01,2.005869755810300692e+00
3.200000000000000000e+01,2.095068134719257902e+00
3.300000000000000000e+01,2.183153863625413749e+00
3.400000000000000000e+01,2.270098227421704973e+00
3.500000000000000000e+01,2.355878520271247112e+00
3.600000000000000000e+01,2.440481987492867155e+00
3.700000000000000000e+01,2.523899975150094122e+00
3.800000000000000000e+01,2.606129915287965559e+00
3.900000000000000000e+01,2.687173934347734772e+00
4.000000000000000000e+01,2.767037087099434078e+00
4.100000000000000000e+01,2.845725251311448822e+00
4.200000000000000000e+01,2.923249691124983674e+00
4.300000000000000000e+01,2.999624784447274983e+00
4.400000000000000000e+01,3.074861800545796164e+00
4.500000000000000000e+01,3.148977632117833103e+00
4.600000000000000000e+01,3.221987232046962024e+00
4.700000000000000000e+01,3.293909109797408252e+00
4.800000000000000000e+01,3.364761516739734670e+00
4.900000000000000000e+01,3.434561042304767220e+00
5.000000000000000000e+01,3.503328039018998030e+00
5.100000000000000000e+01,3.571080377716773224e+00
5.200000000000000000e+01,3.637836441462117598e+00
5.300000000000000000e+01,3.703616309286105412e+00
5.400000000000000000e+01,3.768438091431988379e+00
5.500000000000000000e+01,3.832320897622988110e+00
5.600000000000000000e+01,3.895283696996210132e+00
5.700000000000000000e+01,3.957344847046142089e+00
5.800000000000000000e+01,4.018521571069798348e+00
5.900000000000000000e+01,4.078832138617163316e+00
6.000000000000000000e+01,4.138294193506424357e+00
6.100000000000000000e+01,4.196925492683182490e+00
6.200000000000000000e+01,4.254742785120098958e+00
6.300000000000000000e+01,4.311763706025368847e+00
6.400000000000000000e+01,4.368002862901601446e+00
6.500000000000000000e+01,4.423476767320646985e+00
6.600000000000000000e+01,4.478201337940081572e+00
6.700000000000000000e+01,4.532192213217988375e+00
6.800000000000000000e+01,4.585463854679993290e+00
6.900000000000000000e+01,4.638030787794819254e+00
7.000000000000000000e+01,4.689908148872472538e+00
7.100000000000000000e+01,4.741108778975286597e+00
7.200000000000000000e+01,4.791647518407639694e+00
7.300000000000000000e+01,4.841536633490806985e+00
7.400000000000000000e+01,4.890789822595587033e+00
7.500000000000000000e+01,4.939418937888624406e+00
7.600000000000000000e+01,4.987437345800983302e+00
7.700000000000000000e+01,5.034856075135993869e+00
7.800000000000000000e+01,5.081687735437626863e+00
7.900000000000000000e+01,5.127943334915441298e+00
8.000000000000000000e+01,5.173634072430368214e+00
8.100000000000000000e+01,5.218771138805706755e+00
8.200000000000000000e+01,5.263364060468158634e+00
8.300000000000000000e+01,5.307424735375176894e+00
8.400000000000000000e+01,5.350962899196444411e+00
8.500000000000000000e+01,5.393987458165940829e+00
8.600000000000000000e+01,5.436508923944452398e+00
8.700000000000000000e+01,5.478537334959660221e+00
8.800000000000000000e+01,5.520079752137672102e+00
8.900000000000000000e+01,5.561146833098089992e+00
9.000000000000000000e+01,5.601747344712982191e+00
9.100000000000000000e+01,5.641888956713147607e+00
9.200000000000000000e+01,5.681580454614342912e+00
9.300000000000000000e+01,5.720829836089592391e+00
9.400000000000000000e+01,5.759644538208184450e+00
9.500000000000000000e+01,5.798033108870875196e+00
9.600000000000000000e+01,5.836002554900562522e+00
9.700000000000000000e+01,5.873560135695148787e+00
9.800000000000000000e+01,5.910712943602744573e+00
9.900000000000000000e+01,5.947468640983872845e+00
1.000000000000000000e+02,5.983833659154560003e+00
1.010000000000000000e+02,6.019814466400114306e+00
1.020000000000000000e+02,6.055417724430039783e+00
1.030000000000000000e+02,6.090649329774541876e+00
1.040000000000000000e+02,6.125516734188662049e+00
1.050000000000000000e+02,6.160025093478482816e+00
1.060000000000000000e+02,6.194179956882818416e+00
1.070000000000000000e+02,6.227987607193354869e+00
1.080000000000000000e+02,6.261454453967314926e+00
1.090000000000000000e+02,6.294585136151636284e+00
1.100000000000000000e+02,6.327385391633264078e+00
1.110000000000000000e+02,6.359860322238128916e+00
1.120000000000000000e+02,6.392014626401430810e+00
1.130000000000000000e+02,6.423854604818034275e+00
1.140000000000000000e+02,6.455384739460275689e+00
1.150000000000000000e+02,6.486609283995594666e+00
1.160000000000000000e+02,6.517533872914289539e+00
1.170000000000000000e+02,6.548162017180314542e+00
1.180000000000000000e+02,6.578499530469417600e+00
1.190000000000000000e+02,6.608550403883645785e+00
1.200000000000000000e+02,6.638318747826120081e+00
1.210000000000000000e+02,6.667808523545708965e+00
1.220000000000000000e+02,6.697024854859235710e+00
1.230000000000000000e+02,6.725971649576734990e+00
1.240000000000000000e+02,6.754652421471246448e+00
1.250000000000000000e+02,6.783071579144575480e+00
1.260000000000000000e+02,6.811232622998005581e+00
1.270000000000000000e+02,6.839139934657799458e+00
1.280000000000000000e+02,6.866797003988886594e+00
1.290000000000000000e+02,6.894206711381642982e+00
1.300000000000000000e+02,6.921373551137591562e+00
1.310000000000000000e+02,6.948300659538208635e+00
1.320000000000000000e+02,6.974991792369028332e+00
1.330000000000000000e+02,7.001449869006457050e+00
1.340000000000000000e+02,7.027678663225486844e+00
1.350000000000000000e+02,7.053680889774727625e+00
1.360000000000000000e+02,7.079460111950728773e+00
1.370000000000000000e+02,7.105019551880676687e+00
1.380000000000000000e+02,7.130362103141901997e+00
1.390000000000000000e+02,7.155490571320580528e+00
1.400000000000000000e+02,7.180408358509485112e+00
1.410000000000000000e+02,7.205117639268540763e+00
1.420000000000000000e+02,7.229622314211060718e+00
1.430000000000000000e+02,7.253924170477704436e+00
1.440000000000000000e+02,7.278026488232945290e+00
1.450000000000000000e+02,7.301932015942538712e+00
1.460000000000000000e+02,7.325643206207014480e+00
1.470000000000000000e+02,7.349162659050907820e+00
1.480000000000000000e+02,7.372492902176167817e+00
1.490000000000000000e+02,7.395636179534420762e+00
1.500000000000000000e+02,7.418595311213709742e+00
1.510000000000000000e+02,7.441373041877946903e+00
1.520000000000000000e+02,7.463970572623363608e+00
1.530000000000000000e+02,7.486391367103760963e+00
1.540000000000000000e+02,7.508637139621445300e+00
1.550000000000000000e+02,7.530710383910097505e+00
1.560000000000000000e+02,7.552613119390062302e+00
1.570000000000000000e+02,7.574347721283783308e+00
1.580000000000000000e+02,7.595915490566413020e+00
1.590000000000000000e+02,7.617319710634244956e+00
1.600000000000000000e+02,7.638561579791125489e+00
1.610000000000000000e+02,7.659643261981722517e+00
1.620000000000000000e+02,7.680566669934831836e+00
1.630000000000000000e+02,7.701334459064161919e+00
1.640000000000000000e+02,7.721947455793260140e+00
1.650000000000000000e+02,7.742407830726845575e+00
1.660000000000000000e+02,7.762717897940355272e+00
1.670000000000000000e+02,7.782878952049953725e+00
1.680000000000000000e+02,7.802893217312139029e+00
1.690000000000000000e+02,7.822761911254091594e+00
1.700000000000000000e+02,7.842487363891680552e+00
1.710000000000000000e+02,7.862070338812734427e+00
1.720000000000000000e+02,7.881513275730141821e+00
1.730000000000000000e+02,7.900817436654435255e+00
1.740000000000000000e+02,7.919984241086896581e+00
1.750000000000000000e+02,7.939015819543274510e+00
1.760000000000000000e+02,7.957913333221957153e+00
1.770000000000000000e+02,7.976678468911567954e+00
1.780000000000000000e+02,7.995312145005173399e+00
1.790000000000000000e+02,8.013816716754586622e+00
1.800000000000000000e+02,8.032192677504610856e+00
1.810000000000000000e+02,8.050442674888229178e+00
1.820000000000000000e+02,8.068566787366124871e+00
1.830000000000000000e+02,8.086566878045571727e+00
1.840000000000000000e+02,8.104444416573032939e+00
1.850000000000000000e+02,8.122200842869782278e+00
1.860000000000000000e+02,8.139836861245989041e+00
1.870000000000000000e+02,8.157354215533217712e+00
1.880000000000000000e+02,8.174754090477488688e+00
1.890000000000000000e+02,8.192037821480655069e+00
1.900000000000000000e+02,8.209206544170344344e+00
1.910000000000000000e+02,8.226260852723456196e+00
1.920000000000000000e+02,8.243202533829979473e+00
1.930000000000000000e+02,8.260032998289533523e+00
1.940000000000000000e+02,8.276752947076525757e+00
1.950000000000000000e+02,8.293363406884486366e+00
1.960000000000000000e+02,8.309866062744822202e+00
1.970000000000000000e+02,8.326261050084211135e+00
1.980000000000000000e+02,8.342550349059830950e+00
1.990000000000000000e+02,8.358734397944630246e+00
2.000000000000000000e+02,8.374814626488367608e+00
2.010000000000000000e+02,8.390791774397134972e+00
2.020000000000000000e+02,8.406666732717599899e+00
2.030000000000000000e+02,8.422441036116975255e+00
2.040000000000000000e+02,8.438115042550247580e+00
2.050000000000000000e+02,8.453689756921049181e+00
2.060000000000000000e+02,8.469166492858716921e+00
2.070000000000000000e+02,8.484545728945883880e+00
2.080000000000000000e+02,8.499828906175505239e+00
2.090000000000000000e+02,8.515016311965943885e+00
2.100000000000000000e+02,8.530109353036548825e+00
2.110000000000000000e+02,8.545108932616768627e+00
2.120000000000000000e+02,8.560015139857345190e+00
2.130000000000000000e+02,8.574829333643194218e+00
2.140000000000000000e+02,8.589552851527685107e+00
2.150000000000000000e+02,8.604185270919316508e+00
2.160000000000000000e+02,8.618728378609674223e+00
2.170000000000000000e+02,8.633182521306185464e+00
2.180000000000000000e+02,8.647548664766645743e+00
2.190000000000000000e+02,8.661827291443382038e+00
2.200000000000000000e+02,8.676019652589030073e+00
2.210000000000000000e+02,8.690126205722831898e+00
2.220000000000000000e+02,8.704147400095351372e+00
2.230000000000000000e+02,8.718084292911502331e+00
2.240000000000000000e+02,8.731937465019667499e+00
2.250000000000000000e+02,8.745708099832047111e+00
2.260000000000000000e+02,8.759395990585739256e+00
2.270000000000000000e+02,8.773002147617011914e+00
2.280000000000000000e+02,8.786527414938976932e+00
2.290000000000000000e+02,8.799972926374007187e+00
2.300000000000000000e+02,8.813338142072691284e+00
2.310000000000000000e+02,8.826624329602040575e+00
2.320000000000000000e+02,8.839832140003750283e+00
2.330000000000000000e+02,8.852962214504261240e+00
2.340000000000000000e+02,8.866015333633608719e+00
2.350000000000000000e+02,8.878991375850299406e+00
2.360000000000000000e+02,8.891891403451291254e+00
2.370000000000000000e+02,8.904715873952232741e+00
2.380000000000000000e+02,8.917465679280047297e+00
2.390000000000000000e+02,8.930140818542941616e+00
2.400000000000000000e+02,8.942742899069358486e+00
2.410000000000000000e+02,8.955271464746170196e+00
2.420000000000000000e+02,8.967726936050286923e+00
2.430000000000000000e+02,8.980110452728474968e+00
2.440000000000000000e+02,8.992421982071000741e+00
2.450000000000000000e+02,9.004662500491397381e+00
2.460000000000000000e+02,9.016832252131472103e+00
2.470000000000000000e+02,9.028931907515216793e+00
2.480000000000000000e+02,9.040961698612495212e+00
2.490000000000000000e+02,9.052922567359757977e+00
2.500000000000000000e+02,9.064814446843412199e+00
2.510000000000000000e+02,9.076638121674864834e+00
2.520000000000000000e+02,9.088393941463374759e+00
2.530000000000000000e+02,9.100082674615309841e+00
2.540000000000000000e+02,9.111704234042454331e+00
2.550000000000000000e+02,9.123259375741200827e+00
2.560000000000000000e+02,9.134748565874051707e+00
2.570000000000000000e+02,9.146172124390570701e+00
2.580000000000000000e+02,9.157530506053063846e+00
2.590000000000000000e+02,9.168824159549391339e+00
2.600000000000000000e+02,9.180053249789606795e+00
2.610000000000000000e+02,9.191218492792394557e+00
2.620000000000000000e+02,9.202320457872332327e+00
2.630000000000000000e+02,9.213359155749300200e+00
2.640000000000000000e+02,9.224335008261498103e+00
2.650000000000000000e+02,9.235248568995892526e+00
2.660000000000000000e+02,9.246100247916816173e+00
2.670000000000000000e+02,9.256890313083003363e+00
2.680000000000000000e+02,9.267619028611079557e+00
2.690000000000000000e+02,9.278287062673754804e+00
2.700000000000000000e+02,9.288894533217261440e+00
2.710000000000000000e+02,9.299441826424144963e+00
2.720000000000000000e+02,9.309929458635304300e+00
2.730000000000000000e+02,9.320357401146900145e+00
2.740000000000000000e+02,9.330726834225341548e+00
2.750000000000000000e+02,9.341037182260345517e+00
2.760000000000000000e+02,9.351289212002482643e+00
2.770000000000000000e+02,9.361483014282123705e+00
2.780000000000000000e+02,9.371619344227655191e+00
2.790000000000000000e+02,9.381698018148705742e+00
2.800000000000000000e+02,9.391720179762989673e+00
2.810000000000000000e+02,9.401685107699238486e+00
2.820000000000000000e+02,9.411593803404938896e+00
2.830000000000000000e+02,9.421446335486326262e+00
2.840000000000000000e+02,9.431242902317771737e+00
2.850000000000000000e+02,9.440983962033154597e+00
2.860000000000000000e+02,9.450669705616771665e+00
2.870000000000000000e+02,9.460300452048047148e+00
2.880000000000000000e+02,9.469876647016240767e+00
2.890000000000000000e+02,9.479398210313547679e+00
2.900000000000000000e+02,9.488865971235776797e+00
2.910000000000000000e+02,9.498279453743784018e+00
2.920000000000000000e+02,9.507639349843945098e+00
2.930000000000000000e+02,9.516946215666626685e+00
2.940000000000000000e+02,9.526199569881335094e+00
2.950000000000000000e+02,9.535400349907051876e+00
2.960000000000000000e+02,9.544548071296487635e+00
2.970000000000000000e+02,9.553643406426862938e+00
2.980000000000000000e+02,9.562686765384201593e+00
2.990000000000000000e+02,9.571678042936373032e+00
3.000000000000000000e+02,9.580617771165119478e+00
3.010000000000000000e+02,9.589505458687703765e+00
3.020000000000000000e+02,9.598341760175822301e+00
3.030000000000000000e+02,9.607127451187576384e+00
3.040000000000000000e+02,9.615861528123572199e+00
3.050000000000000000e+02,9.624545015477941945e+00
3.060000000000000000e+02,9.633177920092892421e+00
3.070000000000000000e+02,9.641760373582290100e+00
3.080000000000000000e+02,9.650292631222523454e+00
3.090000000000000000e+02,9.658774568962096296e+00
3.100000000000000000e+02,9.667206939330224458e+00
3.110000000000000000e+02,9.675589113078716608e+00
3.120000000000000000e+02,9.683921712483266830e+00
3.130000000000000000e+02,9.692205479071093421e+00
3.140000000000000000e+02,9.700438909022349065e+00
3.150000000000000000e+02,9.708623984988344446e+00
3.160000000000000000e+02,9.716759699593131572e+00
3.170000000000000000e+02,9.724846288909793302e+00
3.180000000000000000e+02,9.732884357085703542e+00
3.190000000000000000e+02,9.740873886369772805e+00
3.200000000000000000e+02,9.748814488562587144e+00
3.210000000000000000e+02,9.756707375541591176e+00
3.220000000000000000e+02,9.764551540392101714e+00
3.230000000000000000e+02,9.772347820265414597e+00
3.240000000000000000e+02,9.780095944476624226e+00
3.250000000000000000e+02,9.787796009576119616e+00
3.260000000000000000e+02,9.795448598453406319e+00
3.270000000000000000e+02,9.803053193024508616e+00
3.280000000000000000e+02,9.810610371976384414e+00
3.290000000000000000e+02,9.818120345081798206e+00
3.300000000000000000e+02,9.825582592284472838e+00
3.310000000000000000e+02,9.832997685267772070e+00
3.320000000000000000e+02,9.840365828565424522e+00
3.330000000000000000e+02,9.847686500204899218e+00
3.340000000000000000e+02,9.854960626642776944e+00
3.350000000000000000e+02,9.862187924302537212e+00
3.360000000000000000e+02,9.869368110243955883e+00
3.370000000000000000e+02,9.876501862178354685e+00
3.380000000000000000e+02,9.883589253711752676e+00
3.390000000000000000e+02,9.890629878359131766e+00
3.400000000000000000e+02,9.897624047881450338e+00
3.410000000000000000e+02,9.904571951922610751e+00
3.420000000000000000e+02,9.911473658880940008e+00
3.430000000000000000e+02,9.918329235754237416e+00
3.440000000000000000e+02,9.925138985816197135e+00
3.450000000000000000e+02,9.931902497641022620e+00
3.460000000000000000e+02,9.938620664634163049e+00
3.470000000000000000e+02,9.945292480747951913e+00
3.480000000000000000e+02,9.951918599017819389e+00
3.490000000000000000e+02,9.958499549945662110e+00
3.500000000000000000e+02,9.965034799287378675e+00
3.510000000000000000e+02,9.971524403237136625e+00
3.520000000000000000e+02,9.977968651833737823e+00
3.530000000000000000e+02,9.984368067462972007e+00
3.540000000000000000e+02,9.990721644233405030e+00
3.550000000000000000e+02,9.997030371551314687e+00
3.560000000000000000e+02,1.000329441394795715e+01
3.570000000000000000e+02,1.000951311628009144e+01
3.580000000000000000e+02,1.001568699258648465e+01
3.590000000000000000e+02,1.002181608716585970e+01
3.600000000000000000e+02,1.002790032669383180e+01
3.610000000000000000e+02,1.003394021854874474e+01
3.620000000000000000e+02,1.003993533763426349e+01
3.630000000000000000e+02,1.004588618783226650e+01
3.640000000000000000e+02,1.005179245865196158e+01
3.650000000000000000e+02,1.005765476584304352e+01
3.660000000000000000e+02,1.006347279660148075e+01
3.670000000000000000e+02,1.006924635404063118e+01
3.680000000000000000e+02,1.007497616377478877e+01
3.690000000000000000e+02,1.008066202558771352e+01
3.700000000000000000e+02,1.008630396932094975e+01
3.710000000000000000e+02,1.009190248345454322e+01
3.720000000000000000e+02,1.009745690522261263e+01
3.730000000000000000e+02,1.010296817939886616e+01
3.740000000000000000e+02,1.010843564180414944e+01
3.750000000000000000e+02,1.011385977455172736e+01
3.760000000000000000e+02,1.011924082808450898e+01
3.770000000000000000e+02,1.012457847983982084e+01
3.780000000000000000e+02,1.012987332027320697e+01
3.790000000000000000e+02,1.013512502474496557e+01
3.800000000000000000e+02,1.014033417974593476e+01
3.810000000000000000e+02,1.014550011742262292e+01
3.820000000000000000e+02,1.015062364863742239e+01
3.830000000000000000e+02,1.015570433155766672e+01
3.840000000000000000e+02,1.016074285902825380e+01
3.850000000000000000e+02,1.016573912729511520e+01
3.860000000000000000e+02,1.017069314524820811e+01
3.870000000000000000e+02,1.017560548608640758e+01
3.880000000000000000e+02,1.018047547747025305e+01
3.890000000000000000e+02,1.018530357709853185e+01
3.900000000000000000e+02,1.019009001454350383e+01
3.910000000000000000e+02,1.019483479234537526e+01
3.920000000000000000e+02,1.019953836222346943e+01
3.930000000000000000e+02,1.020420061122375799e+01
3.940000000000000000e+02,1.020882165054870683e+01
3.950000000000000000e+02,1.021340181454142204e+01
3.960000000000000000e+02,1.021794087486147085e+01
3.970000000000000000e+02,1.022243938723866918e+01
3.980000000000000000e+02,1.022689734495331493e+01
