# Time [s], Convective Heat Transfer Coefficient [W/m2K]
1.000000000000000000e+00,0.000000000000000000e+00
2.000000000000000000e+00,0.000000000000000000e+00
3.000000000000000000e+00,0.000000000000000000e+00
4.000000000000000000e+00,0.000000000000000000e+00
5.000000000000000000e+00,1.915079995362458862e-02
6.000000000000000000e+00,3.574028725257893252e-02
7.000000000000000000e+00,5.780487740346602205e-02
8.000000000000000000e+00,8.722966193424934456e-02
9.000000000000000000e+00,1.247628532880160901e-01
1.000000000000000000e+01,1.706458514110963109e-01
1.100000000000000000e+01,2.245709076400675686e-01
1.200000000000000000e+01,2.860368043658975679e-01
1.300000000000000000e+01,3.542128435826614186e-01
1.400000000000000000e+01,4.282652472924659004e-01
1.500000000000000000e+01,5.072995469142610458e-01
1.600000000000000000e+01,5.904623255125422965e-01
1.700000000000000000e+01,6.769621048136790220e-01
1.800000000000000000e+01,7.660938344692377333e-01
1.900000000000000000e+01,8.572415414566655345e-01
2.000000000000000000e+01,9.498668698777524844e-01
2.100000000000000000e+01,1.043511966962044957e+00
2.200000000000000000e+01,1.137782569640915620e+00
2.300000000000000000e+01,1.232346480723655269e+00
2.400000000000000000e+01,1.326923024546730723e+00
2.500000000000000000e+01,1.421283814058631689e+00
2.600000000000000000e+01,1.515235078452261464e+00
2.700000000000000000e+01,1.608613364744190699e+00
2.800000000000000000e+01,1.701289326556578052e+00
2.900000000000000000e+01,1.793152315730248691e+00
3.000000000000000000e+01,1.884109736832566551e+00
3.100000000000000000e+01,1.974096518048317206e+00
3.200000000000000000e+01,2.063056405814108540e+00
3.300000000000000000e+01,2.150943122907649219e+00
3.400000000000000000e+01,2.237726398141028472e+00
3.500000000000000000e+01,2.323381528862988432e+00
3.600000000000000000e+01,2.407890255930144718e+00
3.700000000000000000e+01,2.491241877777423674e+00
3.800000000000000000e+01,2.573434319537915460e+00
3.900000000000000000e+01,2.654462546257816857e+00
4.000000000000000000e+01,2.734329952007443776e+00
4.100000000000000000e+01,2.813044625764193452e+00
4.200000000000000000e+01,2.890616996281783813e+00
4.300000000000000000e+01,2.967052711078304483e+00
4.400000000000000000e+01,3.042366823473526161e+00
4.500000000000000000e+01,3.116576908451005767e+00
4.600000000000000000e+01,3.189693172281652611e+00
4.700000000000000000e+01,3.261733934349424935e+00
4.800000000000000000e+01,3.332715006213666342e+00
4.900000000000000000e+01,3.402652461651090032e+00
5.000000000000000000e+01,3.471567593441872379e+00
5.100000000000000000e+01,3.539477670145447341e+00
5.200000000000000000e+01,3.606399891651422163e+00
5.300000000000000000e+01,3.672351917072715466e+00
5.400000000000000000e+01,3.737350534029134419e+00
5.500000000000000000e+01,3.801415788179357769e+00
5.600000000000000000e+01,3.864566089708887819e+00
5.700000000000000000e+01,3.926819258965470461e+00
5.800000000000000000e+01,3.988192506791114589e+00
5.900000000000000000e+01,4.048704782585516249e+00
6.000000000000000000e+01,4.108370123080412384e+00
6.100000000000000000e+01,4.167208236556315448e+00
6.200000000000000000e+01,4.225235001166312010e+00
6.300000000000000000e+01,4.282465779662660843e+00
6.400000000000000000e+01,4.338916669948170934e+00
6.500000000000000000e+01,4.394606358714479910e+00
6.600000000000000000e+01,4.449546235774373137e+00
6.700000000000000000e+01,4.503752131256733904e+00
6.800000000000000000e+01,4.557241783820582093e+00
6.900000000000000000e+01,4.610026160244419913e+00
7.000000000000000000e+01,4.662120840272421241e+00
7.100000000000000000e+01,4.713541112278884171e+00
7.200000000000000000e+01,4.764297543081001507e+00
7.300000000000000000e+01,4.814405584745855116e+00
7.400000000000000000e+01,4.863876051528968958e+00
7.500000000000000000e+01,4.912723029692494414e+00
7.600000000000000000e+01,4.960957168616340063e+00
7.700000000000000000e+01,5.008591963892804699e+00
7.800000000000000000e+01,5.055637890906732324e+00
7.900000000000000000e+01,5.102107702972597636e+00
8.000000000000000000e+01,5.148010827915524779e+00
8.100000000000000000e+01,5.193360331302572241e+00
8.200000000000000000e+01,5.238165044733384512e+00
8.300000000000000000e+01,5.282434442536903418e+00
8.400000000000000000e+01,5.326180849963083830e+00
8.500000000000000000e+01,5.369412304580358786e+00
8.600000000000000000e+01,5.412139082904550591e+00
8.700000000000000000e+01,5.454371002744173857e+00
8.800000000000000000e+01,5.496115593104384800e+00
8.900000000000000000e+01,5.537382879229847177e+00
9.000000000000000000e+01,5.578181847448225206e+00
9.100000000000000000e+01,5.618519923158852514e+00
9.200000000000000000e+01,5.658406038836843344e+00
9.300000000000000000e+01,5.697848218904224993e+00
9.400000000000000000e+01,5.736854634946936038e+00
9.500000000000000000e+01,5.775431417715510385e+00
9.600000000000000000e+01,5.813588676783144393e+00
9.700000000000000000e+01,5.851331865475864369e+00
9.800000000000000000e+01,5.888668252722503382e+00
9.900000000000000000e+01,5.925604474123622012e+00
1.000000000000000000e+02,5.962148710014423258e+00
1.010000000000000000e+02,5.998306719713412782e+00
1.020000000000000000e+02,6.034085713930328332e+00
1.030000000000000000e+02,6.069490487706735493e+00
1.040000000000000000e+02,6.104528647254738871e+00
1.050000000000000000e+02,6.139206102026807166e+00
1.060000000000000000e+02,6.173528510509524558e+00
1.070000000000000000e+02,6.207500807426574951e+00
1.080000000000000000e+02,6.241129826758013976e+00
1.090000000000000000e+02,6.274421613700191358e+00
1.100000000000000000e+02,6.307380406942376894e+00
1.110000000000000000e+02,6.340012546643297497e+00
1.120000000000000000e+02,6.372321409153072658e+00
1.130000000000000000e+02,6.404313777104089667e+00
1.140000000000000000e+02,6.435994414941224484e+00
1.150000000000000000e+02,6.467367958671307093e+00
1.160000000000000000e+02,6.498439476449246577e+00
1.170000000000000000e+02,6.529212004473438746e+00
1.180000000000000000e+02,6.559691728801498201e+00
1.190000000000000000e+02,6.589883258379435560e+00
1.200000000000000000e+02,6.619790231373330336e+00
1.210000000000000000e+02,6.649416682440114634e+00
1.220000000000000000e+02,6.678767812617163457e+00
1.230000000000000000e+02,6.707847597620704150e+00
1.240000000000000000e+02,6.736659872653563141e+00
1.250000000000000000e+02,6.765209105907423748e+00
1.260000000000000000e+02,6.793497836096716647e+00
1.270000000000000000e+02,6.821530777151690650e+00
1.280000000000000000e+02,6.849311985210564835e+00
1.290000000000000000e+02,6.876844885634106674e+00
1.300000000000000000e+02,6.904132298388537592e+00
1.310000000000000000e+02,6.931178411238800408e+00
1.320000000000000000e+02,6.957987276483196482e+00
1.330000000000000000e+02,6.984561856908057642e+00
1.340000000000000000e+02,7.010905496188716057e+00
1.350000000000000000e+02,7.037020250264112597e+00
1.360000000000000000e+02,7.062911158751142615e+00
1.370000000000000000e+02,7.088580778843740049e+00
1.380000000000000000e+02,7.114031819307327531e+00
1.390000000000000000e+02,7.139267594637904502e+00
1.400000000000000000e+02,7.164291319982712736e+00
1.410000000000000000e+02,7.189105888535079814e+00
1.420000000000000000e+02,7.213712983133685697e+00
1.430000000000000000e+02,7.238116468934550518e+00
1.440000000000000000e+02,7.262319657351068436e+00
1.450000000000000000e+02,7.286324442994892792e+00
1.460000000000000000e+02,7.310132883675493964e+00
1.470000000000000000e+02,7.333748718783701825e+00
1.480000000000000000e+02,7.357174504533300130e+00
1.490000000000000000e+02,7.380411436930687685e+00
1.500000000000000000e+02,7.403463665779621117e+00
1.510000000000000000e+02,7.426332685120157429e+00
1.520000000000000000e+02,7.449021001221899141e+00
1.530000000000000000e+02,7.471531053689819402e+00
1.540000000000000000e+02,7.493865217789561939e+00
1.550000000000000000e+02,7.516024770566714253e+00
1.560000000000000000e+02,7.538013219367251772e+00
1.570000000000000000e+02,7.559832345880326265e+00
1.580000000000000000e+02,7.581484088910945829e+00
1.590000000000000000e+02,7.602970945131782621e+00
1.600000000000000000e+02,7.624294745457887323e+00
1.610000000000000000e+02,7.645456473557509902e+00
1.620000000000000000e+02,7.666459874256842610e+00
1.630000000000000000e+02,7.687305832248439330e+00
1.640000000000000000e+02,7.707996390012049837e+00
1.650000000000000000e+02,7.728533541171858090e+00
1.660000000000000000e+02,7.748918842147236141e+00
1.670000000000000000e+02,7.769154781349834948e+00
1.680000000000000000e+02,7.789242825950344340e+00
1.690000000000000000e+02,7.809184216128134182e+00
1.700000000000000000e+02,7.828981498824862051e+00
1.710000000000000000e+02,7.848635264651527166e+00
1.720000000000000000e+02,7.868148356688095646e+00
1.730000000000000000e+02,7.887521863805103450e+00
1.740000000000000000e+02,7.906757223465418427e+00
1.750000000000000000e+02,7.925856213405336526e+00
1.760000000000000000e+02,7.944820201850395947e+00
1.770000000000000000e+02,7.963651080319079867e+00
1.780000000000000000e+02,7.982349598073288810e+00
1.790000000000000000e+02,8.000918314689899447e+00
1.800000000000000000e+02,8.019357553952476181e+00
1.810000000000000000e+02,8.037669441449480701e+00
1.820000000000000000e+02,8.055855158188540699e+00
1.830000000000000000e+02,8.073916398595729405e+00
1.840000000000000000e+02,8.091853929038908433e+00
1.850000000000000000e+02,8.109669388344441288e+00
1.860000000000000000e+02,8.127364205542885855e+00
1.870000000000000000e+02,8.144939781056194761e+00
1.880000000000000000e+02,8.162396608972970924e+00
1.890000000000000000e+02,8.179737095714028072e+00
1.900000000000000000e+02,8.196961164322496884e+00
1.910000000000000000e+02,8.214070990922076376e+00
1.920000000000000000e+02,8.231066811371086089e+00
1.930000000000000000e+02,8.247950918973396384e+00
1.940000000000000000e+02,8.264723681042621450e+00
1.950000000000000000e+02,8.281386479645778564e+00
1.960000000000000000e+02,8.297940671311511807e+00
1.970000000000000000e+02,8.314386910355304749e+00
1.980000000000000000e+02,8.330726849521385091e+00
1.990000000000000000e+02,8.346960432349414205e+00
2.000000000000000000e+02,8.363090110552880319e+00
2.010000000000000000e+02,8.379115960845645361e+00
2.020000000000000000e+02,8.395038553958951155e+00
2.030000000000000000e+02,8.410860434561048038e+00
2.040000000000000000e+02,8.426580809077325540e+00
2.050000000000000000e+02,8.442202177649651418e+00
2.060000000000000000e+02,8.457724709619650838e+00
2.070000000000000000e+02,8.473148568962169946e+00
2.080000000000000000e+02,8.488476351267701503e+00
2.090000000000000000e+02,8.503707860038471011e+00
2.100000000000000000e+02,8.518844027934120433e+00
2.110000000000000000e+02,8.533886093113501659e+00
2.120000000000000000e+02,8.548834793112295216e+00
2.130000000000000000e+02,8.563690692899626811e+00
2.140000000000000000e+02,8.578455301405087496e+00
2.150000000000000000e+02,8.593128836052922992e+00
2.160000000000000000e+02,8.607711824720187366e+00
2.170000000000000000e+02,8.622205730350634312e+00
2.180000000000000000e+02,8.636610738298722723e+00
2.190000000000000000e+02,8.650928123883183218e+00
2.200000000000000000e+02,8.665158363640157901e+00
2.210000000000000000e+02,8.679302857828398388e+00
2.220000000000000000e+02,8.693361282335358098e+00
2.230000000000000000e+02,8.707334704428518535e+00
2.240000000000000000e+02,8.721224329282705412e+00
2.250000000000000000e+02,8.735030577396674545e+00
2.260000000000000000e+02,8.748753861715520941e+00
2.270000000000000000e+02,8.762395045157870044e+00
2.280000000000000000e+02,8.775954825721623109e+00
2.290000000000000000e+02,8.789433739094024034e+00
2.300000000000000000e+02,8.802832614376553622e+00
2.310000000000000000e+02,8.816151967257553679e+00
2.320000000000000000e+02,8.829392154944580184e+00
2.330000000000000000e+02,8.842554127113771756e+00
2.340000000000000000e+02,8.855638820102480935e+00
2.350000000000000000e+02,8.868646115378112427e+00
2.360000000000000000e+02,8.881577377750314639e+00
2.370000000000000000e+02,8.894432474508089825e+00
2.380000000000000000e+02,8.907212157764314853e+00
2.390000000000000000e+02,8.919917169064667917e+00
2.400000000000000000e+02,8.932548239605022644e+00
2.410000000000000000e+02,8.945105358952897490e+00
2.420000000000000000e+02,8.957589390237648885e+00
2.430000000000000000e+02,8.970000748661377088e+00
2.440000000000000000e+02,8.982340133167868501e+00
2.450000000000000000e+02,8.994607654448932621e+00
2.460000000000000000e+02,9.006804285971803381e+00
2.470000000000000000e+02,9.018930125423723965e+00
2.480000000000000000e+02,9.030986415892998664e+00
2.490000000000000000e+02,9.042972954012030939e+00
2.500000000000000000e+02,9.054890536231594567e+00
2.510000000000000000e+02,9.066739379328430104e+00
2.520000000000000000e+02,9.078520122203183718e+00
2.530000000000000000e+02,9.090233112129896043e+00
2.540000000000000000e+02,9.101878973745684220e+00
2.550000000000000000e+02,9.113458182720906464e+00
2.560000000000000000e+02,9.124971208277072421e+00
2.570000000000000000e+02,9.136417952361400197e+00
2.580000000000000000e+02,9.147799435374608379e+00
2.590000000000000000e+02,9.159115968296829280e+00
2.600000000000000000e+02,9.170367718278384928e+00
2.610000000000000000e+02,9.181555126988486748e+00
2.620000000000000000e+02,9.192678907297274549e+00
2.630000000000000000e+02,9.203739072711162095e+00
2.640000000000000000e+02,9.214736462254547789e+00
2.650000000000000000e+02,9.225671080255940737e+00
2.660000000000000000e+02,9.236543478357148729e+00
2.670000000000000000e+02,9.247354612213404934e+00
2.680000000000000000e+02,9.258103788251263566e+00
2.690000000000000000e+02,9.268791544187777731e+00
2.700000000000000000e+02,9.279419227011183935e+00
2.710000000000000000e+02,9.289986406713198974e+00
2.720000000000000000e+02,9.300493873762492925e+00
2.730000000000000000e+02,9.310941870002332976e+00
2.740000000000000000e+02,9.321330499009622628e+00
2.750000000000000000e+02,9.331660668636704514e+00
2.760000000000000000e+02,9.341931667774755255e+00
2.770000000000000000e+02,9.352145065473303376e+00
2.780000000000000000e+02,9.362299878332473568e+00
2.790000000000000000e+02,9.372397795371298912e+00
2.800000000000000000e+02,9.382437830236852960e+00
2.810000000000000000e+02,9.392421657579113514e+00
2.820000000000000000e+02,9.402348685512588844e+00
2.830000000000000000e+02,9.412219250820985650e+00
2.840000000000000000e+02,9.422034213633910582e+00
2.850000000000000000e+02,9.431793899321380792e+00
2.860000000000000000e+02,9.441497316145305518e+00
2.870000000000000000e+02,9.451145969200815955e+00
2.880000000000000000e+02,9.460739519086708071e+00
2.890000000000000000e+02,9.470278933138178701e+00
2.900000000000000000e+02,9.479764257879933709e+00
2.910000000000000000e+02,9.489195278265965428e+00
2.920000000000000000e+02,9.498572428475256402e+00
2.930000000000000000e+02,9.507896267554063030e+00
2.940000000000000000e+02,9.517166702796627575e+00
2.950000000000000000e+02,9.526384543961558649e+00
2.960000000000000000e+02,9.535548791016569936e+00
2.970000000000000000e+02,9.544661020326481449e+00
2.980000000000000000e+02,9.553720614806227474e+00
2.990000000000000000e+02,9.562728240993532580e+00
3.000000000000000000e+02,9.571683920412988655e+00
3.010000000000000000e+02,9.580587800822886635e+00
3.020000000000000000e+02,9.589440155044551162e+00
3.030000000000000000e+02,9.598240871561403154e+00
3.040000000000000000e+02,9.606990726372002243e+00
3.050000000000000000e+02,9.615689602486387599e+00
3.060000000000000000e+02,9.624337509023849435e+00
3.070000000000000000e+02,9.632934958524568714e+00
3.080000000000000000e+02,9.641481703203627518e+00
3.090000000000000000e+02,9.649978375861984148e+00
3.100000000000000000e+02,9.658424976322475430e+00
3.110000000000000000e+02,9.666821252780046336e+00
3.120000000000000000e+02,9.675167829437516076e+00
3.130000000000000000e+02,9.683464576075987651e+00
3.140000000000000000e+02,9.691712110031572180e+00
3.150000000000000000e+02,9.699910048046701760e+00
3.160000000000000000e+02,9.708058877811968301e+00
3.170000000000000000e+02,9.716158090674813508e+00
3.180000000000000000e+02,9.724208665808568242e+00
3.190000000000000000e+02,9.732210462525456407e+00
3.200000000000000000e+02,9.740163339997804925e+00
3.210000000000000000e+02,9.748067526808421590e+00
3.220000000000000000e+02,9.755923003004916438e+00
3.230000000000000000e+02,9.763730484453898129e+00
3.240000000000000000e+02,9.771489700602883133e+00
3.250000000000000000e+02,9.779200626371249427e+00
3.260000000000000000e+02,9.786863357985712497e+00
3.270000000000000000e+02,9.794478234054292187e+00
3.280000000000000000e+02,9.802045346354077537e+00
3.290000000000000000e+02,9.809564663395436312e+00
3.300000000000000000e+02,9.817036274290908082e+00
3.310000000000000000e+02,9.824460509116997642e+00
3.320000000000000000e+02,9.831837089417044595e+00
3.330000000000000000e+02,9.839166341940835281e+00
3.340000000000000000e+02,9.846448590442857807e+00
3.350000000000000000e+02,9.853683673476835381e+00
3.360000000000000000e+02,9.860871429500910779e+00
3.370000000000000000e+02,9.868012418135558406e+00
3.380000000000000000e+02,9.875106714566371124e+00
3.390000000000000000e+02,9.882154032908740504e+00
3.400000000000000000e+02,9.889155045455524373e+00
3.410000000000000000e+02,9.896108985297301430e+00
3.420000000000000000e+02,9.903016759881616338e+00
3.430000000000000000e+02,9.909877720980222904e+00
3.440000000000000000e+02,9.916692651330448527e+00
3.450000000000000000e+02,9.923461139613790394e+00
3.460000000000000000e+02,9.930183369278964278e+00
3.470000000000000000e+02,9.936859758850529190e+00
3.480000000000000000e+02,9.943490250005401876e+00
3.490000000000000000e+02,9.950074783709704107e+00
3.500000000000000000e+02,9.956613064048962514e+00
3.510000000000000000e+02,9.963105739050529763e+00
3.520000000000000000e+02,9.969552981236253331e+00
3.530000000000000000e+02,9.975954608347711527e+00
3.540000000000000000e+02,9.982310320565813910e+00
3.550000000000000000e+02,9.988620991832560136e+00
3.560000000000000000e+02,9.994886318865329855e+00
3.570000000000000000e+02,1.000110611592251253e+01
3.580000000000000000e+02,1.000728089849953228e+01
3.590000000000000000e+02,1.001341059480225226e+01
3.600000000000000000e+02,1.001949501577176882e+01
3.610000000000000000e+02,1.002553478749884164e+01
3.620000000000000000e+02,1.003152971777682190e+01
3.630000000000000000e+02,1.003747984668802751e+01
3.640000000000000000e+02,1.004338532916785809e+01
3.650000000000000000e+02,1.004924608658758522e+01
3.660000000000000000e+02,1.005506227124100604e+01
3.670000000000000000e+02,1.006083426501019140e+01
3.680000000000000000e+02,1.006656186944718456e+01
3.690000000000000000e+02,1.007224534755847500e+01
3.700000000000000000e+02,1.007788438388291219e+01
3.710000000000000000e+02,1.008347958440924685e+01
3.720000000000000000e+02,1.008903063142459544e+01
3.730000000000000000e+02,1.009453812664530936e+01
3.740000000000000000e+02,1.010000175015700030e+01
3.750000000000000000e+02,1.010542164096909978e+01
3.760000000000000000e+02,1.011079805102017026e+01
3.770000000000000000e+02,1.011613077265067595e+01
3.780000000000000000e+02,1.012142039797512361e+01
3.790000000000000000e+02,1.012666728736888366e+01
3.800000000000000000e+02,1.013187054440603241e+01
3.810000000000000000e+02,1.013703087020274651e+01
3.820000000000000000e+02,1.014214805164222888e+01
3.830000000000000000e+02,1.014722267132042433e+01
3.840000000000000000e+02,1.015225439995161061e+01
3.850000000000000000e+02,1.015724370284850586e+01
3.860000000000000000e+02,1.016219047578493395e+01
3.870000000000000000e+02,1.016709506697377741e+01
3.880000000000000000e+02,1.017195736980683485e+01
3.890000000000000000e+02,1.017677772926330704e+01
3.900000000000000000e+02,1.018155626224401900e+01
3.910000000000000000e+02,1.018629285865611678e+01
3.920000000000000000e+02,1.019098785874779445e+01
3.930000000000000000e+02,1.019564137537709847e+01
3.940000000000000000e+02,1.020025363259099294e+01
3.950000000000000000e+02,1.020482474031719633e+01
3.960000000000000000e+02,1.020935458257674000e+01
3.970000000000000000e+02,1.021384360395195401e+01
3.980000000000000000e+02,1.021829191023812555e+01
