# Time [s], Convective Heat Transfer Coefficient [W/m2K]
1.000000000000000000e+00,0.000000000000000000e+00
2.000000000000000000e+00,0.000000000000000000e+00
3.000000000000000000e+00,0.000000000000000000e+00
4.000000000000000000e+00,0.000000000000000000e+00
5.000000000000000000e+00,1.915079995362458862e-02
6.000000000000000000e+00,3.574028725257893252e-02
7.000000000000000000e+00,5.780487740346602205e-02
8.000000000000000000e+00,8.753627135162818373e-02
9.000000000000000000e+00,1.253616044067482060e-01
1.000000000000000000e+01,1.718037552659736900e-01
1.100000000000000000e+01,2.263898408456907207e-01
1.200000000000000000e+01,2.885893200302890871e-01
1.300000000000000000e+01,3.576318302339202004e-01
1.400000000000000000e+01,4.326183226186968156e-01
1.500000000000000000e+01,5.126333951402772815e-01
1.600000000000000000e+01,5.968002951695695613e-01
1.700000000000000000e+01,6.843101145218858372e-01
1.800000000000000000e+01,7.744473535576716916e-01
1.900000000000000000e+01,8.665793001235280180e-01
2.000000000000000000e+01,9.601577711067389442e-01
2.100000000000000000e+01,1.054722829083570845e+00
2.200000000000000000e+01,1.149873725531678437e+00
2.300000000000000000e+01,1.245276997603886437e+00
2.400000000000000000e+01,1.340655000714844336e+00
2.500000000000000000e+01,1.435773006311557465e+00
2.600000000000000000e+01,1.530435945392378594e+00
2.700000000000000000e+01,1.624483747725644855e+00
2.800000000000000000e+01,1.717788853330580956e+00
2.900000000000000000e+01,1.810241103736616619e+00
3.000000000000000000e+01,1.901751694405475090e+00
3.100000000000000000e+01,1.992254640114184738e+00
3.200000000000000000e+01,2.081694655177413811e+00
3.300000000000000000e+01,2.170030452671524390e+00
3.400000000000000000e+01,2.257230298844690175e+00
3.500000000000000000e+01,2.343269839260043952e+00
3.600000000000000000e+01,2.428134087158822396e+00
3.700000000000000000e+01,2.511815269334220613e+00
3.800000000000000000e+01,2.594309887207839171e+00
3.900000000000000000e+01,2.675616541544064475e+00
4.000000000000000000e+01,2.755741071444841594e+00
4.100000000000000000e+01,2.834691527689165547e+00
4.200000000000000000e+01,2.912473977531320646e+00
4.300000000000000000e+01,2.989102809635826308e+00
4.400000000000000000e+01,3.064593725863160145e+00
4.500000000000000000e+01,3.138957826918636229e+00
4.600000000000000000e+01,3.212216027268901097e+00
4.700000000000000000e+01,3.284382078927284176e+00
4.800000000000000000e+01,3.355472501786239459e+00
4.900000000000000000e+01,3.425508659780378107e+00
5.000000000000000000e+01,3.494507905166618578e+00
5.100000000000000000e+01,3.562486231764270261e+00
5.200000000000000000e+01,3.629465878805935741e+00
5.300000000000000000e+01,3.695464447342028169e+00
5.400000000000000000e+01,3.760501404677242032e+00
5.500000000000000000e+01,3.824594265924130099e+00
5.600000000000000000e+01,3.887762181731274413e+00
5.700000000000000000e+01,3.950023386304480688e+00
5.800000000000000000e+01,4.011396172551703998e+00
5.900000000000000000e+01,4.071898925903536082e+00
6.000000000000000000e+01,4.131548238859327427e+00
6.100000000000000000e+01,4.190363347052839416e+00
6.200000000000000000e+01,4.248359666498162213e+00
6.300000000000000000e+01,4.305553715701300632e+00
6.400000000000000000e+01,4.361962853240521909e+00
6.500000000000000000e+01,4.417603859596915150e+00
6.600000000000000000e+01,4.472490150808328124e+00
6.700000000000000000e+01,4.526637219883804519e+00
6.800000000000000000e+01,4.580062746640469307e+00
6.900000000000000000e+01,4.632778679144045952e+00
7.000000000000000000e+01,4.684800903125976745e+00
7.100000000000000000e+01,4.736143673158474066e+00
7.200000000000000000e+01,4.786819299361114055e+00
7.300000000000000000e+01,4.836842477163553866e+00
7.400000000000000000e+01,4.886224436162458495e+00
7.500000000000000000e+01,4.934980183961926059e+00
7.600000000000000000e+01,4.983120252049414667e+00
7.700000000000000000e+01,5.030658688335289952e+00
7.800000000000000000e+01,5.077604999818539966e+00
7.900000000000000000e+01,5.123973110574706169e+00
8.000000000000000000e+01,5.169773031779043571e+00
8.100000000000000000e+01,5.215014419030818082e+00
8.200000000000000000e+01,5.259710189181487472e+00
8.300000000000000000e+01,5.303869166703622184e+00
8.400000000000000000e+01,5.347503410179980321e+00
8.500000000000000000e+01,5.390622025226604386e+00
8.600000000000000000e+01,5.433233491961395600e+00
8.700000000000000000e+01,5.475349221244646181e+00
8.800000000000000000e+01,5.516977944427713609e+00
8.900000000000000000e+01,5.558126817244202655e+00
9.000000000000000000e+01,5.598806347063026045e+00
9.100000000000000000e+01,5.639025327642046115e+00
9.200000000000000000e+01,5.678791936722742406e+00
9.300000000000000000e+01,5.718112522589677837e+00
9.400000000000000000e+01,5.756997446494671600e+00
9.500000000000000000e+01,5.795453948121101817e+00
9.600000000000000000e+01,5.833489409504531764e+00
9.700000000000000000e+01,5.871110121428483986e+00
9.800000000000000000e+01,5.908325139692260031e+00
9.900000000000000000e+01,5.945140813407769897e+00
1.000000000000000000e+02,5.981564024694299597e+00
1.010000000000000000e+02,6.017600765493530623e+00
1.020000000000000000e+02,6.053259000410401214e+00
1.030000000000000000e+02,6.088544888641347796e+00
1.040000000000000000e+02,6.123464791180273536e+00
1.050000000000000000e+02,6.158023190711576333e+00
1.060000000000000000e+02,6.192227801575375778e+00
1.070000000000000000e+02,6.226084440923420615e+00
1.080000000000000000e+02,6.259598505000509405e+00
1.090000000000000000e+02,6.292775730184039240e+00
1.100000000000000000e+02,6.325620595377070998e+00
1.110000000000000000e+02,6.358139600431512051e+00
1.120000000000000000e+02,6.390338268921962772e+00
1.130000000000000000e+02,6.422221367437904505e+00
1.140000000000000000e+02,6.453792999014699383e+00
1.150000000000000000e+02,6.485058165950905895e+00
1.160000000000000000e+02,6.516023361086803689e+00
1.170000000000000000e+02,6.546692101071791114e+00
1.180000000000000000e+02,6.577069394305079975e+00
1.190000000000000000e+02,6.607158723246310927e+00
1.200000000000000000e+02,6.636965036508438054e+00
1.210000000000000000e+02,6.666493366941162790e+00
1.220000000000000000e+02,6.695747523014579983e+00
1.230000000000000000e+02,6.724731954127288525e+00
1.240000000000000000e+02,6.753449156991798041e+00
1.250000000000000000e+02,6.781905102614004477e+00
1.260000000000000000e+02,6.810102529878040656e+00
1.270000000000000000e+02,6.838045835170532882e+00
1.280000000000000000e+02,6.865738273916931256e+00
1.290000000000000000e+02,6.893183238335105933e+00
1.300000000000000000e+02,6.920384985551240042e+00
1.310000000000000000e+02,6.947347391719335796e+00
1.320000000000000000e+02,6.974073004525311426e+00
1.330000000000000000e+02,7.000565243629331746e+00
1.340000000000000000e+02,7.026827656958759327e+00
1.350000000000000000e+02,7.052863681054022393e+00
1.360000000000000000e+02,7.078676879210818562e+00
1.370000000000000000e+02,7.104269081872756075e+00
1.380000000000000000e+02,7.129643903047361952e+00
1.390000000000000000e+02,7.154805534257997479e+00
1.400000000000000000e+02,7.179755091696756963e+00
1.410000000000000000e+02,7.204496360648018793e+00
1.420000000000000000e+02,7.229031896790130141e+00
1.430000000000000000e+02,7.253365738034053933e+00
1.440000000000000000e+02,7.277498935174779859e+00
1.450000000000000000e+02,7.301434481172856650e+00
1.460000000000000000e+02,7.325175502844152753e+00
1.470000000000000000e+02,7.348724389962548287e+00
1.480000000000000000e+02,7.372083680631590141e+00
1.490000000000000000e+02,7.395256056912653086e+00
1.500000000000000000e+02,7.418243915255379406e+00
1.510000000000000000e+02,7.441049164195073118e+00
1.520000000000000000e+02,7.463674290107197073e+00
1.530000000000000000e+02,7.486122757827896379e+00
1.540000000000000000e+02,7.508395244454573181e+00
1.550000000000000000e+02,7.530494469437483573e+00
1.560000000000000000e+02,7.552422877695650349e+00
1.570000000000000000e+02,7.574182647913539235e+00
1.580000000000000000e+02,7.595775294662978183e+00
1.590000000000000000e+02,7.617203503109668539e+00
1.600000000000000000e+02,7.638469290901737097e+00
1.610000000000000000e+02,7.659574825066959747e+00
1.620000000000000000e+02,7.680521624437442796e+00
1.630000000000000000e+02,7.701311564265950871e+00
1.640000000000000000e+02,7.721946866845040169e+00
1.650000000000000000e+02,7.742429116171402725e+00
1.660000000000000000e+02,7.762760246244710949e+00
1.670000000000000000e+02,7.782941952411522202e+00
1.680000000000000000e+02,7.802976082255892898e+00
1.690000000000000000e+02,7.822865014496981573e+00
1.700000000000000000e+02,7.842609552330381817e+00
1.710000000000000000e+02,7.862211614257345715e+00
1.720000000000000000e+02,7.881672887495680513e+00
1.730000000000000000e+02,7.900994833887178714e+00
1.740000000000000000e+02,7.920179442004512183e+00
1.750000000000000000e+02,7.939227728945635221e+00
1.760000000000000000e+02,7.958142166538690887e+00
1.770000000000000000e+02,7.976923519764880233e+00
1.780000000000000000e+02,7.995572901111343000e+00
1.790000000000000000e+02,8.014092856147769339e+00
1.800000000000000000e+02,8.032484065099863457e+00
1.810000000000000000e+02,8.050748275245826591e+00
1.820000000000000000e+02,8.068886478993126943e+00
1.830000000000000000e+02,8.086900541876930859e+00
1.840000000000000000e+02,8.104791044894396279e+00
1.850000000000000000e+02,8.122560329116561562e+00
1.860000000000000000e+02,8.140209101025808636e+00
1.870000000000000000e+02,8.157738578772834259e+00
1.880000000000000000e+02,8.175149605551458976e+00
1.890000000000000000e+02,8.192444401779599872e+00
1.900000000000000000e+02,8.209623931088888327e+00
1.910000000000000000e+02,8.226689310413970446e+00
1.920000000000000000e+02,8.243641290162182500e+00
1.930000000000000000e+02,8.260481462663831209e+00
1.940000000000000000e+02,8.277211049196635528e+00
1.950000000000000000e+02,8.293830907616348114e+00
1.960000000000000000e+02,8.310342217708083012e+00
1.970000000000000000e+02,8.326745968419659860e+00
1.980000000000000000e+02,8.343043634412802945e+00
1.990000000000000000e+02,8.359235491521573636e+00
2.000000000000000000e+02,8.375323143150472660e+00
2.010000000000000000e+02,8.391307998772381538e+00
2.020000000000000000e+02,8.407189952846557901e+00
2.030000000000000000e+02,8.422971043303331129e+00
2.040000000000000000e+02,8.438651630799753889e+00
2.050000000000000000e+02,8.454232559018077353e+00
2.060000000000000000e+02,8.469715635384595487e+00
2.070000000000000000e+02,8.485100849645816012e+00
2.080000000000000000e+02,8.500389484883180913e+00
2.090000000000000000e+02,8.515582641539424458e+00
2.100000000000000000e+02,8.530681079937410871e+00
2.110000000000000000e+02,8.545684905777543250e+00
2.120000000000000000e+02,8.560596456833982515e+00
2.130000000000000000e+02,8.575415329678476084e+00
2.140000000000000000e+02,8.590142710186059460e+00
2.150000000000000000e+02,8.604779765418866688e+00
2.160000000000000000e+02,8.619327013809686022e+00
2.170000000000000000e+02,8.633785121336432056e+00
2.180000000000000000e+02,8.648155368655530140e+00
2.190000000000000000e+02,8.662437613007112347e+00
2.200000000000000000e+02,8.676633421460223872e+00
2.210000000000000000e+02,8.690743253343924835e+00
2.220000000000000000e+02,8.704767868657141250e+00
2.230000000000000000e+02,8.718708323290247364e+00
2.240000000000000000e+02,8.732564736352362189e+00
2.250000000000000000e+02,8.746337835252399273e+00
2.260000000000000000e+02,8.760029098723908447e+00
2.270000000000000000e+02,8.773638464159866146e+00
2.280000000000000000e+02,8.787166928765634211e+00
2.290000000000000000e+02,8.800614568495156220e+00
2.300000000000000000e+02,8.813982812363104102e+00
2.310000000000000000e+02,8.827271717928995898e+00
2.320000000000000000e+02,8.840482388434240946e+00
2.330000000000000000e+02,8.853615165231872197e+00
2.340000000000000000e+02,8.866670383599347005e+00
2.350000000000000000e+02,8.879649263619095123e+00
2.360000000000000000e+02,8.892552120975540930e+00
2.370000000000000000e+02,8.905379560950079210e+00
2.380000000000000000e+02,8.918132032742150272e+00
2.390000000000000000e+02,8.930810125266242849e+00
2.400000000000000000e+02,8.943414711567472253e+00
2.410000000000000000e+02,8.955946069231512041e+00
2.420000000000000000e+02,8.968404325350009643e+00
2.430000000000000000e+02,8.980790764843758822e+00
2.440000000000000000e+02,8.993105354021560416e+00
2.450000000000000000e+02,9.005348923835779118e+00
2.460000000000000000e+02,9.017521862571351576e+00
2.470000000000000000e+02,9.029624408995992724e+00
2.480000000000000000e+02,9.041657370323960663e+00
2.490000000000000000e+02,9.053621400655789131e+00
2.500000000000000000e+02,9.065517003059499146e+00
2.510000000000000000e+02,9.077344247459455673e+00
2.520000000000000000e+02,9.089103909868281761e+00
2.530000000000000000e+02,9.100796049956315414e+00
2.540000000000000000e+02,9.112421711953196279e+00
2.550000000000000000e+02,9.123980802901114018e+00
2.560000000000000000e+02,9.135473930488409167e+00
2.570000000000000000e+02,9.146901554788533062e+00
2.580000000000000000e+02,9.158264129707509582e+00
2.590000000000000000e+02,9.169562381540352192e+00
2.600000000000000000e+02,9.180795916843935700e+00
2.610000000000000000e+02,9.191965729918893047e+00
2.620000000000000000e+02,9.203071974631036767e+00
2.630000000000000000e+02,9.214114939731752330e+00
2.640000000000000000e+02,9.225095322358969341e+00
2.650000000000000000e+02,9.236013125409971991e+00
2.660000000000000000e+02,9.246869308609227289e+00
2.670000000000000000e+02,9.257663728551500881e+00
2.680000000000000000e+02,9.268397195605757588e+00
2.690000000000000000e+02,9.279069695485199887e+00
2.700000000000000000e+02,9.289681619549162050e+00
2.710000000000000000e+02,9.300233489511052554e+00
2.720000000000000000e+02,9.310725550895931235e+00
2.730000000000000000e+02,9.321158315097154201e+00
2.740000000000000000e+02,9.331531884273198685e+00
2.750000000000000000e+02,9.341846492445405659e+00
2.760000000000000000e+02,9.352102504050664677e+00
2.770000000000000000e+02,9.362300278982937485e+00
2.780000000000000000e+02,9.372440039405683265e+00
2.790000000000000000e+02,9.382522270180556845e+00
2.800000000000000000e+02,9.392547583384251553e+00
2.810000000000000000e+02,9.402515525305480182e+00
2.820000000000000000e+02,9.412426966077440227e+00
2.830000000000000000e+02,9.422282107955254560e+00
2.840000000000000000e+02,9.432081413394644898e+00
2.850000000000000000e+02,9.441824289277805704e+00
2.860000000000000000e+02,9.451511587538979242e+00
2.870000000000000000e+02,9.461143890328091999e+00
2.880000000000000000e+02,9.470721121279458643e+00
2.890000000000000000e+02,9.480243724399150196e+00
2.900000000000000000e+02,9.489711878930560118e+00
2.910000000000000000e+02,9.499125502009480471e+00
2.920000000000000000e+02,9.508485028102123593e+00
2.930000000000000000e+02,9.517791016265997328e+00
2.940000000000000000e+02,9.527043891029425282e+00
2.950000000000000000e+02,9.536243042673472559e+00
2.960000000000000000e+02,9.545389149736980272e+00
2.970000000000000000e+02,9.554482114990642927e+00
2.980000000000000000e+02,9.563523120650156528e+00
2.990000000000000000e+02,9.572511550373517863e+00
3.000000000000000000e+02,9.581447811366869516e+00
3.010000000000000000e+02,9.590332052095394744e+00
3.020000000000000000e+02,9.599164545813991367e+00
3.030000000000000000e+02,9.607945562624482960e+00
3.040000000000000000e+02,9.616675116364435283e+00
3.050000000000000000e+02,9.625353219633941748e+00
3.060000000000000000e+02,9.633980892793061912e+00
3.070000000000000000e+02,9.642557259300673422e+00
3.080000000000000000e+02,9.651083584227036383e+00
3.090000000000000000e+02,9.659559115304810817e+00
3.100000000000000000e+02,9.667984356806298862e+00
3.110000000000000000e+02,9.676359808381645777e+00
3.120000000000000000e+02,9.684685091488132613e+00
3.130000000000000000e+02,9.692960950423639588e+00
3.140000000000000000e+02,9.701186755117037208e+00
3.150000000000000000e+02,9.709363368740389078e+00
3.160000000000000000e+02,9.717490655851628745e+00
3.170000000000000000e+02,9.725568480832695428e+00
3.180000000000000000e+02,9.733597819874121981e+00
3.190000000000000000e+02,9.741578284786337250e+00
3.200000000000000000e+02,9.749509488853098205e+00
3.210000000000000000e+02,9.757392522225609710e+00
3.220000000000000000e+02,9.765226993881203299e+00
3.230000000000000000e+02,9.773012881923166972e+00
3.240000000000000000e+02,9.780751020091157599e+00
3.250000000000000000e+02,9.788441136233792861e+00
3.260000000000000000e+02,9.796082958858557177e+00
3.270000000000000000e+02,9.803676947871322156e+00
3.280000000000000000e+02,9.811223559274584005e+00
3.290000000000000000e+02,9.818722516695347124e+00
3.300000000000000000e+02,9.826173908116917488e+00
3.310000000000000000e+02,9.833577698883772200e+00
3.320000000000000000e+02,9.840934699621037396e+00
3.330000000000000000e+02,9.848244146040348923e+00
3.340000000000000000e+02,9.855506844070236028e+00
3.350000000000000000e+02,9.862722029420654124e+00
3.360000000000000000e+02,9.869891104220030797e+00
3.370000000000000000e+02,9.877012821584427726e+00
3.380000000000000000e+02,9.884088337206847541e+00
3.390000000000000000e+02,9.891117004371796639e+00
3.400000000000000000e+02,9.898099134865036675e+00
3.410000000000000000e+02,9.905035156995705137e+00
3.420000000000000000e+02,9.911924661609269549e+00
3.430000000000000000e+02,9.918768192677287487e+00
3.440000000000000000e+02,9.925565458394974172e+00
3.450000000000000000e+02,9.932316760834440927e+00
3.460000000000000000e+02,9.939022043902390635e+00
3.470000000000000000e+02,9.945681842497593905e+00
3.480000000000000000e+02,9.952295505798270270e+00
3.490000000000000000e+02,9.958863447676995051e+00
3.500000000000000000e+02,9.965386314552192815e+00
3.510000000000000000e+02,9.971863218081276514e+00
3.520000000000000000e+02,9.978294801921563817e+00
3.530000000000000000e+02,9.984681235721733827e+00
3.540000000000000000e+02,9.991022335449073921e+00
3.550000000000000000e+02,9.997318502610777813e+00
3.560000000000000000e+02,1.000356919987952509e+01
3.570000000000000000e+02,1.000977517674456685e+01
3.580000000000000000e+02,1.001593601110163867e+01
3.590000000000000000e+02,1.002205221428054749e+01
3.600000000000000000e+02,1.002812371209745734e+01
3.610000000000000000e+02,1.003415031346795239e+01
3.620000000000000000e+02,1.004013275623044343e+01
3.630000000000000000e+02,1.004607026586772278e+01
3.640000000000000000e+02,1.005196357660840434e+01
3.650000000000000000e+02,1.005781260822111456e+01
3.660000000000000000e+02,1.006361739544670542e+01
3.670000000000000000e+02,1.006937785642534244e+01
3.680000000000000000e+02,1.007509471593141548e+01
3.690000000000000000e+02,1.008076754256172514e+01
3.700000000000000000e+02,1.008639602093926158e+01
3.710000000000000000e+02,1.009198110039475083e+01
3.720000000000000000e+02,1.009752246217880511e+01
3.730000000000000000e+02,1.010302024671037735e+01
3.740000000000000000e+02,1.010847470738706022e+01
3.750000000000000000e+02,1.011388529447829221e+01
3.760000000000000000e+02,1.011925306006833658e+01
3.770000000000000000e+02,1.012457710947275835e+01
3.780000000000000000e+02,1.012985837604754380e+01
3.790000000000000000e+02,1.013509653474047134e+01
3.800000000000000000e+02,1.014029217163625773e+01
3.810000000000000000e+02,1.014544495965404280e+01
3.820000000000000000e+02,1.015055502654886155e+01
3.830000000000000000e+02,1.015562261211367456e+01
3.840000000000000000e+02,1.016064772746908140e+01
3.850000000000000000e+02,1.016563026947682502e+01
3.860000000000000000e+02,1.017057092662695261e+01
3.870000000000000000e+02,1.017546947934994961e+01
3.880000000000000000e+02,1.018032582094846994e+01
3.890000000000000000e+02,1.018514063410361636e+01
3.900000000000000000e+02,1.018991347062968345e+01
3.910000000000000000e+02,1.019464500942984841e+01
3.920000000000000000e+02,1.019933513827885285e+01
3.930000000000000000e+02,1.020398419417140090e+01
3.940000000000000000e+02,1.020859161337977739e+01
3.950000000000000000e+02,1.021315829222754523e+01
3.960000000000000000e+02,1.021768388956574292e+01
3.970000000000000000e+02,1.022216896078335324e+01
3.980000000000000000e+02,1.022661349879616743e+01
