# Time [s], Temperature [C]
1.000000000000000000e+00,2.499997099999999861e+01
2.000000000000000000e+00,4.683571200000000090e+01
3.000000000000000000e+00,5.888803099999999802e+01
4.000000000000000000e+00,6.873053699999999822e+01
5.000000000000000000e+00,7.691458099999999831e+01
6.000000000000000000e+00,8.410358399999999790e+01
7.000000000000000000e+00,9.053710900000000095e+01
8.000000000000000000e+00,9.639972699999999861e+01
9.000000000000000000e+00,1.018027000000000015e+02
1.000000000000000000e+01,1.068286399999999929e+02
1.100000000000000000e+01,1.115358200000000011e+02
1.200000000000000000e+01,1.159707700000000017e+02
1.300000000000000000e+01,1.201686600000000027e+02
1.400000000000000000e+01,1.241577099999999945e+02
1.500000000000000000e+01,1.279613099999999974e+02
1.600000000000000000e+01,1.315989399999999989e+02
1.700000000000000000e+01,1.350860099999999875e+02
1.800000000000000000e+01,1.384367499999999893e+02
1.900000000000000000e+01,1.416620900000000063e+02
2.000000000000000000e+01,1.447733299999999872e+02
2.100000000000000000e+01,1.477781699999999887e+02
2.200000000000000000e+01,1.506848599999999863e+02
2.300000000000000000e+01,1.535005600000000072e+02
2.400000000000000000e+01,1.562309300000000007e+02
2.500000000000000000e+01,1.588811599999999942e+02
2.600000000000000000e+01,1.614571200000000033e+02
2.700000000000000000e+01,1.639617200000000139e+02
2.800000000000000000e+01,1.664002399999999966e+02
2.900000000000000000e+01,1.687764400000000080e+02
3.000000000000000000e+01,1.710923200000000008e+02
3.100000000000000000e+01,1.733516999999999939e+02
3.200000000000000000e+01,1.755580600000000118e+02
3.300000000000000000e+01,1.777128899999999874e+02
3.400000000000000000e+01,1.798184400000000096e+02
3.500000000000000000e+01,1.818786299999999869e+02
3.600000000000000000e+01,1.838940399999999897e+02
3.700000000000000000e+01,1.858663300000000049e+02
3.800000000000000000e+01,1.877985400000000027e+02
3.900000000000000000e+01,1.896913299999999936e+02
4.000000000000000000e+01,1.915464200000000119e+02
4.100000000000000000e+01,1.933661700000000110e+02
4.200000000000000000e+01,1.951508200000000102e+02
4.300000000000000000e+01,1.969016900000000021e+02
4.400000000000000000e+01,1.986214400000000069e+02
4.500000000000000000e+01,2.003094800000000077e+02
4.600000000000000000e+01,2.019675599999999918e+02
4.700000000000000000e+01,2.035972299999999962e+02
4.800000000000000000e+01,2.051989299999999901e+02
4.900000000000000000e+01,2.067736700000000098e+02
5.000000000000000000e+01,2.083230299999999886e+02
5.100000000000000000e+01,2.098469200000000114e+02
5.200000000000000000e+01,2.113464099999999917e+02
5.300000000000000000e+01,2.128228000000000009e+02
5.400000000000000000e+01,2.142763500000000079e+02
5.500000000000000000e+01,2.157074700000000007e+02
5.600000000000000000e+01,2.171176600000000008e+02
5.700000000000000000e+01,2.185074199999999962e+02
5.800000000000000000e+01,2.198765400000000056e+02
5.900000000000000000e+01,2.212272199999999884e+02
6.000000000000000000e+01,2.225584699999999998e+02
6.100000000000000000e+01,2.238713400000000036e+02
6.200000000000000000e+01,2.251668699999999887e+02
6.300000000000000000e+01,2.264452100000000030e+02
6.400000000000000000e+01,2.277062999999999988e+02
6.500000000000000000e+01,2.289522399999999891e+02
6.600000000000000000e+01,2.301821600000000103e+02
6.700000000000000000e+01,2.313967399999999941e+02
6.800000000000000000e+01,2.325967100000000016e+02
6.900000000000000000e+01,2.337821500000000015e+02
7.000000000000000000e+01,2.349535799999999881e+02
7.100000000000000000e+01,2.361119400000000041e+02
7.200000000000000000e+01,2.372568699999999922e+02
7.300000000000000000e+01,2.383889599999999973e+02
7.400000000000000000e+01,2.395090199999999925e+02
7.500000000000000000e+01,2.406167900000000088e+02
7.600000000000000000e+01,2.417129799999999875e+02
7.700000000000000000e+01,2.427978099999999984e+02
7.800000000000000000e+01,2.438713799999999878e+02
7.900000000000000000e+01,2.449344000000000108e+02
8.000000000000000000e+01,2.459873699999999985e+02
8.100000000000000000e+01,2.470295999999999879e+02
8.200000000000000000e+01,2.480618699999999990e+02
8.300000000000000000e+01,2.490853999999999928e+02
8.400000000000000000e+01,2.500988299999999924e+02
8.500000000000000000e+01,2.511033799999999871e+02
8.600000000000000000e+01,2.520994399999999871e+02
8.700000000000000000e+01,2.530865900000000011e+02
8.800000000000000000e+01,2.540650300000000072e+02
8.900000000000000000e+01,2.550362100000000112e+02
9.000000000000000000e+01,2.559985700000000008e+02
9.100000000000000000e+01,2.569535799999999881e+02
9.200000000000000000e+01,2.579007899999999722e+02
9.300000000000000000e+01,2.588407599999999888e+02
9.400000000000000000e+01,2.597731600000000185e+02
9.500000000000000000e+01,2.606988799999999742e+02
9.600000000000000000e+01,2.616177099999999882e+02
9.700000000000000000e+01,2.625292999999999779e+02
9.800000000000000000e+01,2.634345999999999890e+02
9.900000000000000000e+01,2.643333700000000022e+02
1.000000000000000000e+02,2.652252799999999979e+02
1.010000000000000000e+02,2.661114499999999907e+02
1.020000000000000000e+02,2.669908800000000042e+02
1.030000000000000000e+02,2.678640700000000265e+02
1.040000000000000000e+02,2.687316599999999767e+02
1.050000000000000000e+02,2.695931100000000242e+02
1.060000000000000000e+02,2.704487300000000118e+02
1.070000000000000000e+02,2.712981899999999769e+02
1.080000000000000000e+02,2.721421500000000151e+02
1.090000000000000000e+02,2.729804100000000062e+02
1.100000000000000000e+02,2.738134200000000078e+02
1.110000000000000000e+02,2.746405599999999936e+02
1.120000000000000000e+02,2.754620100000000207e+02
1.130000000000000000e+02,2.762785900000000083e+02
1.140000000000000000e+02,2.770895399999999995e+02
1.150000000000000000e+02,2.778951400000000262e+02
1.160000000000000000e+02,2.786958900000000199e+02
1.170000000000000000e+02,2.794912699999999859e+02
1.180000000000000000e+02,2.802815200000000004e+02
1.190000000000000000e+02,2.810669899999999757e+02
1.200000000000000000e+02,2.818472300000000246e+02
1.210000000000000000e+02,2.826225600000000213e+02
1.220000000000000000e+02,2.833933099999999854e+02
1.230000000000000000e+02,2.841591500000000110e+02
1.240000000000000000e+02,2.849202300000000037e+02
1.250000000000000000e+02,2.856770000000000209e+02
1.260000000000000000e+02,2.864289600000000178e+02
1.270000000000000000e+02,2.871764200000000073e+02
1.280000000000000000e+02,2.879197700000000282e+02
1.290000000000000000e+02,2.886584799999999973e+02
1.300000000000000000e+02,2.893927600000000098e+02
1.310000000000000000e+02,2.901233500000000163e+02
1.320000000000000000e+02,2.908493300000000090e+02
1.330000000000000000e+02,2.915712599999999952e+02
1.340000000000000000e+02,2.922894000000000005e+02
1.350000000000000000e+02,2.930033900000000244e+02
1.360000000000000000e+02,2.937136199999999917e+02
1.370000000000000000e+02,2.944200099999999907e+02
1.380000000000000000e+02,2.951227700000000027e+02
1.390000000000000000e+02,2.958215000000000146e+02
1.400000000000000000e+02,2.965168800000000147e+02
1.410000000000000000e+02,2.972086800000000153e+02
1.420000000000000000e+02,2.978966100000000097e+02
1.430000000000000000e+02,2.985812999999999988e+02
1.440000000000000000e+02,2.992625699999999824e+02
1.450000000000000000e+02,2.999403399999999920e+02
1.460000000000000000e+02,3.006147799999999961e+02
1.470000000000000000e+02,3.012856800000000135e+02
1.480000000000000000e+02,3.019534300000000258e+02
1.490000000000000000e+02,3.026182900000000018e+02
1.500000000000000000e+02,3.032796000000000163e+02
1.510000000000000000e+02,3.039379599999999755e+02
1.520000000000000000e+02,3.045932599999999866e+02
1.530000000000000000e+02,3.052455100000000243e+02
1.540000000000000000e+02,3.058946500000000128e+02
1.550000000000000000e+02,3.065408300000000281e+02
1.560000000000000000e+02,3.071838399999999751e+02
1.570000000000000000e+02,3.078242799999999875e+02
1.580000000000000000e+02,3.084617299999999886e+02
1.590000000000000000e+02,3.090963399999999979e+02
1.600000000000000000e+02,3.097280000000000086e+02
1.610000000000000000e+02,3.103569299999999771e+02
1.620000000000000000e+02,3.109830000000000041e+02
1.630000000000000000e+02,3.116061100000000010e+02
1.640000000000000000e+02,3.122272600000000011e+02
1.650000000000000000e+02,3.128450000000000273e+02
1.660000000000000000e+02,3.134602399999999989e+02
1.670000000000000000e+02,3.140730300000000170e+02
1.680000000000000000e+02,3.146827700000000050e+02
1.690000000000000000e+02,3.152902199999999766e+02
1.700000000000000000e+02,3.158949299999999880e+02
1.710000000000000000e+02,3.164970999999999890e+02
1.720000000000000000e+02,3.170966799999999921e+02
1.730000000000000000e+02,3.176939699999999789e+02
1.740000000000000000e+02,3.182882399999999734e+02
1.750000000000000000e+02,3.188804600000000278e+02
1.760000000000000000e+02,3.194699400000000082e+02
1.770000000000000000e+02,3.200572500000000105e+02
1.780000000000000000e+02,3.206415400000000204e+02
1.790000000000000000e+02,3.212239999999999895e+02
1.800000000000000000e+02,3.218033399999999915e+02
1.810000000000000000e+02,3.223804900000000089e+02
1.820000000000000000e+02,3.229554099999999721e+02
1.830000000000000000e+02,3.235277699999999754e+02
1.840000000000000000e+02,3.240978099999999813e+02
1.850000000000000000e+02,3.246653699999999958e+02
1.860000000000000000e+02,3.252307700000000068e+02
1.870000000000000000e+02,3.257933300000000258e+02
1.880000000000000000e+02,3.263542199999999980e+02
1.890000000000000000e+02,3.269120800000000031e+02
1.900000000000000000e+02,3.274679899999999861e+02
1.910000000000000000e+02,3.280215499999999906e+02
1.920000000000000000e+02,3.285726300000000037e+02
1.930000000000000000e+02,3.291212800000000129e+02
1.940000000000000000e+02,3.296678200000000061e+02
1.950000000000000000e+02,3.302119099999999889e+02
1.960000000000000000e+02,3.307537800000000061e+02
1.970000000000000000e+02,3.312931800000000067e+02
1.980000000000000000e+02,3.318305399999999850e+02
1.990000000000000000e+02,3.323652599999999779e+02
2.000000000000000000e+02,3.328979800000000182e+02
2.010000000000000000e+02,3.334282499999999914e+02
2.020000000000000000e+02,3.339563299999999799e+02
2.030000000000000000e+02,3.344822700000000282e+02
2.040000000000000000e+02,3.350057400000000030e+02
2.050000000000000000e+02,3.355269799999999805e+02
2.060000000000000000e+02,3.360458100000000172e+02
2.070000000000000000e+02,3.365626199999999812e+02
2.080000000000000000e+02,3.370771199999999794e+02
2.090000000000000000e+02,3.375891100000000051e+02
2.100000000000000000e+02,3.380991200000000276e+02
2.110000000000000000e+02,3.386065100000000143e+02
2.120000000000000000e+02,3.391118799999999851e+02
2.130000000000000000e+02,3.396150799999999776e+02
2.140000000000000000e+02,3.401156899999999723e+02
2.150000000000000000e+02,3.406145000000000209e+02
2.160000000000000000e+02,3.411107499999999959e+02
2.170000000000000000e+02,3.416047100000000114e+02
2.180000000000000000e+02,3.420967099999999732e+02
2.190000000000000000e+02,3.425863299999999754e+02
2.200000000000000000e+02,3.430732399999999984e+02
2.210000000000000000e+02,3.435584999999999809e+02
2.220000000000000000e+02,3.440412900000000036e+02
2.230000000000000000e+02,3.445216699999999719e+02
2.240000000000000000e+02,3.450000600000000190e+02
2.250000000000000000e+02,3.454759199999999737e+02
2.260000000000000000e+02,3.459494900000000257e+02
2.270000000000000000e+02,3.464210199999999986e+02
2.280000000000000000e+02,3.468902899999999931e+02
2.290000000000000000e+02,3.473572100000000091e+02
2.300000000000000000e+02,3.478216899999999896e+02
2.310000000000000000e+02,3.482842699999999923e+02
2.320000000000000000e+02,3.487443799999999783e+02
2.330000000000000000e+02,3.492022400000000175e+02
2.340000000000000000e+02,3.496578999999999837e+02
2.350000000000000000e+02,3.501112100000000282e+02
2.360000000000000000e+02,3.505622900000000186e+02
2.370000000000000000e+02,3.510112599999999929e+02
2.380000000000000000e+02,3.514575800000000072e+02
2.390000000000000000e+02,3.519019499999999994e+02
2.400000000000000000e+02,3.523439900000000193e+02
2.410000000000000000e+02,3.527837200000000166e+02
2.420000000000000000e+02,3.532210400000000163e+02
2.430000000000000000e+02,3.536562500000000000e+02
2.440000000000000000e+02,3.540889900000000239e+02
2.450000000000000000e+02,3.545198700000000258e+02
2.460000000000000000e+02,3.549482699999999795e+02
2.470000000000000000e+02,3.553744199999999864e+02
2.480000000000000000e+02,3.557982200000000148e+02
2.490000000000000000e+02,3.562197600000000079e+02
2.500000000000000000e+02,3.566390099999999848e+02
2.510000000000000000e+02,3.570561799999999835e+02
2.520000000000000000e+02,3.574709799999999973e+02
2.530000000000000000e+02,3.578834499999999821e+02
2.540000000000000000e+02,3.582937299999999823e+02
2.550000000000000000e+02,3.587014800000000037e+02
2.560000000000000000e+02,3.591071200000000090e+02
2.570000000000000000e+02,3.595105899999999792e+02
2.580000000000000000e+02,3.599117100000000278e+02
2.590000000000000000e+02,3.603105499999999779e+02
2.600000000000000000e+02,3.607073100000000068e+02
2.610000000000000000e+02,3.611017200000000003e+02
2.620000000000000000e+02,3.614938700000000154e+02
2.630000000000000000e+02,3.618838799999999765e+02
2.640000000000000000e+02,3.622714799999999968e+02
2.650000000000000000e+02,3.626568599999999947e+02
2.660000000000000000e+02,3.630401299999999765e+02
2.670000000000000000e+02,3.634210800000000177e+02
2.680000000000000000e+02,3.637995300000000043e+02
2.690000000000000000e+02,3.641760300000000257e+02
2.700000000000000000e+02,3.645502599999999802e+02
2.710000000000000000e+02,3.649223299999999881e+02
2.720000000000000000e+02,3.652921099999999797e+02
2.730000000000000000e+02,3.656596099999999865e+02
2.740000000000000000e+02,3.660249900000000025e+02
2.750000000000000000e+02,3.663883099999999899e+02
2.760000000000000000e+02,3.667493600000000242e+02
2.770000000000000000e+02,3.671082799999999793e+02
2.780000000000000000e+02,3.674650599999999940e+02
2.790000000000000000e+02,3.678198199999999929e+02
2.800000000000000000e+02,3.681720900000000256e+02
2.810000000000000000e+02,3.685224000000000046e+02
2.820000000000000000e+02,3.688707899999999995e+02
2.830000000000000000e+02,3.692168599999999969e+02
2.840000000000000000e+02,3.695607899999999972e+02
2.850000000000000000e+02,3.699026200000000131e+02
2.860000000000000000e+02,3.702423099999999749e+02
2.870000000000000000e+02,3.705798300000000154e+02
2.880000000000000000e+02,3.709155600000000277e+02
2.890000000000000000e+02,3.712488099999999918e+02
2.900000000000000000e+02,3.715802299999999718e+02
2.910000000000000000e+02,3.719095500000000243e+02
2.920000000000000000e+02,3.722368799999999851e+02
2.930000000000000000e+02,3.725621600000000058e+02
2.940000000000000000e+02,3.728857100000000173e+02
2.950000000000000000e+02,3.732071500000000128e+02
2.960000000000000000e+02,3.735265200000000050e+02
2.970000000000000000e+02,3.738439000000000192e+02
2.980000000000000000e+02,3.741593599999999924e+02
2.990000000000000000e+02,3.744730500000000006e+02
3.000000000000000000e+02,3.747843899999999735e+02
3.010000000000000000e+02,3.750940600000000131e+02
3.020000000000000000e+02,3.754019799999999805e+02
3.030000000000000000e+02,3.757079499999999825e+02
3.040000000000000000e+02,3.760123600000000010e+02
3.050000000000000000e+02,3.763143000000000029e+02
3.060000000000000000e+02,3.766146899999999960e+02
3.070000000000000000e+02,3.769131800000000112e+02
3.080000000000000000e+02,3.772104800000000182e+02
3.090000000000000000e+02,3.775052499999999895e+02
3.100000000000000000e+02,3.777984599999999773e+02
3.110000000000000000e+02,3.780897800000000188e+02
3.120000000000000000e+02,3.783798499999999763e+02
3.130000000000000000e+02,3.786680600000000254e+02
3.140000000000000000e+02,3.789543800000000147e+02
3.150000000000000000e+02,3.792390100000000075e+02
3.160000000000000000e+02,3.795223399999999856e+02
3.170000000000000000e+02,3.798032499999999914e+02
3.180000000000000000e+02,3.800833700000000022e+02
3.190000000000000000e+02,3.803615699999999720e+02
3.200000000000000000e+02,3.806383400000000279e+02
3.210000000000000000e+02,3.809129599999999982e+02
3.220000000000000000e+02,3.811867399999999861e+02
3.230000000000000000e+02,3.814588299999999776e+02
3.240000000000000000e+02,3.817289999999999850e+02
3.250000000000000000e+02,3.819979900000000157e+02
3.260000000000000000e+02,3.822659600000000069e+02
3.270000000000000000e+02,3.825316500000000133e+02
3.280000000000000000e+02,3.827962299999999800e+02
3.290000000000000000e+02,3.830599700000000212e+02
3.300000000000000000e+02,3.833214100000000144e+02
3.310000000000000000e+02,3.835817299999999932e+02
3.320000000000000000e+02,3.838407599999999888e+02
3.330000000000000000e+02,3.840984199999999760e+02
3.340000000000000000e+02,3.843548000000000116e+02
3.350000000000000000e+02,3.846099500000000262e+02
3.360000000000000000e+02,3.848637100000000260e+02
3.370000000000000000e+02,3.851162400000000048e+02
3.380000000000000000e+02,3.853676800000000071e+02
3.390000000000000000e+02,3.856176100000000133e+02
3.400000000000000000e+02,3.858664200000000051e+02
3.410000000000000000e+02,3.861141999999999825e+02
3.420000000000000000e+02,3.863605699999999956e+02
3.430000000000000000e+02,3.866057400000000257e+02
3.440000000000000000e+02,3.868499800000000164e+02
3.450000000000000000e+02,3.870929899999999861e+02
3.460000000000000000e+02,3.873351700000000051e+02
3.470000000000000000e+02,3.875752899999999954e+02
3.480000000000000000e+02,3.878153699999999731e+02
3.490000000000000000e+02,3.880542599999999993e+02
3.500000000000000000e+02,3.882912600000000225e+02
3.510000000000000000e+02,3.885282000000000266e+02
3.520000000000000000e+02,3.887640099999999848e+02
3.530000000000000000e+02,3.889979900000000157e+02
3.540000000000000000e+02,3.892324199999999905e+02
3.550000000000000000e+02,3.894644799999999805e+02
3.560000000000000000e+02,3.896959800000000200e+02
3.570000000000000000e+02,3.899274899999999775e+02
3.580000000000000000e+02,3.901567400000000134e+02
3.590000000000000000e+02,3.903863799999999742e+02
3.600000000000000000e+02,3.906138900000000262e+02
3.610000000000000000e+02,3.908413400000000024e+02
3.620000000000000000e+02,3.910673199999999952e+02
3.630000000000000000e+02,3.912927199999999743e+02
3.640000000000000000e+02,3.915180700000000229e+02
3.650000000000000000e+02,3.917411799999999857e+02
3.660000000000000000e+02,3.919645100000000184e+02
3.670000000000000000e+02,3.921865199999999732e+02
3.680000000000000000e+02,3.924081400000000031e+02
3.690000000000000000e+02,3.926287199999999871e+02
3.700000000000000000e+02,3.928485400000000141e+02
3.710000000000000000e+02,3.930678100000000086e+02
3.720000000000000000e+02,3.932860400000000141e+02
3.730000000000000000e+02,3.935040900000000192e+02
3.740000000000000000e+02,3.937207900000000222e+02
3.750000000000000000e+02,3.939373199999999997e+02
3.760000000000000000e+02,3.941521599999999808e+02
3.770000000000000000e+02,3.943672799999999938e+02
3.780000000000000000e+02,3.945817299999999932e+02
3.790000000000000000e+02,3.947952300000000037e+02
3.800000000000000000e+02,3.950082699999999818e+02
3.810000000000000000e+02,3.952203700000000026e+02
3.820000000000000000e+02,3.954323400000000106e+02
3.830000000000000000e+02,3.956424000000000092e+02
3.840000000000000000e+02,3.958536700000000224e+02
3.850000000000000000e+02,3.960626199999999812e+02
3.860000000000000000e+02,3.962726099999999860e+02
3.870000000000000000e+02,3.964802199999999743e+02
3.880000000000000000e+02,3.966891200000000026e+02
3.890000000000000000e+02,3.968955100000000016e+02
3.900000000000000000e+02,3.971026600000000144e+02
3.910000000000000000e+02,3.973091099999999756e+02
3.920000000000000000e+02,3.975136400000000094e+02
3.930000000000000000e+02,3.977195399999999950e+02
3.940000000000000000e+02,3.979231599999999958e+02
3.950000000000000000e+02,3.981279599999999732e+02
3.960000000000000000e+02,3.983304400000000101e+02
3.970000000000000000e+02,3.985342099999999732e+02
3.980000000000000000e+02,3.987355299999999829e+02
3.990000000000000000e+02,3.989382299999999759e+02
