# Time [s], Convective Heat Transfer Coefficient [W/m2K]
1.000000000000000000e+00,0.000000000000000000e+00
2.000000000000000000e+00,0.000000000000000000e+00
3.000000000000000000e+00,0.000000000000000000e+00
4.000000000000000000e+00,0.000000000000000000e+00
5.000000000000000000e+00,0.000000000000000000e+00
6.000000000000000000e+00,2.192219346753060405e-02
7.000000000000000000e+00,3.748642353082986406e-02
8.000000000000000000e+00,5.950598814619030563e-02
9.000000000000000000e+00,8.903804324037288553e-02
1.000000000000000000e+01,1.266153036197226744e-01
1.100000000000000000e+01,1.725539995221521683e-01
1.200000000000000000e+01,2.265267978305844365e-01
1.300000000000000000e+01,2.879836595667189525e-01
1.400000000000000000e+01,3.561337146987140767e-01
1.500000000000000000e+01,4.300765589589152782e-01
1.600000000000000000e+01,5.089046776439393183e-01
1.700000000000000000e+01,5.917521704313853936e-01
1.800000000000000000e+01,6.778396639102397536e-01
1.900000000000000000e+01,7.664785899245728507e-01
2.000000000000000000e+01,8.570614999033916437e-01
2.100000000000000000e+01,9.490760766621743061e-01
2.200000000000000000e+01,1.042081311107486252e+00
2.300000000000000000e+01,1.135703507493826869e+00
2.400000000000000000e+01,1.229631126722880774e+00
2.500000000000000000e+01,1.323579763662986242e+00
2.600000000000000000e+01,1.417343360131769314e+00
2.700000000000000000e+01,1.510741641601963225e+00
2.800000000000000000e+01,1.603600284509880902e+00
2.900000000000000000e+01,1.695813409874803668e+00
3.000000000000000000e+01,1.787262494104512323e+00
3.100000000000000000e+01,1.877869500632543653e+00
3.200000000000000000e+01,1.967559023191412404e+00
3.300000000000000000e+01,2.056281809938340199e+00
3.400000000000000000e+01,2.143991525621809835e+00
3.500000000000000000e+01,2.230654158519491226e+00
3.600000000000000000e+01,2.316242886612914997e+00
3.700000000000000000e+01,2.400743004590040641e+00
3.800000000000000000e+01,2.484139508312254829e+00
3.900000000000000000e+01,2.566427060673034610e+00
4.000000000000000000e+01,2.647601804680457693e+00
4.100000000000000000e+01,2.727663571701857581e+00
4.200000000000000000e+01,2.806618968763058497e+00
4.300000000000000000e+01,2.884473168463516757e+00
4.400000000000000000e+01,2.961236974541554989e+00
4.500000000000000000e+01,3.036914562839340803e+00
4.600000000000000000e+01,3.111527320881763536e+00
4.700000000000000000e+01,3.185076980638752442e+00
4.800000000000000000e+01,3.257589108212225693e+00
4.900000000000000000e+01,3.329067145633479718e+00
5.000000000000000000e+01,3.399537587087563928e+00
5.100000000000000000e+01,3.469007370031162107e+00
5.200000000000000000e+01,3.537497323893781687e+00
5.300000000000000000e+01,3.605022574725027074e+00
5.400000000000000000e+01,3.671599378395683733e+00
5.500000000000000000e+01,3.737245017661011026e+00
5.600000000000000000e+01,3.801975459264330670e+00
5.700000000000000000e+01,3.865807629834145054e+00
5.800000000000000000e+01,3.928757778648920951e+00
5.900000000000000000e+01,3.990842428319483659e+00
6.000000000000000000e+01,4.052077664522876432e+00
6.100000000000000000e+01,4.112479663455575363e+00
6.200000000000000000e+01,4.172064193951070976e+00
6.300000000000000000e+01,4.230846468858440623e+00
6.400000000000000000e+01,4.288841661723330922e+00
6.500000000000000000e+01,4.346064293277766666e+00
6.600000000000000000e+01,4.402529346498575968e+00
6.700000000000000000e+01,4.458252394590368262e+00
6.800000000000000000e+01,4.513245920986420856e+00
6.900000000000000000e+01,4.567523458877601250e+00
7.000000000000000000e+01,4.621100747969045131e+00
7.100000000000000000e+01,4.673989182780614371e+00
7.200000000000000000e+01,4.726202024624162057e+00
7.300000000000000000e+01,4.777752429014714863e+00
7.400000000000000000e+01,4.828651021534722254e+00
7.500000000000000000e+01,4.878913264917918546e+00
7.600000000000000000e+01,4.928545699886457854e+00
7.700000000000000000e+01,4.977566173331286592e+00
7.800000000000000000e+01,5.025978961486728736e+00
7.900000000000000000e+01,5.073801722029295469e+00
8.000000000000000000e+01,5.121039027704765267e+00
8.100000000000000000e+01,5.167706239357669595e+00
8.200000000000000000e+01,5.213809938082109241e+00
8.300000000000000000e+01,5.259362555257125038e+00
8.400000000000000000e+01,5.304370716459757773e+00
8.500000000000000000e+01,5.348847334848462864e+00
8.600000000000000000e+01,5.392798935107282254e+00
8.700000000000000000e+01,5.436236257344708278e+00
8.800000000000000000e+01,5.479166511375949788e+00
8.900000000000000000e+01,5.521600553215565199e+00
9.000000000000000000e+01,5.563543830959429393e+00
9.100000000000000000e+01,5.605007212967831443e+00
9.200000000000000000e+01,5.645997041876714029e+00
9.300000000000000000e+01,5.686523200519909338e+00
9.400000000000000000e+01,5.726590721893653146e+00
9.500000000000000000e+01,5.766210012400636131e+00
9.600000000000000000e+01,5.805386135487556665e+00
9.700000000000000000e+01,5.844129206210221916e+00
9.800000000000000000e+01,5.882443809362871256e+00
9.900000000000000000e+01,5.920339170920772887e+00
1.000000000000000000e+02,5.957820388225687935e+00
1.010000000000000000e+02,5.994896013024550108e+00
1.020000000000000000e+02,6.031571243414242112e+00
1.030000000000000000e+02,6.067854228035333364e+00
1.040000000000000000e+02,6.103749701434173502e+00
1.050000000000000000e+02,6.139265268526435726e+00
1.060000000000000000e+02,6.174406849218948778e+00
1.070000000000000000e+02,6.209180473025037728e+00
1.080000000000000000e+02,6.243591912155254775e+00
1.090000000000000000e+02,6.277647408022162701e+00
1.100000000000000000e+02,6.311352617387347763e+00
1.110000000000000000e+02,6.344712962987828497e+00
1.120000000000000000e+02,6.377734249902660579e+00
1.130000000000000000e+02,6.410421848414418200e+00
1.140000000000000000e+02,6.442780772427311398e+00
1.150000000000000000e+02,6.474817037458026725e+00
1.160000000000000000e+02,6.506534957482044135e+00
1.170000000000000000e+02,6.537940047849016167e+00
1.180000000000000000e+02,6.569036526979485480e+00
1.190000000000000000e+02,6.599829796004979876e+00
1.200000000000000000e+02,6.630324520537152821e+00
1.210000000000000000e+02,6.660525192314478815e+00
1.220000000000000000e+02,6.690436398827920961e+00
1.230000000000000000e+02,6.720062819442987667e+00
1.240000000000000000e+02,6.749408450945394655e+00
1.250000000000000000e+02,6.778477401581280759e+00
1.260000000000000000e+02,6.807274644480070691e+00
1.270000000000000000e+02,6.835803226362993534e+00
1.280000000000000000e+02,6.864068074300911704e+00
1.290000000000000000e+02,6.892072715765691804e+00
1.300000000000000000e+02,6.919821535673940538e+00
1.310000000000000000e+02,6.947317074917433111e+00
1.320000000000000000e+02,6.974564434526438816e+00
1.330000000000000000e+02,7.001566640049067480e+00
1.340000000000000000e+02,7.028327328173189059e+00
1.350000000000000000e+02,7.054849783218744008e+00
1.360000000000000000e+02,7.081138117950414035e+00
1.370000000000000000e+02,7.107194462672804747e+00
1.380000000000000000e+02,7.133023639010334094e+00
1.390000000000000000e+02,7.158627809956080057e+00
1.400000000000000000e+02,7.184011110972675418e+00
1.410000000000000000e+02,7.209175301819158221e+00
1.420000000000000000e+02,7.234124546503654329e+00
1.430000000000000000e+02,7.258861554661419468e+00
1.440000000000000000e+02,7.283389175936472171e+00
1.450000000000000000e+02,7.307710395641300316e+00
1.460000000000000000e+02,7.331827677384281650e+00
1.470000000000000000e+02,7.355744062183831922e+00
1.480000000000000000e+02,7.379462505326644717e+00
1.490000000000000000e+02,7.402985665959811890e+00
1.500000000000000000e+02,7.426315492315385569e+00
1.510000000000000000e+02,7.449455564471971769e+00
1.520000000000000000e+02,7.472407480464135610e+00
1.530000000000000000e+02,7.495174459440169024e+00
1.540000000000000000e+02,7.517757979100364807e+00
1.550000000000000000e+02,7.540161534057125969e+00
1.560000000000000000e+02,7.562386687632525195e+00
1.570000000000000000e+02,7.584436181064968530e+00
1.580000000000000000e+02,7.606311471810954572e+00
1.590000000000000000e+02,7.628015788172342049e+00
1.600000000000000000e+02,7.649550478703622147e+00
1.610000000000000000e+02,7.670918049133850225e+00
1.620000000000000000e+02,7.692120745690589345e+00
1.630000000000000000e+02,7.713160365794592188e+00
1.640000000000000000e+02,7.734038661886702748e+00
1.650000000000000000e+02,7.754758510784057535e+00
1.660000000000000000e+02,7.775320786101922010e+00
1.670000000000000000e+02,7.795727685619434411e+00
1.680000000000000000e+02,7.815981547267551122e+00
1.690000000000000000e+02,7.836083702029632114e+00
1.700000000000000000e+02,7.856036206889400297e+00
1.710000000000000000e+02,7.875840694396365471e+00
1.720000000000000000e+02,7.895498759075974426e+00
1.730000000000000000e+02,7.915012519126469748e+00
1.740000000000000000e+02,7.934383302226032164e+00
1.750000000000000000e+02,7.953612590168050112e+00
1.760000000000000000e+02,7.972702751949989342e+00
1.770000000000000000e+02,7.991654273593893798e+00
1.780000000000000000e+02,8.010469816131321252e+00
1.790000000000000000e+02,8.029149988643066393e+00
1.800000000000000000e+02,8.047696830088597153e+00
1.810000000000000000e+02,8.066111617633570319e+00
1.820000000000000000e+02,8.084395600591081532e+00
1.830000000000000000e+02,8.102550892709842856e+00
1.840000000000000000e+02,8.120577790407747187e+00
1.850000000000000000e+02,8.138478877926527133e+00
1.860000000000000000e+02,8.156254402350587185e+00
1.870000000000000000e+02,8.173906704601076711e+00
1.880000000000000000e+02,8.191435987627848192e+00
1.890000000000000000e+02,8.208844878737078687e+00
1.900000000000000000e+02,8.226133015966993867e+00
1.910000000000000000e+02,8.243303312384439252e+00
1.920000000000000000e+02,8.260355197589140275e+00
1.930000000000000000e+02,8.277291865382858660e+00
1.940000000000000000e+02,8.294112199550751185e+00
1.950000000000000000e+02,8.310820012926630085e+00
1.960000000000000000e+02,8.327413314150556189e+00
1.970000000000000000e+02,8.343896528939993118e+00
1.980000000000000000e+02,8.360267310460937296e+00
1.990000000000000000e+02,8.376530518533536807e+00
2.000000000000000000e+02,8.392683123341285523e+00
2.010000000000000000e+02,8.408730084605517519e+00
2.020000000000000000e+02,8.424669191166271887e+00
2.030000000000000000e+02,8.440503848318291702e+00
2.040000000000000000e+02,8.456233314514152610e+00
2.050000000000000000e+02,8.471859465378615894e+00
2.060000000000000000e+02,8.487383170614146266e+00
2.070000000000000000e+02,8.502805122056878773e+00
2.080000000000000000e+02,8.518126320952685404e+00
2.090000000000000000e+02,8.533347911738982106e+00
2.100000000000000000e+02,8.548470058297100493e+00
2.110000000000000000e+02,8.563494674936972473e+00
2.120000000000000000e+02,8.578421896340973518e+00
2.130000000000000000e+02,8.593252486364830744e+00
2.140000000000000000e+02,8.607987827242405743e+00
2.150000000000000000e+02,8.622628492155014257e+00
2.160000000000000000e+02,8.637174886676916685e+00
2.170000000000000000e+02,8.651628502746325111e+00
2.180000000000000000e+02,8.665989874331499365e+00
2.190000000000000000e+02,8.680259214797752421e+00
2.200000000000000000e+02,8.694438125576535725e+00
2.210000000000000000e+02,8.708526949682498852e+00
2.220000000000000000e+02,8.722526330691531271e+00
2.230000000000000000e+02,8.736437054596573049e+00
2.240000000000000000e+02,8.750260200499655028e+00
2.250000000000000000e+02,8.763996069247685483e+00
2.260000000000000000e+02,8.777645563045528121e+00
2.270000000000000000e+02,8.791209115934529805e+00
2.280000000000000000e+02,8.804688060061542032e+00
2.290000000000000000e+02,8.818082353924268091e+00
2.300000000000000000e+02,8.831393154740164064e+00
2.310000000000000000e+02,8.844620555872982237e+00
2.320000000000000000e+02,8.857766139093069313e+00
2.330000000000000000e+02,8.870829679972365156e+00
2.340000000000000000e+02,8.883812882542235556e+00
2.350000000000000000e+02,8.896715062360975423e+00
2.360000000000000000e+02,8.909538194994443217e+00
2.370000000000000000e+02,8.922281731263774773e+00
2.380000000000000000e+02,8.934947472065605467e+00
2.390000000000000000e+02,8.947535294890769819e+00
2.400000000000000000e+02,8.960046534515971217e+00
2.410000000000000000e+02,8.972480763830638750e+00
2.420000000000000000e+02,8.984839878397574253e+00
2.430000000000000000e+02,8.997123581732358488e+00
2.440000000000000000e+02,9.009333164916739634e+00
2.450000000000000000e+02,9.021468752389658619e+00
2.460000000000000000e+02,9.033531612821379397e+00
2.470000000000000000e+02,9.045521711793698572e+00
2.480000000000000000e+02,9.057440440211262711e+00
2.490000000000000000e+02,9.069287749286264244e+00
2.500000000000000000e+02,9.081064866398268265e+00
2.510000000000000000e+02,9.092772013288646704e+00
2.520000000000000000e+02,9.104409972487903957e+00
2.530000000000000000e+02,9.115979375884689873e+00
2.540000000000000000e+02,9.127481128225566565e+00
2.550000000000000000e+02,9.138915422646462616e+00
2.560000000000000000e+02,9.150283287511102870e+00
2.570000000000000000e+02,9.161584902526357155e+00
2.580000000000000000e+02,9.172821278724192950e+00
2.590000000000000000e+02,9.183992721709925533e+00
2.600000000000000000e+02,9.195099947882939162e+00
2.610000000000000000e+02,9.206143527052477182e+00
2.620000000000000000e+02,9.217124159825742069e+00
2.630000000000000000e+02,9.228041988785157912e+00
2.640000000000000000e+02,9.238897976517122856e+00
2.650000000000000000e+02,9.249692527831889777e+00
2.660000000000000000e+02,9.260426042330426100e+00
2.670000000000000000e+02,9.271099050683142551e+00
2.680000000000000000e+02,9.281712077280477757e+00
2.690000000000000000e+02,9.292265504774496421e+00
2.700000000000000000e+02,9.302759981512709331e+00
2.710000000000000000e+02,9.313195608815505011e+00
2.720000000000000000e+02,9.323573024409137489e+00
2.730000000000000000e+02,9.333892455946347866e+00
2.740000000000000000e+02,9.344154529974723289e+00
2.750000000000000000e+02,9.354359331159290747e+00
2.760000000000000000e+02,9.364507476099007022e+00
2.770000000000000000e+02,9.374599042000983928e+00
2.780000000000000000e+02,9.384634502900706110e+00
2.790000000000000000e+02,9.394614194913483374e+00
2.800000000000000000e+02,9.404538317723872609e+00
2.810000000000000000e+02,9.414407068112604193e+00
2.820000000000000000e+02,9.424220903597440469e+00
2.830000000000000000e+02,9.433979750575360868e+00
2.840000000000000000e+02,9.443684322393259833e+00
2.850000000000000000e+02,9.453334539417268090e+00
2.860000000000000000e+02,9.462930844375847528e+00
2.870000000000000000e+02,9.472473153390511769e+00
2.880000000000000000e+02,9.481962033080552743e+00
2.890000000000000000e+02,9.491397134780008571e+00
2.900000000000000000e+02,9.500779278581221732e+00
2.910000000000000000e+02,9.510108241506053162e+00
2.920000000000000000e+02,9.519384576237095885e+00
2.930000000000000000e+02,9.528607927507117381e+00
2.940000000000000000e+02,9.537778842403577428e+00
2.950000000000000000e+02,9.546897348923019777e+00
2.960000000000000000e+02,9.555963730086492802e+00
2.970000000000000000e+02,9.564978137680530068e+00
2.980000000000000000e+02,9.573940465791757504e+00
2.990000000000000000e+02,9.582850990575479955e+00
3.000000000000000000e+02,9.591710112234705932e+00
3.010000000000000000e+02,9.600517591870884715e+00
3.020000000000000000e+02,9.609273825067965902e+00
3.030000000000000000e+02,9.617978697226588380e+00
3.040000000000000000e+02,9.626632472393160000e+00
3.050000000000000000e+02,9.635235411589301080e+00
3.060000000000000000e+02,9.643787395251960604e+00
3.070000000000000000e+02,9.652288806122582443e+00
3.080000000000000000e+02,9.660739396000249002e+00
3.090000000000000000e+02,9.669139793749927492e+00
3.100000000000000000e+02,9.677489622821209281e+00
3.110000000000000000e+02,9.685789381585264479e+00
3.120000000000000000e+02,9.694038816492536625e+00
3.130000000000000000e+02,9.702238420730356694e+00
3.140000000000000000e+02,9.710388062312047097e+00
3.150000000000000000e+02,9.718487856903585964e+00
3.160000000000000000e+02,9.726537918286473072e+00
3.170000000000000000e+02,9.734538605440661740e+00
3.180000000000000000e+02,9.742489533906011800e+00
3.190000000000000000e+02,9.750391428786596038e+00
3.200000000000000000e+02,9.758243780071110152e+00
3.210000000000000000e+02,9.766047184538891202e+00
3.220000000000000000e+02,9.773801376270949248e+00
3.230000000000000000e+02,9.781506579320923933e+00
3.240000000000000000e+02,9.789163015227240194e+00
3.250000000000000000e+02,9.796770537144347202e+00
3.260000000000000000e+02,9.804329485150981682e+00
3.270000000000000000e+02,9.811839831354996377e+00
3.280000000000000000e+02,9.819301789754005583e+00
3.290000000000000000e+02,9.826715329502631491e+00
3.300000000000000000e+02,9.834080418846017579e+00
3.310000000000000000e+02,9.841397629437135919e+00
3.320000000000000000e+02,9.848666321596205364e+00
3.330000000000000000e+02,9.855887424924327789e+00
3.340000000000000000e+02,9.863060177833071762e+00
3.350000000000000000e+02,9.870185624455366735e+00
3.360000000000000000e+02,9.877262642050698815e+00
3.370000000000000000e+02,9.884292749174168335e+00
3.380000000000000000e+02,9.891274583134702425e+00
3.390000000000000000e+02,9.898209535872849685e+00
3.400000000000000000e+02,9.905096723496205513e+00
3.410000000000000000e+02,9.911936814879750202e+00
3.420000000000000000e+02,9.918729522240104401e+00
3.430000000000000000e+02,9.925475033584589823e+00
3.440000000000000000e+02,9.932174009474225684e+00
3.450000000000000000e+02,9.938825328264638159e+00
3.460000000000000000e+02,9.945430476880108728e+00
3.470000000000000000e+02,9.951988214868713101e+00
3.480000000000000000e+02,9.958499786021574707e+00
3.490000000000000000e+02,9.964964540412367455e+00
3.500000000000000000e+02,9.971382654546202318e+00
3.510000000000000000e+02,9.977754420527448431e+00
3.520000000000000000e+02,9.984079893036721387e+00
3.530000000000000000e+02,9.990359008129567897e+00
3.540000000000000000e+02,9.996592169676901563e+00
3.550000000000000000e+02,1.000277907651062925e+01
3.560000000000000000e+02,1.000892001214694460e+01
3.570000000000000000e+02,1.001501514094267797e+01
3.580000000000000000e+02,1.002106439226567147e+01
3.590000000000000000e+02,1.002706781119863777e+01
3.600000000000000000e+02,1.003302579042427389e+01
3.610000000000000000e+02,1.003893825510115256e+01
3.620000000000000000e+02,1.004480501367765477e+01
3.630000000000000000e+02,1.005062668562935535e+01
3.640000000000000000e+02,1.005640307627051477e+01
3.650000000000000000e+02,1.006213433762827947e+01
3.660000000000000000e+02,1.006782038902310283e+01
3.670000000000000000e+02,1.007346161053557942e+01
3.680000000000000000e+02,1.007905791859013434e+01
3.690000000000000000e+02,1.008460957426450122e+01
3.700000000000000000e+02,1.009011649152718348e+01
3.710000000000000000e+02,1.009557881340452035e+01
3.720000000000000000e+02,1.010099679601104405e+01
3.730000000000000000e+02,1.010637046412962015e+01
3.740000000000000000e+02,1.011169995591315640e+01
3.750000000000000000e+02,1.011698529355398612e+01
3.760000000000000000e+02,1.012222661239301225e+01
3.770000000000000000e+02,1.012742416033798598e+01
3.780000000000000000e+02,1.013257784123113403e+01
3.790000000000000000e+02,1.013768790001274311e+01
3.800000000000000000e+02,1.014275457964211391e+01
3.810000000000000000e+02,1.014777789377291128e+01
3.820000000000000000e+02,1.015275785502280392e+01
3.830000000000000000e+02,1.015769481533837570e+01
3.840000000000000000e+02,1.016258855760301749e+01
3.850000000000000000e+02,1.016743965721436638e+01
3.860000000000000000e+02,1.017224800763650094e+01
3.870000000000000000e+02,1.017701384084724481e+01
3.880000000000000000e+02,1.018173716116387340e+01
3.890000000000000000e+02,1.018641819756451206e+01
3.900000000000000000e+02,1.019105717723919646e+01
3.910000000000000000e+02,1.019565410039225917e+01
3.920000000000000000e+02,1.020020930382142410e+01
3.930000000000000000e+02,1.020472289737436888e+01
3.940000000000000000e+02,1.020919498959065663e+01
3.950000000000000000e+02,1.021362568771367840e+01
3.960000000000000000e+02,1.021801532193894069e+01
3.970000000000000000e+02,1.022236399638030591e+01
3.980000000000000000e+02,1.022667181390232649e+01
