# Time [s], Convective Heat Transfer Coefficient [W/m2K]
1.000000000000000000e+00,0.000000000000000000e+00
2.000000000000000000e+00,0.000000000000000000e+00
3.000000000000000000e+00,0.000000000000000000e+00
4.000000000000000000e+00,0.000000000000000000e+00
5.000000000000000000e+00,0.000000000000000000e+00
6.000000000000000000e+00,1.915079995362458862e-02
7.000000000000000000e+00,3.040000000141642594e-02
8.000000000000000000e+00,4.669921575117047530e-02
9.000000000000000000e+00,6.709287542901243295e-02
1.000000000000000000e+01,9.272258704582028721e-02
1.100000000000000000e+01,1.233172998748469779e-01
1.200000000000000000e+01,1.585533935623198443e-01
1.300000000000000000e+01,1.981679910213023643e-01
1.400000000000000000e+01,2.417064717915456407e-01
1.500000000000000000e+01,2.886595808598453328e-01
1.600000000000000000e+01,3.385257476696714174e-01
1.700000000000000000e+01,3.908501280340213602e-01
1.800000000000000000e+01,4.452020285637533492e-01
1.900000000000000000e+01,5.011995579639321186e-01
2.000000000000000000e+01,5.584792803748465095e-01
2.100000000000000000e+01,6.167496476352511969e-01
2.200000000000000000e+01,6.757363519801813379e-01
2.300000000000000000e+01,7.352235576776692261e-01
2.400000000000000000e+01,7.950087744801095369e-01
2.500000000000000000e+01,8.549271088477286007e-01
2.600000000000000000e+01,9.148383424816963760e-01
2.700000000000000000e+01,9.746223652458224640e-01
2.800000000000000000e+01,1.034180412189460885e+00
2.900000000000000000e+01,1.093423717823612806e+00
3.000000000000000000e+01,1.152284754582046045e+00
3.100000000000000000e+01,1.210702076288640239e+00
3.200000000000000000e+01,1.268626473037695490e+00
3.300000000000000000e+01,1.326020886421438005e+00
3.400000000000000000e+01,1.382851774031539138e+00
3.500000000000000000e+01,1.439094653385303735e+00
3.600000000000000000e+01,1.494727601971661768e+00
3.700000000000000000e+01,1.549736920091971726e+00
3.800000000000000000e+01,1.604110873967997009e+00
3.900000000000000000e+01,1.657841165847024456e+00
4.000000000000000000e+01,1.710923411056539667e+00
4.100000000000000000e+01,1.763354366191715705e+00
4.200000000000000000e+01,1.815134292102132507e+00
4.300000000000000000e+01,1.866264164158497385e+00
4.400000000000000000e+01,1.916747217013958782e+00
4.500000000000000000e+01,1.966589415523992024e+00
4.600000000000000000e+01,2.015794298908013094e+00
4.700000000000000000e+01,2.064369684878147648e+00
4.800000000000000000e+01,2.112321310389335238e+00
4.900000000000000000e+01,2.159657641724721966e+00
5.000000000000000000e+01,2.206386039022093737e+00
5.100000000000000000e+01,2.252515843993993627e+00
5.200000000000000000e+01,2.298055210173412632e+00
5.300000000000000000e+01,2.343014624166118942e+00
5.400000000000000000e+01,2.387401443186427219e+00
5.500000000000000000e+01,2.431226691635508086e+00
5.600000000000000000e+01,2.474498795903260273e+00
5.700000000000000000e+01,2.517228001542663574e+00
5.800000000000000000e+01,2.559423679458160183e+00
5.900000000000000000e+01,2.601095433557544467e+00
6.000000000000000000e+01,2.642252666896250268e+00
6.100000000000000000e+01,2.682903741303717560e+00
6.200000000000000000e+01,2.723058919057346206e+00
6.300000000000000000e+01,2.762726977419689423e+00
6.400000000000000000e+01,2.801917607050655512e+00
6.500000000000000000e+01,2.840639217555157359e+00
6.600000000000000000e+01,2.878900340895081289e+00
6.700000000000000000e+01,2.916709857598188460e+00
6.800000000000000000e+01,2.954076520011949203e+00
6.900000000000000000e+01,2.991009332558263178e+00
7.000000000000000000e+01,3.027514686209663797e+00
7.100000000000000000e+01,3.063601131079514595e+00
7.200000000000000000e+01,3.099277036301572696e+00
7.300000000000000000e+01,3.134549637515670728e+00
7.400000000000000000e+01,3.169427706688284552e+00
7.500000000000000000e+01,3.203917379860309111e+00
7.600000000000000000e+01,3.238025991101329382e+00
7.700000000000000000e+01,3.271759420494263271e+00
7.800000000000000000e+01,3.305126942579352356e+00
7.900000000000000000e+01,3.338134577486575161e+00
8.000000000000000000e+01,3.370788485193459749e+00
8.100000000000000000e+01,3.403095144572017450e+00
8.200000000000000000e+01,3.435060620340140591e+00
8.300000000000000000e+01,3.466691274268981271e+00
8.400000000000000000e+01,3.497993731085508262e+00
8.500000000000000000e+01,3.528973438623977277e+00
8.600000000000000000e+01,3.559636425444827168e+00
8.700000000000000000e+01,3.589987611029579195e+00
8.800000000000000000e+01,3.620033393283931922e+00
8.900000000000000000e+01,3.649779326429836601e+00
9.000000000000000000e+01,3.679230270428012872e+00
9.100000000000000000e+01,3.708390526324274461e+00
9.200000000000000000e+01,3.737266138173510832e+00
9.300000000000000000e+01,3.765860960379904920e+00
9.400000000000000000e+01,3.794180964646941767e+00
9.500000000000000000e+01,3.822230556250690636e+00
9.600000000000000000e+01,3.850014500663617056e+00
9.700000000000000000e+01,3.877537038998868812e+00
9.800000000000000000e+01,3.904802536381480227e+00
9.900000000000000000e+01,3.931815319761535310e+00
1.000000000000000000e+02,3.958579379670719156e+00
1.010000000000000000e+02,3.985099054101562732e+00
1.020000000000000000e+02,4.011377840084231927e+00
1.030000000000000000e+02,4.037420528838526756e+00
1.040000000000000000e+02,4.063231349638386725e+00
1.050000000000000000e+02,4.088813233605127273e+00
1.060000000000000000e+02,4.114169897971247103e+00
1.070000000000000000e+02,4.139304840611711889e+00
1.080000000000000000e+02,4.164221689641246726e+00
1.090000000000000000e+02,4.188923994640580517e+00
1.100000000000000000e+02,4.213415032553837314e+00
1.110000000000000000e+02,4.237698278795344109e+00
1.120000000000000000e+02,4.261776686344641796e+00
1.130000000000000000e+02,4.285653606435792184e+00
1.140000000000000000e+02,4.309331820488200293e+00
1.150000000000000000e+02,4.332815004553537186e+00
1.160000000000000000e+02,4.356106138752604551e+00
1.170000000000000000e+02,4.379207909850425295e+00
1.180000000000000000e+02,4.402122786461898585e+00
1.190000000000000000e+02,4.424853866794355106e+00
1.200000000000000000e+02,4.447403840222490246e+00
1.210000000000000000e+02,4.469775476193641239e+00
1.220000000000000000e+02,4.491971445924322737e+00
1.230000000000000000e+02,4.513994039685112369e+00
1.240000000000000000e+02,4.535845867643756968e+00
1.250000000000000000e+02,4.557529618949213379e+00
1.260000000000000000e+02,4.579047332075029786e+00
1.270000000000000000e+02,4.600401586378117358e+00
1.280000000000000000e+02,4.621594983833490211e+00
1.290000000000000000e+02,4.642629713438292782e+00
1.300000000000000000e+02,4.663507784900695619e+00
1.310000000000000000e+02,4.684231729960980140e+00
1.320000000000000000e+02,4.704803363115385828e+00
1.330000000000000000e+02,4.725224651393562958e+00
1.340000000000000000e+02,4.745498279484029247e+00
1.350000000000000000e+02,4.765626124636836103e+00
1.360000000000000000e+02,4.785609699311255127e+00
1.370000000000000000e+02,4.805451585500862599e+00
1.380000000000000000e+02,4.825153580947661780e+00
1.390000000000000000e+02,4.844717678466586186e+00
1.400000000000000000e+02,4.864145414923441990e+00
1.410000000000000000e+02,4.883438625508777164e+00
1.420000000000000000e+02,4.902599188499206839e+00
1.430000000000000000e+02,4.921628878609048741e+00
1.440000000000000000e+02,4.940529323004665407e+00
1.450000000000000000e+02,4.959302054481498523e+00
1.460000000000000000e+02,4.977949034616024448e+00
1.470000000000000000e+02,4.996471887630814734e+00
1.480000000000000000e+02,5.014871866281560564e+00
1.490000000000000000e+02,5.033150835734025108e+00
1.500000000000000000e+02,5.051310288101826806e+00
1.510000000000000000e+02,5.069351720196329403e+00
1.520000000000000000e+02,5.087276542912136712e+00
1.530000000000000000e+02,5.105086174073744765e+00
1.540000000000000000e+02,5.122782261240926616e+00
1.550000000000000000e+02,5.140366097960750835e+00
1.560000000000000000e+02,5.157838987829914679e+00
1.570000000000000000e+02,5.175202462704239004e+00
1.580000000000000000e+02,5.192457840969540328e+00
1.590000000000000000e+02,5.209606191491684690e+00
1.600000000000000000e+02,5.226648898836354640e+00
1.610000000000000000e+02,5.243587355053875854e+00
1.620000000000000000e+02,5.260422917191156067e+00
1.630000000000000000e+02,5.277156530145640900e+00
1.640000000000000000e+02,5.293789449760955890e+00
1.650000000000000000e+02,5.310322942568325821e+00
1.660000000000000000e+02,5.326758202993146618e+00
1.670000000000000000e+02,5.343096396612843080e+00
1.680000000000000000e+02,5.359338742584538906e+00
1.690000000000000000e+02,5.375485985435679126e+00
1.700000000000000000e+02,5.391539577065656452e+00
1.710000000000000000e+02,5.407500574989074771e+00
1.720000000000000000e+02,5.423369733555160721e+00
1.730000000000000000e+02,5.439148066722269803e+00
1.740000000000000000e+02,5.454837194661232402e+00
1.750000000000000000e+02,5.470437448911599887e+00
1.760000000000000000e+02,5.485949853705520241e+00
1.770000000000000000e+02,5.501375913112996230e+00
1.780000000000000000e+02,5.516716213076835906e+00
1.790000000000000000e+02,5.531971670866785651e+00
1.800000000000000000e+02,5.547143183626881857e+00
1.810000000000000000e+02,5.562231553280649443e+00
1.820000000000000000e+02,5.577238241785708261e+00
1.830000000000000000e+02,5.592163481931943458e+00
1.840000000000000000e+02,5.607008283394618431e+00
1.850000000000000000e+02,5.621773819669289018e+00
1.860000000000000000e+02,5.636460760626074595e+00
1.870000000000000000e+02,5.651069578841538821e+00
1.880000000000000000e+02,5.665601612247804120e+00
1.890000000000000000e+02,5.680057554515663298e+00
1.900000000000000000e+02,5.694437796308408295e+00
1.910000000000000000e+02,5.708743294947381308e+00
1.920000000000000000e+02,5.722975024202737515e+00
1.930000000000000000e+02,5.737133298213382915e+00
1.940000000000000000e+02,5.751219344873798711e+00
1.950000000000000000e+02,5.765233522678199662e+00
1.960000000000000000e+02,5.779176954024580759e+00
1.970000000000000000e+02,5.793049693087905183e+00
1.980000000000000000e+02,5.806853146656020925e+00
1.990000000000000000e+02,5.820587554438541034e+00
2.000000000000000000e+02,5.834253804795896947e+00
2.010000000000000000e+02,5.847852426953694227e+00
2.020000000000000000e+02,5.861383905993229781e+00
2.030000000000000000e+02,5.874849328293425543e+00
2.040000000000000000e+02,5.888248916072862826e+00
2.050000000000000000e+02,5.901583189721231193e+00
2.060000000000000000e+02,5.914853128392748793e+00
2.070000000000000000e+02,5.928059227109328866e+00
2.080000000000000000e+02,5.941201938650443992e+00
2.090000000000000000e+02,5.954281971653289318e+00
2.100000000000000000e+02,5.967299496066260645e+00
2.110000000000000000e+02,5.980255529579389773e+00
2.120000000000000000e+02,5.993150387599182949e+00
2.130000000000000000e+02,6.005985093745899839e+00
2.140000000000000000e+02,6.018759490600332107e+00
2.150000000000000000e+02,6.031474710194748567e+00
2.160000000000000000e+02,6.044130935975675634e+00
2.170000000000000000e+02,6.056728539463870575e+00
2.180000000000000000e+02,6.069268394143932710e+00
2.190000000000000000e+02,6.081750599239282629e+00
2.200000000000000000e+02,6.094175756319668125e+00
2.210000000000000000e+02,6.106544707978276421e+00
2.220000000000000000e+02,6.118857313651683505e+00
2.230000000000000000e+02,6.131114618028640884e+00
2.240000000000000000e+02,6.143316718312192393e+00
2.250000000000000000e+02,6.155463956982576867e+00
2.260000000000000000e+02,6.167557101616976567e+00
2.270000000000000000e+02,6.179596447650730795e+00
2.280000000000000000e+02,6.191582316124707219e+00
2.290000000000000000e+02,6.203515448631701013e+00
2.300000000000000000e+02,6.215396150832719790e+00
2.310000000000000000e+02,6.227224451709449049e+00
2.320000000000000000e+02,6.239001131273829159e+00
2.330000000000000000e+02,6.250726418171645093e+00
2.340000000000000000e+02,6.262400567128486806e+00
2.350000000000000000e+02,6.274024126110099076e+00
2.360000000000000000e+02,6.285597308720554111e+00
2.370000000000000000e+02,6.297120826920266978e+00
2.380000000000000000e+02,6.308594676021128222e+00
2.390000000000000000e+02,6.320019349262983255e+00
2.400000000000000000e+02,6.331395303220283211e+00
2.410000000000000000e+02,6.342722522014793363e+00
2.420000000000000000e+02,6.354001685493011031e+00
2.430000000000000000e+02,6.365233001251449529e+00
2.440000000000000000e+02,6.376416702398710612e+00
2.450000000000000000e+02,6.387553219254252568e+00
2.460000000000000000e+02,6.398642747065836467e+00
2.470000000000000000e+02,6.409685677467789944e+00
2.480000000000000000e+02,6.420682140793916304e+00
2.490000000000000000e+02,6.431632576513303334e+00
2.500000000000000000e+02,6.442537389560127892e+00
2.510000000000000000e+02,6.453396697960953610e+00
2.520000000000000000e+02,6.464210617790135061e+00
2.530000000000000000e+02,6.474979821618328302e+00
2.540000000000000000e+02,6.485704137869706010e+00
2.550000000000000000e+02,6.496384228973646202e+00
2.560000000000000000e+02,6.507019918905447398e+00
2.570000000000000000e+02,6.517611860262626067e+00
2.580000000000000000e+02,6.528160147455250417e+00
2.590000000000000000e+02,6.538664599503592356e+00
2.600000000000000000e+02,6.549126129050569567e+00
2.610000000000000000e+02,6.559544548510255702e+00
2.620000000000000000e+02,6.569920214687803295e+00
2.630000000000000000e+02,6.580253749860535351e+00
2.640000000000000000e+02,6.590544690125899940e+00
2.650000000000000000e+02,6.600793382971081869e+00
2.660000000000000000e+02,6.611000171186779184e+00
2.670000000000000000e+02,6.621165125936098406e+00
2.680000000000000000e+02,6.631288583319645547e+00
2.690000000000000000e+02,6.641370609558562066e+00
2.700000000000000000e+02,6.651411534270179615e+00
2.710000000000000000e+02,6.661411418907824178e+00
2.720000000000000000e+02,6.671370060775061894e+00
2.730000000000000000e+02,6.681288308107711238e+00
2.740000000000000000e+02,6.691166214321720318e+00
2.750000000000000000e+02,6.701003310420515113e+00
2.760000000000000000e+02,6.710800432138085192e+00
2.770000000000000000e+02,6.720557368357688688e+00
2.780000000000000000e+02,6.730274426852393965e+00
2.790000000000000000e+02,6.739951653746611093e+00
2.800000000000000000e+02,6.749589351170091511e+00
2.810000000000000000e+02,6.759187561169830438e+00
2.820000000000000000e+02,6.768746324894689970e+00
2.830000000000000000e+02,6.778265937385539175e+00
2.840000000000000000e+02,6.787746181806476820e+00
2.850000000000000000e+02,6.797187856768077907e+00
2.860000000000000000e+02,6.806590235603731998e+00
2.870000000000000000e+02,6.815953607103391043e+00
2.880000000000000000e+02,6.825278759012900487e+00
2.890000000000000000e+02,6.834564715837130322e+00
2.900000000000000000e+02,6.843812761533496491e+00
2.910000000000000000e+02,6.853021922482144923e+00
2.920000000000000000e+02,6.862192975165611664e+00
2.930000000000000000e+02,6.871325695615297491e+00
2.940000000000000000e+02,6.880420109050069399e+00
2.950000000000000000e+02,6.889476733202372749e+00
2.960000000000000000e+02,6.898495341974472339e+00
2.970000000000000000e+02,6.907475956499263603e+00
2.980000000000000000e+02,6.916418841920438432e+00
2.990000000000000000e+02,6.925323772015189228e+00
3.000000000000000000e+02,6.934191009303960485e+00
3.010000000000000000e+02,6.943020570306678962e+00
3.020000000000000000e+02,6.951812470885899486e+00
3.030000000000000000e+02,6.960566726248567981e+00
3.040000000000000000e+02,6.969283591956709323e+00
3.050000000000000000e+02,6.977963080113591232e+00
3.060000000000000000e+02,6.986604962385204232e+00
3.070000000000000000e+02,6.995209969078526768e+00
3.080000000000000000e+02,7.003777152347447021e+00
3.090000000000000000e+02,7.012307001431188347e+00
3.100000000000000000e+02,7.020800000290839726e+00
3.110000000000000000e+02,7.029255680046667898e+00
3.120000000000000000e+02,7.037673812137217766e+00
3.130000000000000000e+02,7.046054876990732296e+00
3.140000000000000000e+02,7.054399114706514595e+00
3.150000000000000000e+02,7.062706058559420796e+00
3.160000000000000000e+02,7.070975948033138891e+00
3.170000000000000000e+02,7.079209019821998794e+00
3.180000000000000000e+02,7.087404808747585605e+00
3.190000000000000000e+02,7.095563550877186820e+00
3.200000000000000000e+02,7.103685247566180472e+00
3.210000000000000000e+02,7.111770362481487417e+00
3.220000000000000000e+02,7.119817968969064381e+00
3.230000000000000000e+02,7.127828760986678169e+00
3.240000000000000000e+02,7.135802736005688374e+00
3.250000000000000000e+02,7.143739890937111703e+00
3.260000000000000000e+02,7.151639993256351246e+00
3.270000000000000000e+02,7.159503040260063678e+00
3.280000000000000000e+02,7.167329484407417795e+00
3.290000000000000000e+02,7.175118636718448961e+00
3.300000000000000000e+02,7.182870948006042866e+00
3.310000000000000000e+02,7.190586638177892453e+00
3.320000000000000000e+02,7.198265472808329513e+00
3.330000000000000000e+02,7.205907218846713924e+00
3.340000000000000000e+02,7.213512094509316519e+00
3.350000000000000000e+02,7.221080315539259331e+00
3.360000000000000000e+02,7.228611199136992127e+00
3.370000000000000000e+02,7.236105408901790881e+00
3.380000000000000000e+02,7.243562932991558512e+00
3.390000000000000000e+02,7.250983536371880867e+00
3.400000000000000000e+02,7.258367207465991733e+00
3.410000000000000000e+02,7.265713934127174589e+00
3.420000000000000000e+02,7.273023924936867779e+00
3.430000000000000000e+02,7.280297165279859151e+00
3.440000000000000000e+02,7.287533419570756621e+00
3.450000000000000000e+02,7.294732673394651812e+00
3.460000000000000000e+02,7.301895131313982823e+00
3.470000000000000000e+02,7.309020995603460413e+00
3.480000000000000000e+02,7.316109810182981121e+00
3.490000000000000000e+02,7.323161558361257484e+00
3.500000000000000000e+02,7.330176876451661272e+00
3.510000000000000000e+02,7.337155307978969532e+00
3.520000000000000000e+02,7.344096616269190747e+00
3.530000000000000000e+02,7.351001215601127292e+00
3.540000000000000000e+02,7.357869300209510577e+00
3.550000000000000000e+02,7.364700414706356391e+00
3.560000000000000000e+02,7.371494752633583225e+00
3.570000000000000000e+02,7.378252075321074521e+00
3.580000000000000000e+02,7.384973003672275382e+00
3.590000000000000000e+02,7.391657510602518855e+00
3.600000000000000000e+02,7.398304713037491709e+00
3.610000000000000000e+02,7.404915441375919727e+00
3.620000000000000000e+02,7.411489240716034210e+00
3.630000000000000000e+02,7.418026722293145525e+00
3.640000000000000000e+02,7.424527430510414305e+00
3.650000000000000000e+02,7.430991336193133456e+00
3.660000000000000000e+02,7.437418621238467864e+00
3.670000000000000000e+02,7.443809465536112668e+00
3.680000000000000000e+02,7.450163836095256897e+00
3.690000000000000000e+02,7.456481699401297902e+00
3.700000000000000000e+02,7.462763021412956554e+00
3.710000000000000000e+02,7.469007977397120968e+00
3.720000000000000000e+02,7.475216321715776324e+00
3.730000000000000000e+02,7.481388646170258561e+00
3.740000000000000000e+02,7.487524285104503186e+00
3.750000000000000000e+02,7.493623827218320876e+00
3.760000000000000000e+02,7.499687024125558210e+00
3.770000000000000000e+02,7.505713836069901390e+00
3.780000000000000000e+02,7.511704637695825859e+00
3.790000000000000000e+02,7.517659386237626862e+00
3.800000000000000000e+02,7.523578038438465398e+00
3.810000000000000000e+02,7.529460550546568598e+00
3.820000000000000000e+02,7.535307290634395194e+00
3.830000000000000000e+02,7.541118212043254943e+00
3.840000000000000000e+02,7.546893267640270686e+00
3.850000000000000000e+02,7.552632409814184378e+00
3.860000000000000000e+02,7.558336000285473588e+00
3.870000000000000000e+02,7.564003784031561040e+00
3.880000000000000000e+02,7.569635915379340219e+00
3.890000000000000000e+02,7.575232750963039940e+00
3.900000000000000000e+02,7.580794033470109383e+00
3.910000000000000000e+02,7.586320116526850121e+00
3.920000000000000000e+02,7.591810741631833892e+00
3.930000000000000000e+02,7.597266462263241316e+00
3.940000000000000000e+02,7.602687017879475206e+00
3.950000000000000000e+02,7.608072350905253245e+00
3.960000000000000000e+02,7.613423211138925062e+00
3.970000000000000000e+02,7.618738931732716324e+00
3.980000000000000000e+02,7.624019654368082932e+00
