# Time [s], Mass [Kg]
1.000000000000000000e+00,1.000000000000000000e+00
2.000000000000000000e+00,1.000000000000000000e+00
3.000000000000000000e+00,1.000000000000000000e+00
4.000000000000000000e+00,1.000000000000000000e+00
5.000000000000000000e+00,1.000000000000000000e+00
6.000000000000000000e+00,1.000000000000000000e+00
7.000000000000000000e+00,1.000000000000000000e+00
8.000000000000000000e+00,1.000000000000000000e+00
9.000000000000000000e+00,1.000000000000000000e+00
1.000000000000000000e+01,1.000000000000000000e+00
1.100000000000000000e+01,1.000000000000000000e+00
1.200000000000000000e+01,1.000000000000000000e+00
1.300000000000000000e+01,1.000000000000000000e+00
1.400000000000000000e+01,1.000000000000000000e+00
1.500000000000000000e+01,1.000000000000000000e+00
1.600000000000000000e+01,1.000000000000000000e+00
1.700000000000000000e+01,1.000000000000000000e+00
1.800000000000000000e+01,9.999999400000000316e-01
1.900000000000000000e+01,9.999999400000000316e-01
2.000000000000000000e+01,9.999998799999999521e-01
2.100000000000000000e+01,9.999998199999999837e-01
2.200000000000000000e+01,9.999997600000000153e-01
2.300000000000000000e+01,9.999996399999999674e-01
2.400000000000000000e+01,9.999993999999999827e-01
2.500000000000000000e+01,9.999991700000000483e-01
2.600000000000000000e+01,9.999987500000000473e-01
2.700000000000000000e+01,9.999982099999999985e-01
2.800000000000000000e+01,9.999974400000000152e-01
2.900000000000000000e+01,9.999964199999999970e-01
3.000000000000000000e+01,9.999950499999999964e-01
3.100000000000000000e+01,9.999932099999999657e-01
3.200000000000000000e+01,9.999908800000000264e-01
3.300000000000000000e+01,9.999878399999999612e-01
3.400000000000000000e+01,9.999839700000000553e-01
3.500000000000000000e+01,9.999791399999999886e-01
3.600000000000000000e+01,9.999731200000000486e-01
3.700000000000000000e+01,9.999657299999999971e-01
3.800000000000000000e+01,9.999566100000000235e-01
3.900000000000000000e+01,9.999455800000000005e-01
4.000000000000000000e+01,9.999323500000000253e-01
4.100000000000000000e+01,9.999164299999999672e-01
4.200000000000000000e+01,9.998975399999999736e-01
4.300000000000000000e+01,9.998752499999999932e-01
4.400000000000000000e+01,9.998490799999999457e-01
4.500000000000000000e+01,9.998185000000000544e-01
4.600000000000000000e+01,9.997829799999999878e-01
4.700000000000000000e+01,9.997419699999999798e-01
4.800000000000000000e+01,9.996948799999999524e-01
4.900000000000000000e+01,9.996410599999999702e-01
5.000000000000000000e+01,9.995797899999999681e-01
5.100000000000000000e+01,9.995103499999999919e-01
5.200000000000000000e+01,9.994320300000000268e-01
5.300000000000000000e+01,9.993441699999999761e-01
5.400000000000000000e+01,9.992458800000000307e-01
5.500000000000000000e+01,9.991365100000000332e-01
5.600000000000000000e+01,9.990152100000000424e-01
5.700000000000000000e+01,9.988812799999999825e-01
5.800000000000000000e+01,9.987340000000000106e-01
5.900000000000000000e+01,9.985726499999999506e-01
6.000000000000000000e+01,9.983965200000000095e-01
6.100000000000000000e+01,9.982050700000000276e-01
6.200000000000000000e+01,9.979976400000000192e-01
6.300000000000000000e+01,9.977737100000000359e-01
6.400000000000000000e+01,9.975328999999999446e-01
6.500000000000000000e+01,9.972747600000000379e-01
6.600000000000000000e+01,9.969990300000000083e-01
6.700000000000000000e+01,9.967054699999999823e-01
6.800000000000000000e+01,9.963939800000000124e-01
6.900000000000000000e+01,9.960644800000000298e-01
7.000000000000000000e+01,9.957170499999999924e-01
7.100000000000000000e+01,9.953517899999999585e-01
7.200000000000000000e+01,9.949688899999999947e-01
7.300000000000000000e+01,9.945687699999999909e-01
7.400000000000000000e+01,9.941517100000000218e-01
7.500000000000000000e+01,9.937182100000000462e-01
7.600000000000000000e+01,9.932687900000000125e-01
7.700000000000000000e+01,9.928041100000000174e-01
7.800000000000000000e+01,9.923248900000000150e-01
7.900000000000000000e+01,9.918317199999999723e-01
8.000000000000000000e+01,9.913254999999999706e-01
8.100000000000000000e+01,9.908069999999999933e-01
8.200000000000000000e+01,9.902771700000000399e-01
8.300000000000000000e+01,9.897367999999999721e-01
8.400000000000000000e+01,9.891868799999999906e-01
8.500000000000000000e+01,9.886283300000000551e-01
8.600000000000000000e+01,9.880620799999999537e-01
8.700000000000000000e+01,9.874891000000000085e-01
8.800000000000000000e+01,9.869102800000000286e-01
8.900000000000000000e+01,9.863265799999999528e-01
9.000000000000000000e+01,9.857388099999999653e-01
9.100000000000000000e+01,9.851478299999999466e-01
9.200000000000000000e+01,9.845545300000000388e-01
9.300000000000000000e+01,9.839595599999999553e-01
9.400000000000000000e+01,9.833636900000000125e-01
9.500000000000000000e+01,9.827673999999999577e-01
9.600000000000000000e+01,9.821713600000000488e-01
9.700000000000000000e+01,9.815759099999999959e-01
9.800000000000000000e+01,9.809814700000000220e-01
9.900000000000000000e+01,9.803881599999999530e-01
1.000000000000000000e+02,9.797962300000000457e-01
1.010000000000000000e+02,9.792056700000000280e-01
1.020000000000000000e+02,9.786163599999999629e-01
1.030000000000000000e+02,9.780282399999999932e-01
1.040000000000000000e+02,9.774410700000000229e-01
1.050000000000000000e+02,9.768544999999999590e-01
1.060000000000000000e+02,9.762681100000000223e-01
1.070000000000000000e+02,9.756816600000000061e-01
1.080000000000000000e+02,9.750946200000000230e-01
1.090000000000000000e+02,9.745065600000000217e-01
1.100000000000000000e+02,9.739171899999999882e-01
1.110000000000000000e+02,9.733260900000000326e-01
1.120000000000000000e+02,9.727330800000000277e-01
1.130000000000000000e+02,9.721378099999999911e-01
1.140000000000000000e+02,9.715402699999999836e-01
1.150000000000000000e+02,9.709404099999999760e-01
1.160000000000000000e+02,9.703381699999999999e-01
1.170000000000000000e+02,9.697336600000000528e-01
1.180000000000000000e+02,9.691270600000000401e-01
1.190000000000000000e+02,9.685186099999999465e-01
1.200000000000000000e+02,9.679084999999999495e-01
1.210000000000000000e+02,9.672969599999999835e-01
1.220000000000000000e+02,9.666841600000000145e-01
1.230000000000000000e+02,9.660704700000000145e-01
1.240000000000000000e+02,9.654559499999999517e-01
1.250000000000000000e+02,9.648408299999999826e-01
1.260000000000000000e+02,9.642251099999999964e-01
1.270000000000000000e+02,9.636089199999999799e-01
1.280000000000000000e+02,9.629921900000000257e-01
1.290000000000000000e+02,9.623748100000000250e-01
1.300000000000000000e+02,9.617567099999999591e-01
1.310000000000000000e+02,9.611377700000000024e-01
1.320000000000000000e+02,9.605176399999999504e-01
1.330000000000000000e+02,9.598962100000000275e-01
1.340000000000000000e+02,9.592732200000000375e-01
1.350000000000000000e+02,9.586483799999999666e-01
1.360000000000000000e+02,9.580214599999999914e-01
1.370000000000000000e+02,9.573922799999999844e-01
1.380000000000000000e+02,9.567605900000000219e-01
1.390000000000000000e+02,9.561262099999999764e-01
1.400000000000000000e+02,9.554890999999999801e-01
1.410000000000000000e+02,9.548491199999999957e-01
1.420000000000000000e+02,9.542062900000000125e-01
1.430000000000000000e+02,9.535605299999999618e-01
1.440000000000000000e+02,9.529120300000000210e-01
1.450000000000000000e+02,9.522607299999999997e-01
1.460000000000000000e+02,9.516068100000000252e-01
1.470000000000000000e+02,9.509503200000000156e-01
1.480000000000000000e+02,9.502913400000000399e-01
1.490000000000000000e+02,9.496300199999999636e-01
1.500000000000000000e+02,9.489664399999999667e-01
1.510000000000000000e+02,9.483006000000000491e-01
1.520000000000000000e+02,9.476326099999999863e-01
1.530000000000000000e+02,9.469624199999999714e-01
1.540000000000000000e+02,9.462899599999999856e-01
1.550000000000000000e+02,9.456152899999999972e-01
1.560000000000000000e+02,9.449381799999999609e-01
1.570000000000000000e+02,9.442585700000000193e-01
1.580000000000000000e+02,9.435762800000000450e-01
1.590000000000000000e+02,9.428911800000000509e-01
1.600000000000000000e+02,9.422030999999999601e-01
1.610000000000000000e+02,9.415118700000000285e-01
1.620000000000000000e+02,9.408173600000000469e-01
1.630000000000000000e+02,9.401193300000000308e-01
1.640000000000000000e+02,9.394177799999999801e-01
1.650000000000000000e+02,9.387125400000000397e-01
1.660000000000000000e+02,9.380035399999999690e-01
1.670000000000000000e+02,9.372907299999999609e-01
1.680000000000000000e+02,9.365740399999999966e-01
1.690000000000000000e+02,9.358534200000000469e-01
1.700000000000000000e+02,9.351289900000000488e-01
1.710000000000000000e+02,9.344006200000000151e-01
1.720000000000000000e+02,9.336683799999999644e-01
1.730000000000000000e+02,9.329323200000000371e-01
1.740000000000000000e+02,9.321924400000000110e-01
1.750000000000000000e+02,9.314487599999999867e-01
1.760000000000000000e+02,9.307011400000000378e-01
1.770000000000000000e+02,9.299497599999999586e-01
1.780000000000000000e+02,9.291943900000000367e-01
1.790000000000000000e+02,9.284350300000000500e-01
1.800000000000000000e+02,9.276716099999999798e-01
1.810000000000000000e+02,9.269039599999999712e-01
1.820000000000000000e+02,9.261320800000000242e-01
1.830000000000000000e+02,9.253557300000000430e-01
1.840000000000000000e+02,9.245748499999999481e-01
1.850000000000000000e+02,9.237892599999999454e-01
1.860000000000000000e+02,9.229988500000000373e-01
1.870000000000000000e+02,9.222034799999999644e-01
1.880000000000000000e+02,9.214029900000000328e-01
1.890000000000000000e+02,9.205973100000000020e-01
1.900000000000000000e+02,9.197863299999999853e-01
1.910000000000000000e+02,9.189699900000000143e-01
1.920000000000000000e+02,9.181482199999999594e-01
1.930000000000000000e+02,9.173208499999999654e-01
1.940000000000000000e+02,9.164878699999999823e-01
1.950000000000000000e+02,9.156492899999999491e-01
1.960000000000000000e+02,9.148049999999999793e-01
1.970000000000000000e+02,9.139549099999999537e-01
1.980000000000000000e+02,9.130990500000000232e-01
1.990000000000000000e+02,9.122372899999999785e-01
2.000000000000000000e+02,9.113695000000000546e-01
2.010000000000000000e+02,9.104957000000000189e-01
2.020000000000000000e+02,9.096157599999999954e-01
2.030000000000000000e+02,9.087294900000000286e-01
2.040000000000000000e+02,9.078369099999999969e-01
2.050000000000000000e+02,9.069377800000000267e-01
2.060000000000000000e+02,9.060319700000000198e-01
2.070000000000000000e+02,9.051194200000000079e-01
2.080000000000000000e+02,9.041999600000000248e-01
2.090000000000000000e+02,9.032734599999999725e-01
2.100000000000000000e+02,9.023398200000000147e-01
2.110000000000000000e+02,9.013988400000000345e-01
2.120000000000000000e+02,9.004505299999999712e-01
2.130000000000000000e+02,8.994947699999999990e-01
2.140000000000000000e+02,8.985313799999999906e-01
2.150000000000000000e+02,8.975602999999999776e-01
2.160000000000000000e+02,8.965815900000000394e-01
2.170000000000000000e+02,8.955950099999999692e-01
2.180000000000000000e+02,8.946005099999999599e-01
2.190000000000000000e+02,8.935980799999999613e-01
2.200000000000000000e+02,8.925877199999999734e-01
2.210000000000000000e+02,8.915691999999999506e-01
2.220000000000000000e+02,8.905426300000000017e-01
2.230000000000000000e+02,8.895078299999999993e-01
2.240000000000000000e+02,8.884648699999999621e-01
2.250000000000000000e+02,8.874134999999999662e-01
2.260000000000000000e+02,8.863538499999999987e-01
2.270000000000000000e+02,8.852858500000000408e-01
2.280000000000000000e+02,8.842093300000000156e-01
2.290000000000000000e+02,8.831244099999999708e-01
2.300000000000000000e+02,8.820310199999999989e-01
2.310000000000000000e+02,8.809291099999999597e-01
2.320000000000000000e+02,8.798186799999999641e-01
2.330000000000000000e+02,8.786997800000000414e-01
2.340000000000000000e+02,8.775724799999999881e-01
2.350000000000000000e+02,8.764367699999999761e-01
2.360000000000000000e+02,8.752927200000000241e-01
2.370000000000000000e+02,8.741403199999999707e-01
2.380000000000000000e+02,8.729798199999999619e-01
2.390000000000000000e+02,8.718112099999999476e-01
2.400000000000000000e+02,8.706345599999999463e-01
2.410000000000000000e+02,8.694500899999999532e-01
2.420000000000000000e+02,8.682578800000000374e-01
2.430000000000000000e+02,8.670579800000000059e-01
2.440000000000000000e+02,8.658506900000000339e-01
2.450000000000000000e+02,8.646361200000000080e-01
2.460000000000000000e+02,8.634144099999999655e-01
2.470000000000000000e+02,8.621857800000000127e-01
2.480000000000000000e+02,8.609504100000000548e-01
2.490000000000000000e+02,8.597084900000000474e-01
2.500000000000000000e+02,8.584602500000000358e-01
2.510000000000000000e+02,8.572059300000000048e-01
2.520000000000000000e+02,8.559457700000000502e-01
2.530000000000000000e+02,8.546799400000000269e-01
2.540000000000000000e+02,8.534087500000000492e-01
2.550000000000000000e+02,8.521324999999999594e-01
2.560000000000000000e+02,8.508514200000000249e-01
2.570000000000000000e+02,8.495658000000000376e-01
2.580000000000000000e+02,8.482759600000000511e-01
2.590000000000000000e+02,8.469822399999999973e-01
2.600000000000000000e+02,8.456848300000000540e-01
2.610000000000000000e+02,8.443840700000000421e-01
2.620000000000000000e+02,8.430803999999999521e-01
2.630000000000000000e+02,8.417739300000000036e-01
2.640000000000000000e+02,8.404651300000000047e-01
2.650000000000000000e+02,8.391542400000000512e-01
2.660000000000000000e+02,8.378415700000000355e-01
2.670000000000000000e+02,8.365274700000000507e-01
2.680000000000000000e+02,8.352122299999999999e-01
2.690000000000000000e+02,8.338961599999999974e-01
2.700000000000000000e+02,8.325795499999999461e-01
2.710000000000000000e+02,8.312627099999999603e-01
2.720000000000000000e+02,8.299460400000000515e-01
2.730000000000000000e+02,8.286297299999999533e-01
2.740000000000000000e+02,8.273140799999999517e-01
2.750000000000000000e+02,8.259994999999999976e-01
2.760000000000000000e+02,8.246861699999999962e-01
2.770000000000000000e+02,8.233743900000000115e-01
2.780000000000000000e+02,8.220645199999999653e-01
2.790000000000000000e+02,8.207567900000000138e-01
2.800000000000000000e+02,8.194514499999999702e-01
2.810000000000000000e+02,8.181487899999999591e-01
2.820000000000000000e+02,8.168490499999999654e-01
2.830000000000000000e+02,8.155525300000000533e-01
2.840000000000000000e+02,8.142594100000000168e-01
2.850000000000000000e+02,8.129699799999999810e-01
2.860000000000000000e+02,8.116844899999999807e-01
2.870000000000000000e+02,8.104031099999999821e-01
2.880000000000000000e+02,8.091260799999999698e-01
2.890000000000000000e+02,8.078536400000000395e-01
2.900000000000000000e+02,8.065860299999999539e-01
2.910000000000000000e+02,8.053233600000000436e-01
2.920000000000000000e+02,8.040658800000000106e-01
2.930000000000000000e+02,8.028137699999999821e-01
2.940000000000000000e+02,8.015672600000000037e-01
2.950000000000000000e+02,8.003264700000000120e-01
2.960000000000000000e+02,7.990916399999999920e-01
2.970000000000000000e+02,7.978628899999999913e-01
2.980000000000000000e+02,7.966404599999999947e-01
2.990000000000000000e+02,7.954244599999999998e-01
3.000000000000000000e+02,7.942150199999999938e-01
3.010000000000000000e+02,7.930123799999999612e-01
3.020000000000000000e+02,7.918166500000000108e-01
3.030000000000000000e+02,7.906280199999999869e-01
3.040000000000000000e+02,7.894465899999999481e-01
3.050000000000000000e+02,7.882725000000000426e-01
3.060000000000000000e+02,7.871059200000000144e-01
3.070000000000000000e+02,7.859469700000000225e-01
3.080000000000000000e+02,7.847958200000000328e-01
3.090000000000000000e+02,7.836526000000000325e-01
3.100000000000000000e+02,7.825174900000000378e-01
3.110000000000000000e+02,7.813905500000000171e-01
3.120000000000000000e+02,7.802719500000000474e-01
3.130000000000000000e+02,7.791618099999999547e-01
3.140000000000000000e+02,7.780603200000000275e-01
3.150000000000000000e+02,7.769675299999999618e-01
3.160000000000000000e+02,7.758836700000000253e-01
3.170000000000000000e+02,7.748088800000000331e-01
3.180000000000000000e+02,7.737432100000000146e-01
3.190000000000000000e+02,7.726868999999999543e-01
3.200000000000000000e+02,7.716399999999999926e-01
3.210000000000000000e+02,7.706026999999999738e-01
3.220000000000000000e+02,7.695752399999999938e-01
3.230000000000000000e+02,7.685576100000000022e-01
3.240000000000000000e+02,7.675501099999999521e-01
3.250000000000000000e+02,7.665528099999999734e-01
3.260000000000000000e+02,7.655659299999999501e-01
3.270000000000000000e+02,7.645896100000000306e-01
3.280000000000000000e+02,7.636239500000000513e-01
3.290000000000000000e+02,7.626692699999999547e-01
3.300000000000000000e+02,7.617256599999999711e-01
3.310000000000000000e+02,7.607933300000000454e-01
3.320000000000000000e+02,7.598724399999999823e-01
3.330000000000000000e+02,7.589632899999999571e-01
3.340000000000000000e+02,7.580659400000000492e-01
3.350000000000000000e+02,7.571806899999999896e-01
3.360000000000000000e+02,7.563077200000000166e-01
3.370000000000000000e+02,7.554473299999999725e-01
3.380000000000000000e+02,7.545996299999999657e-01
3.390000000000000000e+02,7.537649299999999997e-01
3.400000000000000000e+02,7.529435199999999773e-01
3.410000000000000000e+02,7.521355699999999755e-01
3.420000000000000000e+02,7.513413399999999687e-01
3.430000000000000000e+02,7.505611800000000500e-01
3.440000000000000000e+02,7.497952599999999634e-01
3.450000000000000000e+02,7.490439399999999637e-01
3.460000000000000000e+02,7.483074699999999746e-01
3.470000000000000000e+02,7.475862500000000077e-01
3.480000000000000000e+02,7.468804700000000185e-01
3.490000000000000000e+02,7.461904900000000396e-01
3.500000000000000000e+02,7.455165999999999737e-01
3.510000000000000000e+02,7.448592200000000441e-01
3.520000000000000000e+02,7.442185900000000132e-01
3.530000000000000000e+02,7.435951200000000538e-01
3.540000000000000000e+02,7.429891199999999474e-01
3.550000000000000000e+02,7.424009400000000092e-01
3.560000000000000000e+02,7.418309499999999890e-01
3.570000000000000000e+02,7.412794799999999906e-01
3.580000000000000000e+02,7.407468600000000070e-01
3.590000000000000000e+02,7.402334799999999992e-01
3.600000000000000000e+02,7.397396600000000211e-01
3.610000000000000000e+02,7.392657400000000045e-01
3.620000000000000000e+02,7.388119699999999845e-01
3.630000000000000000e+02,7.383787000000000544e-01
3.640000000000000000e+02,7.379661199999999477e-01
3.650000000000000000e+02,7.375745799999999797e-01
3.660000000000000000e+02,7.372041299999999575e-01
3.670000000000000000e+02,7.368550299999999664e-01
3.680000000000000000e+02,7.365273199999999854e-01
3.690000000000000000e+02,7.362210200000000038e-01
3.700000000000000000e+02,7.359361599999999504e-01
3.710000000000000000e+02,7.356726500000000391e-01
3.720000000000000000e+02,7.354301800000000444e-01
3.730000000000000000e+02,7.352085099999999818e-01
3.740000000000000000e+02,7.350072300000000114e-01
3.750000000000000000e+02,7.348258500000000026e-01
3.760000000000000000e+02,7.346637200000000201e-01
3.770000000000000000e+02,7.345200800000000196e-01
3.780000000000000000e+02,7.343940100000000415e-01
3.790000000000000000e+02,7.342845799999999645e-01
3.800000000000000000e+02,7.341906400000000055e-01
3.810000000000000000e+02,7.341110699999999767e-01
3.820000000000000000e+02,7.340444900000000494e-01
3.830000000000000000e+02,7.339897199999999566e-01
3.840000000000000000e+02,7.339452499999999935e-01
3.850000000000000000e+02,7.339098499999999747e-01
3.860000000000000000e+02,7.338821300000000214e-01
3.870000000000000000e+02,7.338609099999999774e-01
3.880000000000000000e+02,7.338449999999999696e-01
3.890000000000000000e+02,7.338333099999999609e-01
3.900000000000000000e+02,7.338249700000000209e-01
3.910000000000000000e+02,7.338191299999999861e-01
3.920000000000000000e+02,7.338151899999999506e-01
3.930000000000000000e+02,7.338126299999999658e-01
3.940000000000000000e+02,7.338110199999999805e-01
3.950000000000000000e+02,7.338100100000000126e-01
3.960000000000000000e+02,7.338094099999999953e-01
3.970000000000000000e+02,7.338090499999999627e-01
3.980000000000000000e+02,7.338088799999999967e-01
3.990000000000000000e+02,7.338087599999999489e-01
