# Time [s], Convective Heat Transfer Coefficient [W/m2K]
1.000000000000000000e+00,0.000000000000000000e+00
2.000000000000000000e+00,0.000000000000000000e+00
3.000000000000000000e+00,0.000000000000000000e+00
4.000000000000000000e+00,0.000000000000000000e+00
5.000000000000000000e+00,2.762023300960968902e-02
6.000000000000000000e+00,4.559999999962457279e-02
7.000000000000000000e+00,7.260821395136821121e-02
8.000000000000000000e+00,1.099024872465186042e-01
9.000000000000000000e+00,1.572860387067359644e-01
1.000000000000000000e+01,2.151521366906732347e-01
1.100000000000000000e+01,2.832045707711574600e-01
1.200000000000000000e+01,3.607529537823395693e-01
1.300000000000000000e+01,4.467733844105791219e-01
1.400000000000000000e+01,5.402349729299640302e-01
1.500000000000000000e+01,6.399929982567309494e-01
1.600000000000000000e+01,7.449687802973714579e-01
1.700000000000000000e+01,8.541720934018312006e-01
1.800000000000000000e+01,9.667106606167616967e-01
1.900000000000000000e+01,1.081799933862611862e+00
2.000000000000000000e+01,1.198761268452717355e+00
2.100000000000000000e+01,1.317004767497939710e+00
2.200000000000000000e+01,1.436039281219470221e+00
2.300000000000000000e+01,1.555439554087972187e+00
2.400000000000000000e+01,1.674857153414663236e+00
2.500000000000000000e+01,1.793989994673730104e+00
2.600000000000000000e+01,1.912591628495291074e+00
2.700000000000000000e+01,2.030456240738136131e+00
2.800000000000000000e+01,2.147414819892247362e+00
2.900000000000000000e+01,2.263329550130480428e+00
3.000000000000000000e+01,2.378079233976865048e+00
3.100000000000000000e+01,2.491574551352344180e+00
3.200000000000000000e+01,2.603746342541260805e+00
3.300000000000000000e+01,2.714531180945674915e+00
3.400000000000000000e+01,2.823882477005961622e+00
3.500000000000000000e+01,2.931769231861200975e+00
3.600000000000000000e+01,3.038166153975324857e+00
3.700000000000000000e+01,3.143056745845748789e+00
3.800000000000000000e+01,3.246434858133321999e+00
3.900000000000000000e+01,3.348292047997351695e+00
4.000000000000000000e+01,3.448632363888335828e+00
4.100000000000000000e+01,3.547466375131667071e+00
4.200000000000000000e+01,3.644800885170071059e+00
4.300000000000000000e+01,3.740645947489445788e+00
4.400000000000000000e+01,3.835023542561502907e+00
4.500000000000000000e+01,3.927950673994792474e+00
4.600000000000000000e+01,4.019443574745488412e+00
4.700000000000000000e+01,4.109525648802952347e+00
4.800000000000000000e+01,4.198218299807628284e+00
4.900000000000000000e+01,4.285543916353141469e+00
5.000000000000000000e+01,4.371527817648602543e+00
5.100000000000000000e+01,4.456189282024423548e+00
5.200000000000000000e+01,4.539556756104066615e+00
5.300000000000000000e+01,4.621651816647293742e+00
5.400000000000000000e+01,4.702500024503621923e+00
5.500000000000000000e+01,4.782122859635707712e+00
5.600000000000000000e+01,4.860543552178944182e+00
5.700000000000000000e+01,4.937786367895923512e+00
5.800000000000000000e+01,5.013873238579952485e+00
5.900000000000000000e+01,5.088826191798175635e+00
6.000000000000000000e+01,5.162667003823193212e+00
6.100000000000000000e+01,5.235418754558645027e+00
6.200000000000000000e+01,5.307102276778960182e+00
6.300000000000000000e+01,5.377738228549165278e+00
6.400000000000000000e+01,5.447345383524696771e+00
6.500000000000000000e+01,5.515946375118102374e+00
6.600000000000000000e+01,5.583556581845363631e+00
6.700000000000000000e+01,5.650196328353748854e+00
6.800000000000000000e+01,5.715886327340064632e+00
6.900000000000000000e+01,5.780643283841961022e+00
7.000000000000000000e+01,5.844482279772113209e+00
7.100000000000000000e+01,5.907423148204665075e+00
7.200000000000000000e+01,5.969480256986980926e+00
7.300000000000000000e+01,6.030672560516632252e+00
7.400000000000000000e+01,6.091013780077137341e+00
7.500000000000000000e+01,6.150519508256538259e+00
7.600000000000000000e+01,6.209204580946019902e+00
7.700000000000000000e+01,6.267085094935109346e+00
7.800000000000000000e+01,6.324174384482858180e+00
7.900000000000000000e+01,6.380485463860670947e+00
8.000000000000000000e+01,6.436031153241987823e+00
8.100000000000000000e+01,6.490826443541933166e+00
8.200000000000000000e+01,6.544883769666253848e+00
8.300000000000000000e+01,6.598214498437241282e+00
8.400000000000000000e+01,6.650833078978582336e+00
8.500000000000000000e+01,6.702750021470105679e+00
8.600000000000000000e+01,6.753977578645227631e+00
8.700000000000000000e+01,6.804526828341327160e+00
8.800000000000000000e+01,6.854409746942293324e+00
8.900000000000000000e+01,6.903636929920793364e+00
9.000000000000000000e+01,6.952219379865696602e+00
9.100000000000000000e+01,7.000168474804463692e+00
9.200000000000000000e+01,7.047494054726800350e+00
9.300000000000000000e+01,7.094207079216979572e+00
9.400000000000000000e+01,7.140317716041177043e+00
9.500000000000000000e+01,7.185836070202713088e+00
9.600000000000000000e+01,7.230771738865015230e+00
9.700000000000000000e+01,7.275134726155613407e+00
9.800000000000000000e+01,7.318934544041181489e+00
9.900000000000000000e+01,7.362181105055618957e+00
1.000000000000000000e+02,7.404883845320241242e+00
1.010000000000000000e+02,7.447052596416590120e+00
1.020000000000000000e+02,7.488696520392873701e+00
1.030000000000000000e+02,7.529824353905897993e+00
1.040000000000000000e+02,7.570444431958862630e+00
1.050000000000000000e+02,7.610566124658514120e+00
1.060000000000000000e+02,7.650198984515075296e+00
1.070000000000000000e+02,7.689351353100708053e+00
1.080000000000000000e+02,7.728030815646403262e+00
1.090000000000000000e+02,7.766247344937633912e+00
1.100000000000000000e+02,7.804008766346263393e+00
1.110000000000000000e+02,7.841323147249307013e+00
1.120000000000000000e+02,7.878197278423316519e+00
1.130000000000000000e+02,7.914639724492732675e+00
1.140000000000000000e+02,7.950658893030045249e+00
1.150000000000000000e+02,7.986262493296455212e+00
1.160000000000000000e+02,8.021456113725268011e+00
1.170000000000000000e+02,8.056248545790840154e+00
1.180000000000000000e+02,8.090646641630138802e+00
1.190000000000000000e+02,8.124657171211248752e+00
1.200000000000000000e+02,8.158286123892775521e+00
1.210000000000000000e+02,8.191541358549228491e+00
1.220000000000000000e+02,8.224428376829113319e+00
1.230000000000000000e+02,8.256954195644746974e+00
1.240000000000000000e+02,8.289123030391966296e+00
1.250000000000000000e+02,8.320942997602795543e+00
1.260000000000000000e+02,8.352419256880653009e+00
1.270000000000000000e+02,8.383555455616667373e+00
1.280000000000000000e+02,8.414359572155422740e+00
1.290000000000000000e+02,8.444836373678864305e+00
1.300000000000000000e+02,8.474989162685664823e+00
1.310000000000000000e+02,8.504825331803731459e+00
1.320000000000000000e+02,8.534347704772850207e+00
1.330000000000000000e+02,8.563562675670201685e+00
1.340000000000000000e+02,8.592473588535034068e+00
1.350000000000000000e+02,8.621085880406255342e+00
1.360000000000000000e+02,8.649404196925642552e+00
1.370000000000000000e+02,8.677431331116034485e+00
1.380000000000000000e+02,8.705172608742602236e+00
1.390000000000000000e+02,8.732632739063213023e+00
1.400000000000000000e+02,8.759814309882726135e+00
1.410000000000000000e+02,8.786722098989455887e+00
1.420000000000000000e+02,8.813359692883707908e+00
1.430000000000000000e+02,8.839731770631848562e+00
1.440000000000000000e+02,8.865840349371259421e+00
1.450000000000000000e+02,8.891690341080453308e+00
1.460000000000000000e+02,8.917285347824886799e+00
1.470000000000000000e+02,8.942627700165745708e+00
1.480000000000000000e+02,8.967721404732349910e+00
1.490000000000000000e+02,8.992570071696073697e+00
1.500000000000000000e+02,9.017175630848326406e+00
1.510000000000000000e+02,9.041541527935386569e+00
1.520000000000000000e+02,9.065671545117099939e+00
1.530000000000000000e+02,9.089568517767343536e+00
1.540000000000000000e+02,9.113234782801885814e+00
1.550000000000000000e+02,9.136673173621387534e+00
1.560000000000000000e+02,9.159886868433618545e+00
1.570000000000000000e+02,9.182878410483352738e+00
1.580000000000000000e+02,9.205650276993935677e+00
1.590000000000000000e+02,9.228205018737529741e+00
1.600000000000000000e+02,9.250545121946121441e+00
1.610000000000000000e+02,9.272673418794699529e+00
1.620000000000000000e+02,9.294592944243929011e+00
1.630000000000000000e+02,9.316305043723795976e+00
1.640000000000000000e+02,9.337812231967429710e+00
1.650000000000000000e+02,9.359116963784583021e+00
1.660000000000000000e+02,9.380221502885136786e+00
1.670000000000000000e+02,9.401128986218207473e+00
1.680000000000000000e+02,9.421841559092356988e+00
1.690000000000000000e+02,9.442360791303604728e+00
1.700000000000000000e+02,9.462689258671899140e+00
1.710000000000000000e+02,9.482828569279385889e+00
1.720000000000000000e+02,9.502781069512032275e+00
1.730000000000000000e+02,9.522548925350344362e+00
1.740000000000000000e+02,9.542133740853683932e+00
1.750000000000000000e+02,9.561537722358098179e+00
1.760000000000000000e+02,9.580762901489048744e+00
1.770000000000000000e+02,9.599810757991773968e+00
1.780000000000000000e+02,9.618682610513589637e+00
1.790000000000000000e+02,9.637380250133990245e+00
1.800000000000000000e+02,9.655905303739130474e+00
1.810000000000000000e+02,9.674259112382772585e+00
1.820000000000000000e+02,9.692442363102772518e+00
1.830000000000000000e+02,9.710457211715707970e+00
1.840000000000000000e+02,9.728304411047108857e+00
1.850000000000000000e+02,9.745985555145075807e+00
1.860000000000000000e+02,9.763501590651916473e+00
1.870000000000000000e+02,9.780852583831052272e+00
1.880000000000000000e+02,9.798040418691421394e+00
1.890000000000000000e+02,9.815064998450967693e+00
1.900000000000000000e+02,9.831927912745356934e+00
1.910000000000000000e+02,9.848629391731467564e+00
1.920000000000000000e+02,9.865170614509203517e+00
1.930000000000000000e+02,9.881552254730570084e+00
1.940000000000000000e+02,9.897773891607460683e+00
1.950000000000000000e+02,9.913837243487279238e+00
1.960000000000000000e+02,9.929741740641714998e+00
1.970000000000000000e+02,9.945487875515778953e+00
1.980000000000000000e+02,9.961076713938222582e+00
1.990000000000000000e+02,9.976507298803134915e+00
2.000000000000000000e+02,9.991781254001013579e+00
2.010000000000000000e+02,1.000689806913118218e+01
2.020000000000000000e+02,1.002185769576217034e+01
2.030000000000000000e+02,1.003666065658249451e+01
2.040000000000000000e+02,1.005130664654305406e+01
2.050000000000000000e+02,1.006579581568001380e+01
2.060000000000000000e+02,1.008012807122069177e+01
2.070000000000000000e+02,1.009430319580965474e+01
2.080000000000000000e+02,1.010832199475513704e+01
2.090000000000000000e+02,1.012218376834441358e+01
2.100000000000000000e+02,1.013588804143562427e+01
2.110000000000000000e+02,1.014943467381097086e+01
2.120000000000000000e+02,1.016282419555658834e+01
2.130000000000000000e+02,1.017605565036546267e+01
2.140000000000000000e+02,1.018912932076456102e+01
2.150000000000000000e+02,1.020204423775186697e+01
2.160000000000000000e+02,1.021480088893335569e+01
2.170000000000000000e+02,1.022739840241335685e+01
2.180000000000000000e+02,1.023983646123911484e+01
2.190000000000000000e+02,1.025211529642307084e+01
2.200000000000000000e+02,1.026423456918935173e+01
2.210000000000000000e+02,1.027619326672544098e+01
2.220000000000000000e+02,1.028799158989498252e+01
2.230000000000000000e+02,1.029962994602056803e+01
2.240000000000000000e+02,1.031110729501439671e+01
2.250000000000000000e+02,1.032242369208841026e+01
2.260000000000000000e+02,1.033357885043540314e+01
2.270000000000000000e+02,1.034457280114591882e+01
2.280000000000000000e+02,1.035540545306897187e+01
2.290000000000000000e+02,1.036607659399900960e+01
2.300000000000000000e+02,1.037658632666756553e+01
2.310000000000000000e+02,1.038693484846584525e+01
2.320000000000000000e+02,1.039712266704887789e+01
2.330000000000000000e+02,1.040715005692956652e+01
2.340000000000000000e+02,1.041701663025789237e+01
2.350000000000000000e+02,1.042672328113749458e+01
2.360000000000000000e+02,1.043627077651031776e+01
2.370000000000000000e+02,1.044565943563408617e+01
2.380000000000000000e+02,1.045488966966347455e+01
2.390000000000000000e+02,1.046396272924842563e+01
2.400000000000000000e+02,1.047287941671165967e+01
2.410000000000000000e+02,1.048164072938435254e+01
2.420000000000000000e+02,1.049024828367265805e+01
2.430000000000000000e+02,1.049870261104330460e+01
2.440000000000000000e+02,1.050700581787656418e+01
2.450000000000000000e+02,1.051515892657485729e+01
2.460000000000000000e+02,1.052316389282221465e+01
2.470000000000000000e+02,1.053102275443167279e+01
2.480000000000000000e+02,1.053873668263805286e+01
2.490000000000000000e+02,1.054630840948428983e+01
2.500000000000000000e+02,1.055373895904522463e+01
2.510000000000000000e+02,1.056103154315553461e+01
2.520000000000000000e+02,1.056818850729519355e+01
2.530000000000000000e+02,1.057521238382424045e+01
2.540000000000000000e+02,1.058210515955362752e+01
2.550000000000000000e+02,1.058887005464385211e+01
2.560000000000000000e+02,1.059550953415952534e+01
2.570000000000000000e+02,1.060202635485455858e+01
2.580000000000000000e+02,1.060842429206828896e+01
2.590000000000000000e+02,1.061470584859803168e+01
2.600000000000000000e+02,1.062087423457634294e+01
2.610000000000000000e+02,1.062693191276064297e+01
2.620000000000000000e+02,1.063288360600057025e+01
2.630000000000000000e+02,1.063873132084165896e+01
2.640000000000000000e+02,1.064447932215362336e+01
2.650000000000000000e+02,1.065013040614182493e+01
2.660000000000000000e+02,1.065568838307836153e+01
2.670000000000000000e+02,1.066115632172053473e+01
2.680000000000000000e+02,1.066653830275637027e+01
2.690000000000000000e+02,1.067183735855597959e+01
2.700000000000000000e+02,1.067705773797256974e+01
2.710000000000000000e+02,1.068220213110233452e+01
2.720000000000000000e+02,1.068727454694253254e+01
2.730000000000000000e+02,1.069227836211573468e+01
2.740000000000000000e+02,1.069721724497195758e+01
2.750000000000000000e+02,1.070209484804571254e+01
2.760000000000000000e+02,1.070691450219943341e+01
2.770000000000000000e+02,1.071167891237312375e+01
2.780000000000000000e+02,1.071639219931690334e+01
2.790000000000000000e+02,1.072105846787767547e+01
2.800000000000000000e+02,1.072567967055056393e+01
2.810000000000000000e+02,1.073025958208704189e+01
2.820000000000000000e+02,1.073480094761305637e+01
2.830000000000000000e+02,1.073930751716780563e+01
2.840000000000000000e+02,1.074378272332448425e+01
2.850000000000000000e+02,1.074822887208313205e+01
2.860000000000000000e+02,1.075264967883163969e+01
2.870000000000000000e+02,1.075704894757226171e+01
2.880000000000000000e+02,1.076142743719806205e+01
2.890000000000000000e+02,1.076578903490499250e+01
2.900000000000000000e+02,1.077013630322374205e+01
2.910000000000000000e+02,1.077447300635649086e+01
2.920000000000000000e+02,1.077880078047611612e+01
2.930000000000000000e+02,1.078312276659432811e+01
2.940000000000000000e+02,1.078744108970613169e+01
2.950000000000000000e+02,1.079175927519649214e+01
2.960000000000000000e+02,1.079607902937887687e+01
2.970000000000000000e+02,1.080040315698863118e+01
2.980000000000000000e+02,1.080473335077629393e+01
2.990000000000000000e+02,1.080907199938638108e+01
3.000000000000000000e+02,1.081342278520008726e+01
3.010000000000000000e+02,1.081778717799734402e+01
3.020000000000000000e+02,1.082216724239553329e+01
3.030000000000000000e+02,1.082656473657449858e+01
3.040000000000000000e+02,1.083098191175111680e+01
3.050000000000000000e+02,1.083542131068407599e+01
3.060000000000000000e+02,1.083988586600234960e+01
3.070000000000000000e+02,1.084437660903760126e+01
3.080000000000000000e+02,1.084889576077892315e+01
3.090000000000000000e+02,1.085344523621815149e+01
3.100000000000000000e+02,1.085802684409253160e+01
3.110000000000000000e+02,1.086264278324876997e+01
3.120000000000000000e+02,1.086729653294655762e+01
3.130000000000000000e+02,1.087198858864821993e+01
3.140000000000000000e+02,1.087672003691804612e+01
3.150000000000000000e+02,1.088149423345835487e+01
3.160000000000000000e+02,1.088631303952746165e+01
3.170000000000000000e+02,1.089117969024931831e+01
3.180000000000000000e+02,1.089609375975808625e+01
3.190000000000000000e+02,1.090105836865858180e+01
3.200000000000000000e+02,1.090607652631171298e+01
3.210000000000000000e+02,1.091114906619138658e+01
3.220000000000000000e+02,1.091627838866777545e+01
3.230000000000000000e+02,1.092146737393290579e+01
3.240000000000000000e+02,1.092671800678162697e+01
3.250000000000000000e+02,1.093203157652605739e+01
3.260000000000000000e+02,1.093741014799011069e+01
3.270000000000000000e+02,1.094285763281808599e+01
3.280000000000000000e+02,1.094837460400364115e+01
3.290000000000000000e+02,1.095396543419497526e+01
3.300000000000000000e+02,1.095962979713202046e+01
3.310000000000000000e+02,1.096537349813529971e+01
3.320000000000000000e+02,1.097119638229262861e+01
3.330000000000000000e+02,1.097710373194888689e+01
3.340000000000000000e+02,1.098309604766071956e+01
3.350000000000000000e+02,1.098917886418658973e+01
3.360000000000000000e+02,1.099535003796301069e+01
3.370000000000000000e+02,1.100161797239058004e+01
3.380000000000000000e+02,1.100798185009739427e+01
3.390000000000000000e+02,1.101444538712163101e+01
3.400000000000000000e+02,1.102101391479570758e+01
3.410000000000000000e+02,1.102768946004681894e+01
3.420000000000000000e+02,1.103447759059565492e+01
3.430000000000000000e+02,1.104137635007326068e+01
3.440000000000000000e+02,1.104839375808420421e+01
3.450000000000000000e+02,1.105553357162090755e+01
3.460000000000000000e+02,1.106279693723166879e+01
3.470000000000000000e+02,1.107019043132060787e+01
3.480000000000000000e+02,1.107771610229041670e+01
3.490000000000000000e+02,1.108537864463664846e+01
3.500000000000000000e+02,1.109318128940454606e+01
3.510000000000000000e+02,1.110112837812105191e+01
3.520000000000000000e+02,1.110922393104801209e+01
3.530000000000000000e+02,1.111747439493543688e+01
3.540000000000000000e+02,1.112588143641098881e+01
3.550000000000000000e+02,1.113445113572325695e+01
3.560000000000000000e+02,1.114318386433694563e+01
3.570000000000000000e+02,1.115208807056979801e+01
3.580000000000000000e+02,1.116116517854931622e+01
3.590000000000000000e+02,1.117041808690662030e+01
3.600000000000000000e+02,1.117985480841693757e+01
3.610000000000000000e+02,1.118947112838100111e+01
3.620000000000000000e+02,1.119927684170288984e+01
3.630000000000000000e+02,1.120926712083202048e+01
3.640000000000000000e+02,1.121945035782735722e+01
3.650000000000000000e+02,1.122982428080931427e+01
3.660000000000000000e+02,1.124038911475872382e+01
3.670000000000000000e+02,1.125114691106568543e+01
3.680000000000000000e+02,1.126209230026008257e+01
3.690000000000000000e+02,1.127322232825371273e+01
3.700000000000000000e+02,1.128453284876811047e+01
3.710000000000000000e+02,1.129602018769781857e+01
3.720000000000000000e+02,1.130767637890122224e+01
3.730000000000000000e+02,1.131948866196712444e+01
3.740000000000000000e+02,1.133144837842462138e+01
3.750000000000000000e+02,1.134354110653739411e+01
3.760000000000000000e+02,1.135575217223201783e+01
3.770000000000000000e+02,1.136806004289052119e+01
3.780000000000000000e+02,1.138044969157298070e+01
3.790000000000000000e+02,1.139289692745763638e+01
3.800000000000000000e+02,1.140537965709000900e+01
3.810000000000000000e+02,1.141787822310380029e+01
3.820000000000000000e+02,1.143035925177868251e+01
3.830000000000000000e+02,1.144280351731731926e+01
3.840000000000000000e+02,1.145518295060813685e+01
3.850000000000000000e+02,1.146747729010288452e+01
3.860000000000000000e+02,1.147966475767049843e+01
3.870000000000000000e+02,1.149172526270264072e+01
3.880000000000000000e+02,1.150364551123413293e+01
3.890000000000000000e+02,1.151541319414904052e+01
3.900000000000000000e+02,1.152701591691988980e+01
3.910000000000000000e+02,1.153844831923138869e+01
3.920000000000000000e+02,1.154970919487754699e+01
3.930000000000000000e+02,1.156080013659375894e+01
3.940000000000000000e+02,1.157172175016431126e+01
3.950000000000000000e+02,1.158247898670079934e+01
3.960000000000000000e+02,1.159307674811211619e+01
3.970000000000000000e+02,1.160352162761880379e+01
3.980000000000000000e+02,1.161382016018883867e+01
