# Time [s], Convective Heat Transfer Coefficient [W/m2K]
1.000000000000000000e+00,0.000000000000000000e+00
2.000000000000000000e+00,0.000000000000000000e+00
3.000000000000000000e+00,0.000000000000000000e+00
4.000000000000000000e+00,0.000000000000000000e+00
5.000000000000000000e+00,2.762023300960968902e-02
6.000000000000000000e+00,5.018929418388579089e-02
7.000000000000000000e+00,8.217302667122873550e-02
8.000000000000000000e+00,1.260284339960960620e-01
9.000000000000000000e+00,1.819414407264288436e-01
1.000000000000000000e+01,2.500884637969168489e-01
1.100000000000000000e+01,3.300946699185422495e-01
1.200000000000000000e+01,4.210998638527493898e-01
1.300000000000000000e+01,5.219037562269617236e-01
1.400000000000000000e+01,6.311987414589529388e-01
1.500000000000000000e+01,7.476756798510854063e-01
1.600000000000000000e+01,8.700508710078619368e-01
1.700000000000000000e+01,9.971724893050792904e-01
1.800000000000000000e+01,1.127998735005204978e+00
1.900000000000000000e+01,1.261622063774385571e+00
2.000000000000000000e+01,1.397247317290643664e+00
2.100000000000000000e+01,1.534200519256528228e+00
2.200000000000000000e+01,1.671907873711864223e+00
2.300000000000000000e+01,1.809879166767001779e+00
2.400000000000000000e+01,1.947706150217904497e+00
2.500000000000000000e+01,2.085048605584668646e+00
2.600000000000000000e+01,2.221622063142639103e+00
2.700000000000000000e+01,2.357196412112227080e+00
2.800000000000000000e+01,2.491576625568725500e+00
2.900000000000000000e+01,2.624608339347364705e+00
3.000000000000000000e+01,2.756167681950818071e+00
3.100000000000000000e+01,2.886151659406469339e+00
3.200000000000000000e+01,3.014480914415430757e+00
3.300000000000000000e+01,3.141091914387078798e+00
3.400000000000000000e+01,3.265938492882783706e+00
3.500000000000000000e+01,3.388982868738981580e+00
3.600000000000000000e+01,3.510200263839848400e+00
3.700000000000000000e+01,3.629571978884254424e+00
3.800000000000000000e+01,3.747088771635395332e+00
3.900000000000000000e+01,3.862737469698265702e+00
4.000000000000000000e+01,3.976522191553467422e+00
4.100000000000000000e+01,4.088447282352901446e+00
4.200000000000000000e+01,4.198517287998869030e+00
4.300000000000000000e+01,4.306739980728102601e+00
4.400000000000000000e+01,4.413130457592236766e+00
4.500000000000000000e+01,4.517706026804549246e+00
4.600000000000000000e+01,4.620478705730404201e+00
4.700000000000000000e+01,4.721472692837059171e+00
4.800000000000000000e+01,4.820710099813511285e+00
4.900000000000000000e+01,4.918215576961325830e+00
5.000000000000000000e+01,5.014017121361803220e+00
5.100000000000000000e+01,5.108142959390945315e+00
5.200000000000000000e+01,5.200622831060419671e+00
5.300000000000000000e+01,5.291490036702282573e+00
5.400000000000000000e+01,5.380779582205178713e+00
5.500000000000000000e+01,5.468522902110949602e+00
5.600000000000000000e+01,5.554757121752246007e+00
5.700000000000000000e+01,5.639513978105628489e+00
5.800000000000000000e+01,5.722825301544136600e+00
5.900000000000000000e+01,5.804727654488647914e+00
6.000000000000000000e+01,5.885253180797274553e+00
6.100000000000000000e+01,5.964432878613193267e+00
6.200000000000000000e+01,6.042297099165212515e+00
6.300000000000000000e+01,6.118877104807704193e+00
6.400000000000000000e+01,6.194201862968413685e+00
6.500000000000000000e+01,6.268298429822891649e+00
6.600000000000000000e+01,6.341195487410486109e+00
6.700000000000000000e+01,6.412922541052950010e+00
6.800000000000000000e+01,6.483504077729466353e+00
6.900000000000000000e+01,6.552967201073212067e+00
7.000000000000000000e+01,6.621338416135588822e+00
7.100000000000000000e+01,6.688644786319364322e+00
7.200000000000000000e+01,6.754907441026875681e+00
7.300000000000000000e+01,6.820153697863144515e+00
7.400000000000000000e+01,6.884405104313104928e+00
7.500000000000000000e+01,6.947684011708128438e+00
7.600000000000000000e+01,7.010013965417099868e+00
7.700000000000000000e+01,7.071413269505211652e+00
7.800000000000000000e+01,7.131903936989472115e+00
7.900000000000000000e+01,7.191503224306887709e+00
8.000000000000000000e+01,7.250232249589822153e+00
8.100000000000000000e+01,7.308108885295266255e+00
8.200000000000000000e+01,7.365150379841280959e+00
8.300000000000000000e+01,7.421375100686590010e+00
8.400000000000000000e+01,7.476798678886038552e+00
8.500000000000000000e+01,7.531439777763718979e+00
8.600000000000000000e+01,7.585313161613003174e+00
8.700000000000000000e+01,7.638436788631440599e+00
8.800000000000000000e+01,7.690824863620759011e+00
8.900000000000000000e+01,7.742494338731479075e+00
9.000000000000000000e+01,7.793458566575119484e+00
9.100000000000000000e+01,7.843730006448945247e+00
9.200000000000000000e+01,7.893324977527473862e+00
9.300000000000000000e+01,7.942254514099653662e+00
9.400000000000000000e+01,7.990533304822328375e+00
9.500000000000000000e+01,8.038171867268335546e+00
9.600000000000000000e+01,8.085183418839005043e+00
9.700000000000000000e+01,8.131578589394763412e+00
9.800000000000000000e+01,8.177369770055312515e+00
9.900000000000000000e+01,8.222566516163302808e+00
1.000000000000000000e+02,8.267181183603065975e+00
1.010000000000000000e+02,8.311223019886121222e+00
1.020000000000000000e+02,8.354704198599078424e+00
1.030000000000000000e+02,8.397633529594962454e+00
1.040000000000000000e+02,8.440022218502038598e+00
1.050000000000000000e+02,8.481878380571910014e+00
1.060000000000000000e+02,8.523211544306160903e+00
1.070000000000000000e+02,8.564032904706834870e+00
1.080000000000000000e+02,8.604349239441544839e+00
1.090000000000000000e+02,8.644168912127748072e+00
1.100000000000000000e+02,8.683501956690733437e+00
1.110000000000000000e+02,8.722354158269125080e+00
1.120000000000000000e+02,8.760733190554775618e+00
1.130000000000000000e+02,8.798647627860358256e+00
1.140000000000000000e+02,8.836103310627429153e+00
1.150000000000000000e+02,8.873108219635756910e+00
1.160000000000000000e+02,8.909669145055058692e+00
1.170000000000000000e+02,8.945792614469386450e+00
1.180000000000000000e+02,8.981485485456884632e+00
1.190000000000000000e+02,9.016754502375725622e+00
1.200000000000000000e+02,9.051606159730528844e+00
1.210000000000000000e+02,9.086045862740801837e+00
1.220000000000000000e+02,9.120079940040033861e+00
1.230000000000000000e+02,9.153713655118124848e+00
1.240000000000000000e+02,9.186952910949029771e+00
1.250000000000000000e+02,9.219803677626847715e+00
1.260000000000000000e+02,9.252270077219955979e+00
1.270000000000000000e+02,9.284357572695158822e+00
1.280000000000000000e+02,9.316071574273806277e+00
1.290000000000000000e+02,9.347416504879804577e+00
1.300000000000000000e+02,9.378397032047091741e+00
1.310000000000000000e+02,9.409016342026699675e+00
1.320000000000000000e+02,9.439279867042301930e+00
1.330000000000000000e+02,9.469192603827018218e+00
1.340000000000000000e+02,9.498758090882345684e+00
1.350000000000000000e+02,9.527980517711192476e+00
1.360000000000000000e+02,9.556864321371925541e+00
1.370000000000000000e+02,9.585413797969684069e+00
1.380000000000000000e+02,9.613632474714973952e+00
1.390000000000000000e+02,9.641524392571259483e+00
1.400000000000000000e+02,9.669092214283827147e+00
1.410000000000000000e+02,9.696340501317981975e+00
1.420000000000000000e+02,9.723271575756575302e+00
1.430000000000000000e+02,9.749888291874079016e+00
1.440000000000000000e+02,9.776193777167813792e+00
1.450000000000000000e+02,9.802188867213404322e+00
1.460000000000000000e+02,9.827876286901602754e+00
1.470000000000000000e+02,9.853259034021620622e+00
1.480000000000000000e+02,9.878337493836038874e+00
1.490000000000000000e+02,9.903112131044439437e+00
1.500000000000000000e+02,9.927585150146841286e+00
1.510000000000000000e+02,9.951757025029797532e+00
1.520000000000000000e+02,9.975628658114462866e+00
1.530000000000000000e+02,9.999200316126941601e+00
1.540000000000000000e+02,1.002247222731535636e+01
1.550000000000000000e+02,1.004544434982064338e+01
1.560000000000000000e+02,1.006811695465292367e+01
1.570000000000000000e+02,1.009048866364111952e+01
1.580000000000000000e+02,1.011255934664615275e+01
1.590000000000000000e+02,1.013432781395449567e+01
1.600000000000000000e+02,1.015579263247857966e+01
1.610000000000000000e+02,1.017695325988688282e+01
1.620000000000000000e+02,1.019780811153714772e+01
1.630000000000000000e+02,1.021835458057699419e+01
1.640000000000000000e+02,1.023859173678896184e+01
1.650000000000000000e+02,1.025851673262813435e+01
1.660000000000000000e+02,1.027812860629755143e+01
1.670000000000000000e+02,1.029742537409030056e+01
1.680000000000000000e+02,1.031640470805712262e+01
1.690000000000000000e+02,1.033506372141886054e+01
1.700000000000000000e+02,1.035340061472473039e+01
1.710000000000000000e+02,1.037141367541410908e+01
1.720000000000000000e+02,1.038909997333265522e+01
1.730000000000000000e+02,1.040645808190055632e+01
1.740000000000000000e+02,1.042348589654418944e+01
1.750000000000000000e+02,1.044018193296473207e+01
1.760000000000000000e+02,1.045654413803417704e+01
1.770000000000000000e+02,1.047257160486993932e+01
1.780000000000000000e+02,1.048826274494045840e+01
1.790000000000000000e+02,1.050361667635028162e+01
1.800000000000000000e+02,1.051863427034546739e+01
1.810000000000000000e+02,1.053331506620912883e+01
1.820000000000000000e+02,1.054766065645726414e+01
1.830000000000000000e+02,1.056167151067546683e+01
1.840000000000000000e+02,1.057535002596324425e+01
1.850000000000000000e+02,1.058869893642797066e+01
1.860000000000000000e+02,1.060172058101476544e+01
1.870000000000000000e+02,1.061441888355416907e+01
1.880000000000000000e+02,1.062679871335583925e+01
1.890000000000000000e+02,1.063886546270268596e+01
1.900000000000000000e+02,1.065062421794177183e+01
1.910000000000000000e+02,1.066208254574039316e+01
1.920000000000000000e+02,1.067324707863053668e+01
1.930000000000000000e+02,1.068412650218863469e+01
1.940000000000000000e+02,1.069472918394474092e+01
1.950000000000000000e+02,1.070506399777802820e+01
1.960000000000000000e+02,1.071514154650911621e+01
1.970000000000000000e+02,1.072497160582452658e+01
1.980000000000000000e+02,1.073456567596709554e+01
1.990000000000000000e+02,1.074393473976646085e+01
2.000000000000000000e+02,1.075309028401973954e+01
2.010000000000000000e+02,1.076204561339060817e+01
2.020000000000000000e+02,1.077081139995526904e+01
2.030000000000000000e+02,1.077940064514016072e+01
2.040000000000000000e+02,1.078782635146118984e+01
2.050000000000000000e+02,1.079610192810511293e+01
2.060000000000000000e+02,1.080423948664163269e+01
2.070000000000000000e+02,1.081225225717822447e+01
2.080000000000000000e+02,1.082015398305078513e+01
2.090000000000000000e+02,1.082795592455284606e+01
2.100000000000000000e+02,1.083567136560970745e+01
2.110000000000000000e+02,1.084331211673795714e+01
2.120000000000000000e+02,1.085089200687840005e+01
2.130000000000000000e+02,1.085842280015748074e+01
2.140000000000000000e+02,1.086591569855195338e+01
2.150000000000000000e+02,1.087338283171858322e+01
2.160000000000000000e+02,1.088083586695273830e+01
2.170000000000000000e+02,1.088828621015321119e+01
2.180000000000000000e+02,1.089574471186552884e+01
2.190000000000000000e+02,1.090322245867242579e+01
2.200000000000000000e+02,1.091072988619626116e+01
2.210000000000000000e+02,1.091827727397835446e+01
2.220000000000000000e+02,1.092587415743038370e+01
2.230000000000000000e+02,1.093353050718189401e+01
2.240000000000000000e+02,1.094125662718089842e+01
2.250000000000000000e+02,1.094906276045596272e+01
2.260000000000000000e+02,1.095695830799031434e+01
2.270000000000000000e+02,1.096495426723986810e+01
2.280000000000000000e+02,1.097305932983519483e+01
2.290000000000000000e+02,1.098128183807211400e+01
2.300000000000000000e+02,1.098963501969152645e+01
2.310000000000000000e+02,1.099812485109261750e+01
2.320000000000000000e+02,1.100676267203197689e+01
2.330000000000000000e+02,1.101555916001655255e+01
2.340000000000000000e+02,1.102452683650858134e+01
2.350000000000000000e+02,1.103367245208369063e+01
2.360000000000000000e+02,1.104301354156880777e+01
2.370000000000000000e+02,1.105255523453152477e+01
2.380000000000000000e+02,1.106231408090128454e+01
2.390000000000000000e+02,1.107229846716494315e+01
2.400000000000000000e+02,1.108252660260449574e+01
2.410000000000000000e+02,1.109301034611475067e+01
2.420000000000000000e+02,1.110376313934150261e+01
2.430000000000000000e+02,1.111480074307126031e+01
2.440000000000000000e+02,1.112613836963305580e+01
2.450000000000000000e+02,1.113779379387968227e+01
2.460000000000000000e+02,1.114978590427070060e+01
2.470000000000000000e+02,1.116213411577298942e+01
2.480000000000000000e+02,1.117486135110191192e+01
2.490000000000000000e+02,1.118797836818021807e+01
2.500000000000000000e+02,1.120151374431111080e+01
2.510000000000000000e+02,1.121548935693887294e+01
2.520000000000000000e+02,1.122993019280128379e+01
2.530000000000000000e+02,1.124485891838408058e+01
2.540000000000000000e+02,1.126029819705619239e+01
2.550000000000000000e+02,1.127627784823776125e+01
2.560000000000000000e+02,1.129281360779878618e+01
2.570000000000000000e+02,1.130992890703502951e+01
2.580000000000000000e+02,1.132764497349889865e+01
2.590000000000000000e+02,1.134597783898642653e+01
2.600000000000000000e+02,1.136493831024428403e+01
2.610000000000000000e+02,1.138452752290085357e+01
2.620000000000000000e+02,1.140474303850479743e+01
2.630000000000000000e+02,1.142555908919601748e+01
2.640000000000000000e+02,1.144694416741638854e+01
2.650000000000000000e+02,1.146884407469231348e+01
2.660000000000000000e+02,1.149118585144250382e+01
2.670000000000000000e+02,1.151387121960913440e+01
2.680000000000000000e+02,1.153678285840358164e+01
2.690000000000000000e+02,1.155979342528252651e+01
2.700000000000000000e+02,1.158275506520308795e+01
2.710000000000000000e+02,1.160552129791165932e+01
2.720000000000000000e+02,1.162795995828266271e+01
2.730000000000000000e+02,1.164997020648184289e+01
2.740000000000000000e+02,1.167147439687052746e+01
2.750000000000000000e+02,1.169244070634526089e+01
2.760000000000000000e+02,1.171286998381108191e+01
2.770000000000000000e+02,1.173278964093426602e+01
2.780000000000000000e+02,1.175223371945219952e+01
2.790000000000000000e+02,1.177124609943518863e+01
2.800000000000000000e+02,1.178986158767859926e+01
2.810000000000000000e+02,1.180811406105011940e+01
2.820000000000000000e+02,1.182602988813104972e+01
2.830000000000000000e+02,1.184363106272671473e+01
2.840000000000000000e+02,1.186093195202813355e+01
2.850000000000000000e+02,1.187795036791064796e+01
2.860000000000000000e+02,1.189469966453064131e+01
2.870000000000000000e+02,1.191119400522154059e+01
2.880000000000000000e+02,1.192744366638155640e+01
2.890000000000000000e+02,1.194345804895885621e+01
2.900000000000000000e+02,1.195924733046627964e+01
2.910000000000000000e+02,1.197481902935101772e+01
2.920000000000000000e+02,1.199018300918468505e+01
2.930000000000000000e+02,1.200534349182326821e+01
2.940000000000000000e+02,1.202030715120335280e+01
2.950000000000000000e+02,1.203508268031946571e+01
2.960000000000000000e+02,1.204967383502631861e+01
2.970000000000000000e+02,1.206408552756406927e+01
2.980000000000000000e+02,1.207832124614709279e+01
2.990000000000000000e+02,1.209239011751014736e+01
3.000000000000000000e+02,1.210629326500430025e+01
3.010000000000000000e+02,1.212003665178458256e+01
3.020000000000000000e+02,1.213362172404268335e+01
3.030000000000000000e+02,1.214705498250981641e+01
3.040000000000000000e+02,1.216033921970358556e+01
3.050000000000000000e+02,1.217347632600442253e+01
3.060000000000000000e+02,1.218647163509098164e+01
3.070000000000000000e+02,1.219932649426520754e+01
3.080000000000000000e+02,1.221204458646196933e+01
3.090000000000000000e+02,1.222462822485395328e+01
3.100000000000000000e+02,1.223708055629752067e+01
3.110000000000000000e+02,1.224940469519064301e+01
3.120000000000000000e+02,1.226160247859140817e+01
3.130000000000000000e+02,1.227367354683244471e+01
3.140000000000000000e+02,1.228562335343865008e+01
3.150000000000000000e+02,1.229745552327539393e+01
3.160000000000000000e+02,1.230916970759708207e+01
3.170000000000000000e+02,1.232076848518286205e+01
3.180000000000000000e+02,1.233225148523604098e+01
3.190000000000000000e+02,1.234362355880122841e+01
3.200000000000000000e+02,1.235488675546803350e+01
3.210000000000000000e+02,1.236604065558318410e+01
3.220000000000000000e+02,1.237708812362317801e+01
3.230000000000000000e+02,1.238803123632456504e+01
3.240000000000000000e+02,1.239886953863312691e+01
3.250000000000000000e+02,1.240960728721862694e+01
3.260000000000000000e+02,1.242024354515662665e+01
3.270000000000000000e+02,1.243078162018684196e+01
3.280000000000000000e+02,1.244122108800082138e+01
3.290000000000000000e+02,1.245156522293276247e+01
3.300000000000000000e+02,1.246181350501533025e+01
3.310000000000000000e+02,1.247196737072998474e+01
3.320000000000000000e+02,1.248203034742459394e+01
3.330000000000000000e+02,1.249200031031134550e+01
3.340000000000000000e+02,1.250188068707867828e+01
3.350000000000000000e+02,1.251167293627917587e+01
3.360000000000000000e+02,1.252137566705684968e+01
3.370000000000000000e+02,1.253099144508545848e+01
3.380000000000000000e+02,1.254052155186152362e+01
3.390000000000000000e+02,1.254996829869223696e+01
3.400000000000000000e+02,1.255933249594441925e+01
3.410000000000000000e+02,1.256861213053984017e+01
3.420000000000000000e+02,1.257780993411889270e+01
3.430000000000000000e+02,1.258692706801185146e+01
3.440000000000000000e+02,1.259596394640682782e+01
3.450000000000000000e+02,1.260492215737174071e+01
3.460000000000000000e+02,1.261380261531014213e+01
3.470000000000000000e+02,1.262260468418477366e+01
3.480000000000000000e+02,1.263133081055040563e+01
3.490000000000000000e+02,1.263998100725661722e+01
3.500000000000000000e+02,1.264855733351550882e+01
3.510000000000000000e+02,1.265705913155126439e+01
3.520000000000000000e+02,1.266548713140810811e+01
3.530000000000000000e+02,1.267384307733842519e+01
3.540000000000000000e+02,1.268212666439630709e+01
3.550000000000000000e+02,1.269033954971172484e+01
3.560000000000000000e+02,1.269848287164953859e+01
3.570000000000000000e+02,1.270655689075288208e+01
3.580000000000000000e+02,1.271456150225511372e+01
3.590000000000000000e+02,1.272249775711899566e+01
3.600000000000000000e+02,1.273036727702507065e+01
3.610000000000000000e+02,1.273817023096382783e+01
3.620000000000000000e+02,1.274590649709162449e+01
3.630000000000000000e+02,1.275357710386936461e+01
3.640000000000000000e+02,1.276118328870931151e+01
3.650000000000000000e+02,1.276872556345415255e+01
3.660000000000000000e+02,1.277620386216102943e+01
3.670000000000000000e+02,1.278361962179685563e+01
3.680000000000000000e+02,1.279097262544271274e+01
3.690000000000000000e+02,1.279826437080162371e+01
3.700000000000000000e+02,1.280549513364466208e+01
3.710000000000000000e+02,1.281266504437605747e+01
3.720000000000000000e+02,1.281977572709490154e+01
3.730000000000000000e+02,1.282682630702879401e+01
3.740000000000000000e+02,1.283381804395104986e+01
3.750000000000000000e+02,1.284075183574943324e+01
3.760000000000000000e+02,1.284762800770751312e+01
3.770000000000000000e+02,1.285444751995943058e+01
3.780000000000000000e+02,1.286120962878368701e+01
3.790000000000000000e+02,1.286791507686262293e+01
3.800000000000000000e+02,1.287456615616509836e+01
3.810000000000000000e+02,1.288116119714154806e+01
3.820000000000000000e+02,1.288770135496908864e+01
3.830000000000000000e+02,1.289418890541964657e+01
3.840000000000000000e+02,1.290062231572105844e+01
3.850000000000000000e+02,1.290700167420251532e+01
3.860000000000000000e+02,1.291332931402590489e+01
3.870000000000000000e+02,1.291960447232066223e+01
3.880000000000000000e+02,1.292582827977963156e+01
3.890000000000000000e+02,1.293200081169838889e+01
3.900000000000000000e+02,1.293812221193787870e+01
3.910000000000000000e+02,1.294419429950012024e+01
3.920000000000000000e+02,1.295021560494794421e+01
3.930000000000000000e+02,1.295618738295690875e+01
3.940000000000000000e+02,1.296211081288395128e+01
3.950000000000000000e+02,1.296798581584491927e+01
3.960000000000000000e+02,1.297381272955693987e+01
3.970000000000000000e+02,1.297959195905394836e+01
3.980000000000000000e+02,1.298532404583385080e+01
