# Time [s], Convective Heat Transfer Coefficient [W/m2K]
1.000000000000000000e+00,0.000000000000000000e+00
2.000000000000000000e+00,0.000000000000000000e+00
3.000000000000000000e+00,0.000000000000000000e+00
4.000000000000000000e+00,0.000000000000000000e+00
5.000000000000000000e+00,1.915079995362458862e-02
6.000000000000000000e+00,3.574028725257893252e-02
7.000000000000000000e+00,5.917354552135824924e-02
8.000000000000000000e+00,8.918545748856174238e-02
9.000000000000000000e+00,1.277012511867400002e-01
1.000000000000000000e+01,1.746130326036950953e-01
1.100000000000000000e+01,2.298095995008227477e-01
1.200000000000000000e+01,2.925544877770009378e-01
1.300000000000000000e+01,3.621150087043468746e-01
1.400000000000000000e+01,4.375713358830145006e-01
1.500000000000000000e+01,5.180025054563940357e-01
1.600000000000000000e+01,6.025424924247519964e-01
1.700000000000000000e+01,6.903805908413083170e-01
1.800000000000000000e+01,7.807949945930120483e-01
1.900000000000000000e+01,8.731634389751720127e-01
2.000000000000000000e+01,9.669423382696646918e-01
2.100000000000000000e+01,1.061670440717715103e+00
2.200000000000000000e+01,1.156956101004083859e+00
2.300000000000000000e+01,1.252463415747980591e+00
2.400000000000000000e+01,1.347919797568689626e+00
2.500000000000000000e+01,1.443096136103773519e+00
2.600000000000000000e+01,1.537797725859960440e+00
2.700000000000000000e+01,1.631867793980969594e+00
2.800000000000000000e+01,1.725176647138074060e+00
2.900000000000000000e+01,1.817621871223960461e+00
3.000000000000000000e+01,1.909114149440466202e+00
3.100000000000000000e+01,1.999587901824044778e+00
3.200000000000000000e+01,2.088989896906651822e+00
3.300000000000000000e+01,2.177280100851035183e+00
3.400000000000000000e+01,2.264426573868751458e+00
3.500000000000000000e+01,2.350406755493465116e+00
3.600000000000000000e+01,2.435206967176904325e+00
3.700000000000000000e+01,2.518819651160436823e+00
3.800000000000000000e+01,2.601241973453618961e+00
3.900000000000000000e+01,2.682473842653367857e+00
4.000000000000000000e+01,2.762520989398290272e+00
4.100000000000000000e+01,2.841392075927231087e+00
4.200000000000000000e+01,2.919093505615967921e+00
4.300000000000000000e+01,2.995641183687762332e+00
4.400000000000000000e+01,3.071049896740151386e+00
4.500000000000000000e+01,3.145331532933615115e+00
4.600000000000000000e+01,3.218504429826652746e+00
4.700000000000000000e+01,3.290587241319420819e+00
4.800000000000000000e+01,3.361594121930853163e+00
4.900000000000000000e+01,3.431545407244243506e+00
5.000000000000000000e+01,3.500460826132966385e+00
5.100000000000000000e+01,3.568358196847368546e+00
5.200000000000000000e+01,3.635254992248269090e+00
5.300000000000000000e+01,3.701172067527112031e+00
5.400000000000000000e+01,3.766127968481693067e+00
5.500000000000000000e+01,3.830140840784701073e+00
5.600000000000000000e+01,3.893229906052521283e+00
5.700000000000000000e+01,3.955413752508265546e+00
5.800000000000000000e+01,4.016710394618149493e+00
5.900000000000000000e+01,4.077138597486746008e+00
6.000000000000000000e+01,4.136713918817071622e+00
6.100000000000000000e+01,4.195455592493247288e+00
6.200000000000000000e+01,4.253380718270940442e+00
6.300000000000000000e+01,4.310504729923795075e+00
6.400000000000000000e+01,4.366845663204928840e+00
6.500000000000000000e+01,4.422417852357313883e+00
6.600000000000000000e+01,4.477237005067996378e+00
6.700000000000000000e+01,4.531319881991892728e+00
6.800000000000000000e+01,4.584681964092975903e+00
6.900000000000000000e+01,4.637335494132403646e+00
7.000000000000000000e+01,4.689297627616109132e+00
7.100000000000000000e+01,4.740580081875740426e+00
7.200000000000000000e+01,4.791197995210563221e+00
7.300000000000000000e+01,4.841163407803713348e+00
7.400000000000000000e+01,4.890489761651846123e+00
7.500000000000000000e+01,4.939191455520441032e+00
7.600000000000000000e+01,4.987279359401493473e+00
7.700000000000000000e+01,5.034765379854133194e+00
7.800000000000000000e+01,5.081661987402308789e+00
7.900000000000000000e+01,5.127979482230302644e+00
8.000000000000000000e+01,5.173731159840792238e+00
8.100000000000000000e+01,5.218925563720924643e+00
8.200000000000000000e+01,5.263576174257686979e+00
8.300000000000000000e+01,5.307691350240255623e+00
8.400000000000000000e+01,5.351281360919427854e+00
8.500000000000000000e+01,5.394357341159024877e+00
8.600000000000000000e+01,5.436928010354153962e+00
8.700000000000000000e+01,5.479002348247649756e+00
8.800000000000000000e+01,5.520591183222198772e+00
8.900000000000000000e+01,5.561702396808508198e+00
9.000000000000000000e+01,5.602343856473622097e+00
9.100000000000000000e+01,5.642526353939323336e+00
9.200000000000000000e+01,5.682257415786516219e+00
9.300000000000000000e+01,5.721544708026933712e+00
9.400000000000000000e+01,5.760395036080626419e+00
9.500000000000000000e+01,5.798818054494957686e+00
9.600000000000000000e+01,5.836821097290640914e+00
9.700000000000000000e+01,5.874410682300359454e+00
9.800000000000000000e+01,5.911594503592985994e+00
9.900000000000000000e+01,5.948379967730163642e+00
1.000000000000000000e+02,5.984773360656016727e+00
1.010000000000000000e+02,6.020781883659823919e+00
1.020000000000000000e+02,6.056411077403154763e+00
1.030000000000000000e+02,6.091668734374849237e+00
1.040000000000000000e+02,6.126560528484371382e+00
1.050000000000000000e+02,6.161092755052177239e+00
1.060000000000000000e+02,6.195270313534001261e+00
1.070000000000000000e+02,6.229100222216490401e+00
1.080000000000000000e+02,6.262588460096500498e+00
1.090000000000000000e+02,6.295739667547009866e+00
1.100000000000000000e+02,6.328559875400322277e+00
1.110000000000000000e+02,6.361053338116758660e+00
1.120000000000000000e+02,6.393226890616524827e+00
1.130000000000000000e+02,6.425084942923906084e+00
1.140000000000000000e+02,6.456632294952985518e+00
1.150000000000000000e+02,6.487874340111675409e+00
1.160000000000000000e+02,6.518814778475806371e+00
1.170000000000000000e+02,6.549459080225489060e+00
1.180000000000000000e+02,6.579812511255634710e+00
1.190000000000000000e+02,6.609878535500294916e+00
1.200000000000000000e+02,6.639661817043428726e+00
1.210000000000000000e+02,6.669166061508355448e+00
1.220000000000000000e+02,6.698396928101771231e+00
1.230000000000000000e+02,6.727357290002257351e+00
1.240000000000000000e+02,6.756052226187422960e+00
1.250000000000000000e+02,6.784484351320824835e+00
1.260000000000000000e+02,6.812658205960635094e+00
1.270000000000000000e+02,6.840577676313506217e+00
1.280000000000000000e+02,6.868247013798422174e+00
1.290000000000000000e+02,6.895669343878477520e+00
1.300000000000000000e+02,6.922847687784042137e+00
1.310000000000000000e+02,6.949786663273831877e+00
1.320000000000000000e+02,6.976489056664124888e+00
1.330000000000000000e+02,7.002958995785814267e+00
1.340000000000000000e+02,7.029198109459532162e+00
1.350000000000000000e+02,7.055210793959868276e+00
1.360000000000000000e+02,7.081000843686510393e+00
1.370000000000000000e+02,7.106570778215131945e+00
1.380000000000000000e+02,7.131922578556775250e+00
1.390000000000000000e+02,7.157060905604428314e+00
1.400000000000000000e+02,7.181988468389423730e+00
1.410000000000000000e+02,7.206707669581845721e+00
1.420000000000000000e+02,7.231220616142900681e+00
1.430000000000000000e+02,7.255531353088205293e+00
1.440000000000000000e+02,7.279642706966676258e+00
1.450000000000000000e+02,7.303556326449335501e+00
1.460000000000000000e+02,7.327274901112882155e+00
1.470000000000000000e+02,7.350802344833334168e+00
1.480000000000000000e+02,7.374140313108851430e+00
1.490000000000000000e+02,7.397290627555209497e+00
1.500000000000000000e+02,7.420256971660917245e+00
1.510000000000000000e+02,7.443041241823249443e+00
1.520000000000000000e+02,7.465645492297288577e+00
1.530000000000000000e+02,7.488072556946631764e+00
1.540000000000000000e+02,7.510324573646228963e+00
1.550000000000000000e+02,7.532403005097926929e+00
1.560000000000000000e+02,7.554311530392615381e+00
1.570000000000000000e+02,7.576051290722904952e+00
1.580000000000000000e+02,7.597624206727343399e+00
1.590000000000000000e+02,7.619033359928392812e+00
1.600000000000000000e+02,7.640279952681175324e+00
1.610000000000000000e+02,7.661365753548293078e+00
1.620000000000000000e+02,7.682293478629766526e+00
1.630000000000000000e+02,7.703064793442082170e+00
1.640000000000000000e+02,7.723680930046379345e+00
1.650000000000000000e+02,7.744145040967844729e+00
1.660000000000000000e+02,7.764457683126776644e+00
1.670000000000000000e+02,7.784621907893298776e+00
1.680000000000000000e+02,7.804638777011401629e+00
1.690000000000000000e+02,7.824509325619793287e+00
1.700000000000000000e+02,7.844236655637255140e+00
1.710000000000000000e+02,7.863821341287464683e+00
1.720000000000000000e+02,7.883266012630122610e+00
1.730000000000000000e+02,7.902571369012516556e+00
1.740000000000000000e+02,7.921739956921689974e+00
1.750000000000000000e+02,7.940772784134290774e+00
1.760000000000000000e+02,7.959671019492072119e+00
1.770000000000000000e+02,7.978436540869188853e+00
1.780000000000000000e+02,7.997070454444636489e+00
1.790000000000000000e+02,8.015574934718221911e+00
1.800000000000000000e+02,8.033950661097932766e+00
1.810000000000000000e+02,8.052200101837474477e+00
1.820000000000000000e+02,8.070323519791379852e+00
1.830000000000000000e+02,8.088322958363356463e+00
1.840000000000000000e+02,8.106199351881254955e+00
1.850000000000000000e+02,8.123954678513824135e+00
1.860000000000000000e+02,8.141589465351506405e+00
1.870000000000000000e+02,8.159105633286094061e+00
1.880000000000000000e+02,8.176503665853317671e+00
1.890000000000000000e+02,8.193785603857893562e+00
1.900000000000000000e+02,8.210952061144064729e+00
1.910000000000000000e+02,8.228004502258373876e+00
1.920000000000000000e+02,8.244944019604607988e+00
1.930000000000000000e+02,8.261772027193119428e+00
1.940000000000000000e+02,8.278489400224628980e+00
1.950000000000000000e+02,8.295096996409853318e+00
1.960000000000000000e+02,8.311596503636472733e+00
1.970000000000000000e+02,8.327988567099534833e+00
1.980000000000000000e+02,8.344274659226329049e+00
1.990000000000000000e+02,8.360455221492669509e+00
2.000000000000000000e+02,8.376531853194865818e+00
2.010000000000000000e+02,8.392505128859486518e+00
2.020000000000000000e+02,8.408376273483446184e+00
2.030000000000000000e+02,8.424146820491753118e+00
2.040000000000000000e+02,8.439816798413273702e+00
2.050000000000000000e+02,8.455387705993631542e+00
2.060000000000000000e+02,8.470860201377108822e+00
2.070000000000000000e+02,8.486235255335415673e+00
2.080000000000000000e+02,8.501513983736781910e+00
2.090000000000000000e+02,8.516697160899139973e+00
2.100000000000000000e+02,8.531785386561427487e+00
2.110000000000000000e+02,8.546780371028988910e+00
2.120000000000000000e+02,8.561682201085442756e+00
2.130000000000000000e+02,8.576491437086650294e+00
2.140000000000000000e+02,8.591209897812177587e+00
2.150000000000000000e+02,8.605837794041082844e+00
2.160000000000000000e+02,8.620375646206865028e+00
2.170000000000000000e+02,8.634824750207348742e+00
2.180000000000000000e+02,8.649185756250478363e+00
2.190000000000000000e+02,8.663459303489281282e+00
2.200000000000000000e+02,8.677646175709087473e+00
2.210000000000000000e+02,8.691747453984474348e+00
2.220000000000000000e+02,8.705763585251329317e+00
2.230000000000000000e+02,8.719695008382730705e+00
2.240000000000000000e+02,8.733542768227732012e+00
2.250000000000000000e+02,8.747307435182440472e+00
2.260000000000000000e+02,8.760989875260507986e+00
2.270000000000000000e+02,8.774590637399910520e+00
2.280000000000000000e+02,8.788110564707581673e+00
2.290000000000000000e+02,8.801550034464597161e+00
2.300000000000000000e+02,8.814909869170403312e+00
2.310000000000000000e+02,8.828190428675787516e+00
2.320000000000000000e+02,8.841392665416474728e+00
2.330000000000000000e+02,8.854516921197616242e+00
2.340000000000000000e+02,8.867564127208238389e+00
2.350000000000000000e+02,8.880534311101124345e+00
2.360000000000000000e+02,8.893428682218910808e+00
2.370000000000000000e+02,8.906247843644159445e+00
2.380000000000000000e+02,8.918991948137712455e+00
2.390000000000000000e+02,8.931661731742680743e+00
2.400000000000000000e+02,8.944257920265556550e+00
2.410000000000000000e+02,8.956780353983548437e+00
2.420000000000000000e+02,8.969230473698161177e+00
2.430000000000000000e+02,8.981608106200082986e+00
2.440000000000000000e+02,8.993914380779358453e+00
2.450000000000000000e+02,9.006149258031802773e+00
2.460000000000000000e+02,9.018313272914886269e+00
2.470000000000000000e+02,9.030407239939091113e+00
2.480000000000000000e+02,9.042431819997485576e+00
2.490000000000000000e+02,9.054387094103507394e+00
2.500000000000000000e+02,9.066273852768564012e+00
2.510000000000000000e+02,9.078092166328643131e+00
2.520000000000000000e+02,9.089842811081004115e+00
2.530000000000000000e+02,9.101525988402357825e+00
2.540000000000000000e+02,9.113142459763114545e+00
2.550000000000000000e+02,9.124692555474144484e+00
2.560000000000000000e+02,9.136176600898787470e+00
2.570000000000000000e+02,9.147595056426460758e+00
2.580000000000000000e+02,9.158948376272256553e+00
2.590000000000000000e+02,9.170236869383710854e+00
2.600000000000000000e+02,9.181460840111510535e+00
2.610000000000000000e+02,9.192621003860049100e+00
2.620000000000000000e+02,9.203717652999404919e+00
2.630000000000000000e+02,9.214750937711688294e+00
2.640000000000000000e+02,9.225721555364732041e+00
2.650000000000000000e+02,9.236630058009909661e+00
2.660000000000000000e+02,9.247476306595745044e+00
2.670000000000000000e+02,9.258261117879937885e+00
2.680000000000000000e+02,9.268984482063418184e+00
2.690000000000000000e+02,9.279646931751587502e+00
2.700000000000000000e+02,9.290249128864049410e+00
2.710000000000000000e+02,9.300791051276917187e+00
2.720000000000000000e+02,9.311273215735127451e+00
2.730000000000000000e+02,9.321695863518524305e+00
2.740000000000000000e+02,9.332059366790511845e+00
2.750000000000000000e+02,9.342364361287891938e+00
2.760000000000000000e+02,9.352610672843987061e+00
2.770000000000000000e+02,9.362798261000079947e+00
2.780000000000000000e+02,9.372928416758815828e+00
2.790000000000000000e+02,9.383001089052838140e+00
2.800000000000000000e+02,9.393016491301033000e+00
2.810000000000000000e+02,9.402975363387120922e+00
2.820000000000000000e+02,9.412877380708341235e+00
2.830000000000000000e+02,9.422723142996847656e+00
2.840000000000000000e+02,9.432513112134442324e+00
2.850000000000000000e+02,9.442247088427745183e+00
2.860000000000000000e+02,9.451925396678376501e+00
2.870000000000000000e+02,9.461548488532733003e+00
2.880000000000000000e+02,9.471116941222387453e+00
2.890000000000000000e+02,9.480631195863297833e+00
2.900000000000000000e+02,9.490090649013174229e+00
2.910000000000000000e+02,9.499495738567533820e+00
2.920000000000000000e+02,9.508846897734544612e+00
2.930000000000000000e+02,9.518144813538036431e+00
2.940000000000000000e+02,9.527389392691505421e+00
2.950000000000000000e+02,9.536580798878150134e+00
2.960000000000000000e+02,9.545718807938822437e+00
2.970000000000000000e+02,9.554804606686651880e+00
2.980000000000000000e+02,9.563837963978217616e+00
2.990000000000000000e+02,9.572819160223390966e+00
3.000000000000000000e+02,9.581747835065392849e+00
3.010000000000000000e+02,9.590624902330940671e+00
3.020000000000000000e+02,9.599450632784868986e+00
3.030000000000000000e+02,9.608224913676819412e+00
3.040000000000000000e+02,9.616947378806305124e+00
3.050000000000000000e+02,9.625619305936567116e+00
3.060000000000000000e+02,9.634240196884251262e+00
3.070000000000000000e+02,9.642810437160216352e+00
3.080000000000000000e+02,9.651330157081458694e+00
3.090000000000000000e+02,9.659799610386999191e+00
3.100000000000000000e+02,9.668218672238726441e+00
3.110000000000000000e+02,9.676587592604784405e+00
3.120000000000000000e+02,9.684907117824836931e+00
3.130000000000000000e+02,9.693176617567949904e+00
3.140000000000000000e+02,9.701396708473565056e+00
3.150000000000000000e+02,9.709567629416740786e+00
3.160000000000000000e+02,9.717688872829697289e+00
3.170000000000000000e+02,9.725761047232225565e+00
3.180000000000000000e+02,9.733784508925198864e+00
3.190000000000000000e+02,9.741758500659718933e+00
3.200000000000000000e+02,9.749684239417742759e+00
3.210000000000000000e+02,9.757561457822344408e+00
3.220000000000000000e+02,9.765389889161582460e+00
3.230000000000000000e+02,9.773170370368514881e+00
3.240000000000000000e+02,9.780902263639216443e+00
3.250000000000000000e+02,9.788586522355997133e+00
3.260000000000000000e+02,9.796222629103599644e+00
3.270000000000000000e+02,9.803810434008672914e+00
3.280000000000000000e+02,9.811350881497247656e+00
3.290000000000000000e+02,9.818843694956699508e+00
3.300000000000000000e+02,9.826288598415679587e+00
3.310000000000000000e+02,9.833686405990615498e+00
3.320000000000000000e+02,9.841036838011673282e+00
3.330000000000000000e+02,9.848339977515278676e+00
3.340000000000000000e+02,9.855596147030246001e+00
3.350000000000000000e+02,9.862804944113003458e+00
3.360000000000000000e+02,9.869967409599189168e+00
3.370000000000000000e+02,9.877082297420679780e+00
3.380000000000000000e+02,9.884150883853061842e+00
3.390000000000000000e+02,9.891172881394524552e+00
3.400000000000000000e+02,9.898148003147397844e+00
3.410000000000000000e+02,9.905076678673093937e+00
3.420000000000000000e+02,9.911959214947254182e+00
3.430000000000000000e+02,9.918795083326630291e+00
3.440000000000000000e+02,9.925585064082644848e+00
3.450000000000000000e+02,9.932328745591519237e+00
3.460000000000000000e+02,9.939026428439335703e+00
3.470000000000000000e+02,9.945678647251678939e+00
3.480000000000000000e+02,9.952284396379903697e+00
3.490000000000000000e+02,9.958844326888284471e+00
3.500000000000000000e+02,9.965358967507041754e+00
3.510000000000000000e+02,9.971828019139667987e+00
3.520000000000000000e+02,9.978251418370030379e+00
3.530000000000000000e+02,9.984629335928572047e+00
3.540000000000000000e+02,9.990961823382997764e+00
3.550000000000000000e+02,9.997249165271682614e+00
3.560000000000000000e+02,1.000349140973647089e+01
3.570000000000000000e+02,1.000968813633780030e+01
3.580000000000000000e+02,1.001584055935737183e+01
3.590000000000000000e+02,1.002194732206908334e+01
3.600000000000000000e+02,1.002800975069890477e+01
3.610000000000000000e+02,1.003402718751828537e+01
3.620000000000000000e+02,1.004000025437055754e+01
3.630000000000000000e+02,1.004592829323315328e+01
3.640000000000000000e+02,1.005181192259942868e+01
3.650000000000000000e+02,1.005765152562502962e+01
3.660000000000000000e+02,1.006344632681854634e+01
3.670000000000000000e+02,1.006919705419293187e+01
3.680000000000000000e+02,1.007490362416303320e+01
3.690000000000000000e+02,1.008056641332153269e+01
3.700000000000000000e+02,1.008618533531981853e+01
3.710000000000000000e+02,1.009176007333424785e+01
3.720000000000000000e+02,1.009729077020986665e+01
3.730000000000000000e+02,1.010277837000762524e+01
3.740000000000000000e+02,1.010822232235673823e+01
3.750000000000000000e+02,1.011362299384562036e+01
3.760000000000000000e+02,1.011897983394337786e+01
3.770000000000000000e+02,1.012429343550435590e+01
3.780000000000000000e+02,1.012956415975541979e+01
3.790000000000000000e+02,1.013479145373150025e+01
3.800000000000000000e+02,1.013997624583884516e+01
3.810000000000000000e+02,1.014511798118436303e+01
3.820000000000000000e+02,1.015021735600145902e+01
3.830000000000000000e+02,1.015527381420074882e+01
3.840000000000000000e+02,1.016028782151951759e+01
3.850000000000000000e+02,1.016525961434356162e+01
3.860000000000000000e+02,1.017018931402770576e+01
3.870000000000000000e+02,1.017507647519792791e+01
3.880000000000000000e+02,1.017992178283921056e+01
3.890000000000000000e+02,1.018472569269953887e+01
3.900000000000000000e+02,1.018948753043590294e+01
3.910000000000000000e+02,1.019420774973003141e+01
3.920000000000000000e+02,1.019888657658939657e+01
3.930000000000000000e+02,1.020352434772523686e+01
3.940000000000000000e+02,1.020812094839055462e+01
3.950000000000000000e+02,1.021267637559458308e+01
3.960000000000000000e+02,1.021719084973446812e+01
3.970000000000000000e+02,1.022166503769183876e+01
3.980000000000000000e+02,1.022609837179555470e+01
