# Time [s], Temperature [C]
1.000000000000000000e+00,2.499997099999999861e+01
2.000000000000000000e+00,4.709024800000000255e+01
3.000000000000000000e+00,5.912886000000000308e+01
4.000000000000000000e+00,6.895241500000000201e+01
5.000000000000000000e+00,7.710523200000000088e+01
6.000000000000000000e+00,8.426036100000000317e+01
7.000000000000000000e+00,9.065948500000000365e+01
8.000000000000000000e+00,9.648847200000000157e+01
9.000000000000000000e+00,1.018581899999999933e+02
1.000000000000000000e+01,1.068511599999999930e+02
1.100000000000000000e+01,1.115271400000000028e+02
1.200000000000000000e+01,1.159318200000000019e+02
1.300000000000000000e+01,1.201002199999999931e+02
1.400000000000000000e+01,1.240609800000000007e+02
1.500000000000000000e+01,1.278368799999999936e+02
1.600000000000000000e+01,1.314474199999999939e+02
1.700000000000000000e+01,1.349089800000000139e+02
1.800000000000000000e+01,1.382342399999999998e+02
1.900000000000000000e+01,1.414354399999999998e+02
2.000000000000000000e+01,1.445231300000000090e+02
2.100000000000000000e+01,1.475049699999999859e+02
2.200000000000000000e+01,1.503898299999999892e+02
2.300000000000000000e+01,1.531834100000000092e+02
2.400000000000000000e+01,1.558926800000000128e+02
2.500000000000000000e+01,1.585223799999999983e+02
2.600000000000000000e+01,1.610784500000000037e+02
2.700000000000000000e+01,1.635641899999999964e+02
2.800000000000000000e+01,1.659838300000000118e+02
2.900000000000000000e+01,1.683416699999999935e+02
3.000000000000000000e+01,1.706399099999999862e+02
3.100000000000000000e+01,1.728819100000000049e+02
3.200000000000000000e+01,1.750713800000000049e+02
3.300000000000000000e+01,1.772099300000000142e+02
3.400000000000000000e+01,1.792999700000000018e+02
3.500000000000000000e+01,1.813443100000000072e+02
3.600000000000000000e+01,1.833440099999999973e+02
3.700000000000000000e+01,1.853016399999999919e+02
3.800000000000000000e+01,1.872195100000000139e+02
3.900000000000000000e+01,1.890981899999999882e+02
4.000000000000000000e+01,1.909398500000000070e+02
4.100000000000000000e+01,1.927461900000000128e+02
4.200000000000000000e+01,1.945173200000000122e+02
4.300000000000000000e+01,1.962555499999999995e+02
4.400000000000000000e+01,1.979627999999999872e+02
4.500000000000000000e+01,1.996381700000000023e+02
4.600000000000000000e+01,2.012845900000000086e+02
4.700000000000000000e+01,2.029027399999999943e+02
4.800000000000000000e+01,2.044924499999999910e+02
4.900000000000000000e+01,2.060557300000000112e+02
5.000000000000000000e+01,2.075939199999999971e+02
5.100000000000000000e+01,2.091068400000000054e+02
5.200000000000000000e+01,2.105954700000000059e+02
5.300000000000000000e+01,2.120611399999999946e+02
5.400000000000000000e+01,2.135042300000000068e+02
5.500000000000000000e+01,2.149253999999999962e+02
5.600000000000000000e+01,2.163258500000000026e+02
5.700000000000000000e+01,2.177049299999999903e+02
5.800000000000000000e+01,2.190649600000000135e+02
5.900000000000000000e+01,2.204051699999999983e+02
6.000000000000000000e+01,2.217270499999999913e+02
6.100000000000000000e+01,2.230298899999999946e+02
6.200000000000000000e+01,2.243162199999999871e+02
6.300000000000000000e+01,2.255846300000000042e+02
6.400000000000000000e+01,2.268367499999999950e+02
6.500000000000000000e+01,2.280728100000000040e+02
6.600000000000000000e+01,2.292929699999999968e+02
6.700000000000000000e+01,2.304979600000000062e+02
6.800000000000000000e+01,2.316886100000000113e+02
6.900000000000000000e+01,2.328647300000000087e+02
7.000000000000000000e+01,2.340267499999999927e+02
7.100000000000000000e+01,2.351755499999999870e+02
7.200000000000000000e+01,2.363107500000000130e+02
7.300000000000000000e+01,2.374332599999999900e+02
7.400000000000000000e+01,2.385432099999999878e+02
7.500000000000000000e+01,2.396408099999999877e+02
7.600000000000000000e+01,2.407264900000000125e+02
7.700000000000000000e+01,2.418009199999999908e+02
7.800000000000000000e+01,2.428642600000000016e+02
7.900000000000000000e+01,2.439161799999999971e+02
8.000000000000000000e+01,2.449583900000000085e+02
8.100000000000000000e+01,2.459900199999999870e+02
8.200000000000000000e+01,2.470110500000000116e+02
8.300000000000000000e+01,2.480233900000000062e+02
8.400000000000000000e+01,2.490251199999999869e+02
8.500000000000000000e+01,2.500178099999999972e+02
8.600000000000000000e+01,2.510018499999999904e+02
8.700000000000000000e+01,2.519768400000000099e+02
8.800000000000000000e+01,2.529424600000000112e+02
8.900000000000000000e+01,2.539009599999999978e+02
9.000000000000000000e+01,2.548502699999999948e+02
9.100000000000000000e+01,2.557921599999999955e+02
9.200000000000000000e+01,2.567257399999999734e+02
9.300000000000000000e+01,2.576523099999999999e+02
9.400000000000000000e+01,2.585709499999999821e+02
9.500000000000000000e+01,2.594827900000000227e+02
9.600000000000000000e+01,2.603877600000000143e+02
9.700000000000000000e+01,2.612851900000000001e+02
9.800000000000000000e+01,2.621765399999999886e+02
9.900000000000000000e+01,2.630607600000000161e+02
1.000000000000000000e+02,2.639383900000000267e+02
1.010000000000000000e+02,2.648102400000000216e+02
1.020000000000000000e+02,2.656757499999999936e+02
1.030000000000000000e+02,2.665347899999999868e+02
1.040000000000000000e+02,2.673880899999999770e+02
1.050000000000000000e+02,2.682357499999999959e+02
1.060000000000000000e+02,2.690776999999999930e+02
1.070000000000000000e+02,2.699137299999999868e+02
1.080000000000000000e+02,2.707443799999999783e+02
1.090000000000000000e+02,2.715697299999999927e+02
1.100000000000000000e+02,2.723900800000000118e+02
1.110000000000000000e+02,2.732049000000000092e+02
1.120000000000000000e+02,2.740142200000000230e+02
1.130000000000000000e+02,2.748191199999999981e+02
1.140000000000000000e+02,2.756187400000000025e+02
1.150000000000000000e+02,2.764130900000000111e+02
1.160000000000000000e+02,2.772033999999999878e+02
1.170000000000000000e+02,2.779886500000000069e+02
1.180000000000000000e+02,2.787695299999999747e+02
1.190000000000000000e+02,2.795455900000000042e+02
1.200000000000000000e+02,2.803168900000000008e+02
1.210000000000000000e+02,2.810837399999999775e+02
1.220000000000000000e+02,2.818464099999999917e+02
1.230000000000000000e+02,2.826046099999999797e+02
1.240000000000000000e+02,2.833584000000000174e+02
1.250000000000000000e+02,2.841082499999999982e+02
1.260000000000000000e+02,2.848536700000000224e+02
1.270000000000000000e+02,2.855949699999999893e+02
1.280000000000000000e+02,2.863323399999999879e+02
1.290000000000000000e+02,2.870654000000000110e+02
1.300000000000000000e+02,2.877948000000000093e+02
1.310000000000000000e+02,2.885201700000000073e+02
1.320000000000000000e+02,2.892416099999999801e+02
1.330000000000000000e+02,2.899591399999999908e+02
1.340000000000000000e+02,2.906731599999999958e+02
1.350000000000000000e+02,2.913836099999999760e+02
1.360000000000000000e+02,2.920899699999999939e+02
1.370000000000000000e+02,2.927934300000000007e+02
1.380000000000000000e+02,2.934927700000000073e+02
1.390000000000000000e+02,2.941884499999999889e+02
1.400000000000000000e+02,2.948811600000000226e+02
1.410000000000000000e+02,2.955700100000000248e+02
1.420000000000000000e+02,2.962555199999999900e+02
1.430000000000000000e+02,2.969382299999999759e+02
1.440000000000000000e+02,2.976174300000000130e+02
1.450000000000000000e+02,2.982928200000000061e+02
1.460000000000000000e+02,2.989652699999999754e+02
1.470000000000000000e+02,2.996346100000000092e+02
1.480000000000000000e+02,3.003007499999999936e+02
1.490000000000000000e+02,3.009638100000000236e+02
1.500000000000000000e+02,3.016238099999999918e+02
1.510000000000000000e+02,3.022804600000000050e+02
1.520000000000000000e+02,3.029347500000000082e+02
1.530000000000000000e+02,3.035858799999999746e+02
1.540000000000000000e+02,3.042335800000000177e+02
1.550000000000000000e+02,3.048786299999999869e+02
1.560000000000000000e+02,3.055212399999999775e+02
1.570000000000000000e+02,3.061603700000000003e+02
1.580000000000000000e+02,3.067972700000000259e+02
1.590000000000000000e+02,3.074306599999999889e+02
1.600000000000000000e+02,3.080617100000000050e+02
1.610000000000000000e+02,3.086900899999999979e+02
1.620000000000000000e+02,3.093153100000000109e+02
1.630000000000000000e+02,3.099385700000000270e+02
1.640000000000000000e+02,3.105585899999999810e+02
1.650000000000000000e+02,3.111758399999999938e+02
1.660000000000000000e+02,3.117909500000000094e+02
1.670000000000000000e+02,3.124030200000000264e+02
1.680000000000000000e+02,3.130126999999999953e+02
1.690000000000000000e+02,3.136196600000000103e+02
1.700000000000000000e+02,3.142244299999999839e+02
1.710000000000000000e+02,3.148265099999999848e+02
1.720000000000000000e+02,3.154259900000000130e+02
1.730000000000000000e+02,3.160226400000000240e+02
1.740000000000000000e+02,3.166175200000000132e+02
1.750000000000000000e+02,3.172092900000000100e+02
1.760000000000000000e+02,3.177993200000000229e+02
1.770000000000000000e+02,3.183861999999999739e+02
1.780000000000000000e+02,3.189709199999999782e+02
1.790000000000000000e+02,3.195531300000000101e+02
1.800000000000000000e+02,3.201330600000000004e+02
1.810000000000000000e+02,3.207105700000000184e+02
1.820000000000000000e+02,3.212856800000000135e+02
1.830000000000000000e+02,3.218583399999999983e+02
1.840000000000000000e+02,3.224287400000000048e+02
1.850000000000000000e+02,3.229963399999999751e+02
1.860000000000000000e+02,3.235623499999999808e+02
1.870000000000000000e+02,3.241256099999999947e+02
1.880000000000000000e+02,3.246865799999999922e+02
1.890000000000000000e+02,3.252453300000000240e+02
1.900000000000000000e+02,3.258016999999999825e+02
1.910000000000000000e+02,3.263557700000000068e+02
1.920000000000000000e+02,3.269078400000000215e+02
1.930000000000000000e+02,3.274570299999999747e+02
1.940000000000000000e+02,3.280045200000000136e+02
1.950000000000000000e+02,3.285490100000000098e+02
1.960000000000000000e+02,3.290919499999999971e+02
1.970000000000000000e+02,3.296324799999999868e+02
1.980000000000000000e+02,3.301702599999999848e+02
1.990000000000000000e+02,3.307064199999999801e+02
2.000000000000000000e+02,3.312398699999999963e+02
2.010000000000000000e+02,3.317712099999999964e+02
2.020000000000000000e+02,3.323003499999999804e+02
2.030000000000000000e+02,3.328273300000000177e+02
2.040000000000000000e+02,3.333514999999999873e+02
2.050000000000000000e+02,3.338741499999999860e+02
2.060000000000000000e+02,3.343943499999999744e+02
2.070000000000000000e+02,3.349119000000000028e+02
2.080000000000000000e+02,3.354279199999999719e+02
2.090000000000000000e+02,3.359410100000000057e+02
2.100000000000000000e+02,3.364520899999999983e+02
2.110000000000000000e+02,3.369614300000000071e+02
2.120000000000000000e+02,3.374678299999999922e+02
2.130000000000000000e+02,3.379725300000000061e+02
2.140000000000000000e+02,3.384744600000000219e+02
2.150000000000000000e+02,3.389745500000000220e+02
2.160000000000000000e+02,3.394725300000000061e+02
2.170000000000000000e+02,3.399678000000000111e+02
2.180000000000000000e+02,3.404610900000000129e+02
2.190000000000000000e+02,3.409523599999999988e+02
2.200000000000000000e+02,3.414411900000000060e+02
2.210000000000000000e+02,3.419277000000000157e+02
2.220000000000000000e+02,3.424120800000000031e+02
2.230000000000000000e+02,3.428943199999999933e+02
2.240000000000000000e+02,3.433739600000000110e+02
2.250000000000000000e+02,3.438518700000000194e+02
2.260000000000000000e+02,3.443274499999999989e+02
2.270000000000000000e+02,3.448001699999999801e+02
2.280000000000000000e+02,3.452712999999999965e+02
2.290000000000000000e+02,3.457403899999999908e+02
2.300000000000000000e+02,3.462062399999999798e+02
2.310000000000000000e+02,3.466707200000000171e+02
2.320000000000000000e+02,3.471327499999999873e+02
2.330000000000000000e+02,3.475922899999999913e+02
2.340000000000000000e+02,3.480497100000000046e+02
2.350000000000000000e+02,3.485052800000000275e+02
2.360000000000000000e+02,3.489578200000000265e+02
2.370000000000000000e+02,3.494088699999999790e+02
2.380000000000000000e+02,3.498571499999999901e+02
2.390000000000000000e+02,3.503029500000000098e+02
2.400000000000000000e+02,3.507471600000000080e+02
2.410000000000000000e+02,3.511893600000000220e+02
2.420000000000000000e+02,3.516282299999999736e+02
2.430000000000000000e+02,3.520652799999999729e+02
2.440000000000000000e+02,3.525006399999999758e+02
2.450000000000000000e+02,3.529327099999999859e+02
2.460000000000000000e+02,3.533633399999999938e+02
2.470000000000000000e+02,3.537916900000000169e+02
2.480000000000000000e+02,3.542171599999999785e+02
2.490000000000000000e+02,3.546406200000000126e+02
2.500000000000000000e+02,3.550623499999999808e+02
2.510000000000000000e+02,3.554807400000000257e+02
2.520000000000000000e+02,3.558978599999999801e+02
2.530000000000000000e+02,3.563128699999999753e+02
2.540000000000000000e+02,3.567242699999999900e+02
2.550000000000000000e+02,3.571345800000000281e+02
2.560000000000000000e+02,3.575425099999999929e+02
2.570000000000000000e+02,3.579470499999999902e+02
2.580000000000000000e+02,3.583503999999999792e+02
2.590000000000000000e+02,3.587517700000000218e+02
2.600000000000000000e+02,3.591495400000000018e+02
2.610000000000000000e+02,3.595462600000000180e+02
2.620000000000000000e+02,3.599410399999999868e+02
2.630000000000000000e+02,3.603319999999999936e+02
2.640000000000000000e+02,3.607218899999999735e+02
2.650000000000000000e+02,3.611098600000000260e+02
2.660000000000000000e+02,3.614939299999999776e+02
2.670000000000000000e+02,3.618771699999999782e+02
2.680000000000000000e+02,3.622585100000000011e+02
2.690000000000000000e+02,3.626358000000000175e+02
2.700000000000000000e+02,3.630119300000000067e+02
2.710000000000000000e+02,3.633865700000000061e+02
2.720000000000000000e+02,3.637568999999999733e+02
2.730000000000000000e+02,3.641265300000000025e+02
2.740000000000000000e+02,3.644944800000000100e+02
2.750000000000000000e+02,3.648582499999999982e+02
2.760000000000000000e+02,3.652214999999999918e+02
2.770000000000000000e+02,3.655829499999999825e+02
2.780000000000000000e+02,3.659400600000000168e+02
2.790000000000000000e+02,3.662970900000000256e+02
2.800000000000000000e+02,3.666517900000000054e+02
2.810000000000000000e+02,3.670027200000000107e+02
2.820000000000000000e+02,3.673530000000000086e+02
2.830000000000000000e+02,3.677015700000000038e+02
2.840000000000000000e+02,3.680455299999999852e+02
2.850000000000000000e+02,3.683893400000000042e+02
2.860000000000000000e+02,3.687314499999999953e+02
2.870000000000000000e+02,3.690692399999999793e+02
2.880000000000000000e+02,3.694064000000000192e+02
2.890000000000000000e+02,3.697422500000000127e+02
2.900000000000000000e+02,3.700733299999999986e+02
2.910000000000000000e+02,3.704045399999999972e+02
2.920000000000000000e+02,3.707341599999999744e+02
2.930000000000000000e+02,3.710590199999999754e+02
2.940000000000000000e+02,3.713844900000000280e+02
2.950000000000000000e+02,3.717082800000000020e+02
2.960000000000000000e+02,3.720271299999999997e+02
2.970000000000000000e+02,3.723461899999999787e+02
2.980000000000000000e+02,3.726638500000000249e+02
2.990000000000000000e+02,3.729769299999999816e+02
3.000000000000000000e+02,3.732897600000000011e+02
3.010000000000000000e+02,3.736015300000000252e+02
3.020000000000000000e+02,3.739086899999999787e+02
3.030000000000000000e+02,3.742160900000000083e+02
3.040000000000000000e+02,3.745227100000000178e+02
3.050000000000000000e+02,3.748235500000000116e+02
3.060000000000000000e+02,3.751253399999999942e+02
3.070000000000000000e+02,3.754258100000000127e+02
3.080000000000000000e+02,3.757216799999999921e+02
3.090000000000000000e+02,3.760184600000000046e+02
3.100000000000000000e+02,3.763132600000000139e+02
3.110000000000000000e+02,3.766031500000000278e+02
3.120000000000000000e+02,3.768940999999999804e+02
3.130000000000000000e+02,3.771850299999999834e+02
3.140000000000000000e+02,3.774693300000000136e+02
3.150000000000000000e+02,3.777551000000000272e+02
3.160000000000000000e+02,3.780402500000000146e+02
3.170000000000000000e+02,3.783192700000000173e+02
3.180000000000000000e+02,3.786004599999999982e+02
3.190000000000000000e+02,3.788802800000000275e+02
3.200000000000000000e+02,3.791553599999999733e+02
3.210000000000000000e+02,3.794307900000000018e+02
3.220000000000000000e+02,3.797062700000000177e+02
3.230000000000000000e+02,3.799763800000000060e+02
3.240000000000000000e+02,3.802472200000000271e+02
3.250000000000000000e+02,3.805176399999999717e+02
3.260000000000000000e+02,3.807837200000000166e+02
3.270000000000000000e+02,3.810499899999999798e+02
3.280000000000000000e+02,3.813158000000000243e+02
3.290000000000000000e+02,3.815769000000000233e+02
3.300000000000000000e+02,3.818399000000000001e+02
3.310000000000000000e+02,3.821010099999999738e+02
3.320000000000000000e+02,3.823571800000000280e+02
3.330000000000000000e+02,3.826163599999999860e+02
3.340000000000000000e+02,3.828734400000000164e+02
3.350000000000000000e+02,3.831261000000000081e+02
3.360000000000000000e+02,3.833802499999999895e+02
3.370000000000000000e+02,3.836338799999999765e+02
3.380000000000000000e+02,3.838826599999999871e+02
3.390000000000000000e+02,3.841329299999999876e+02
3.400000000000000000e+02,3.843826000000000249e+02
3.410000000000000000e+02,3.846275899999999979e+02
3.420000000000000000e+02,3.848743600000000242e+02
3.430000000000000000e+02,3.851203899999999862e+02
3.440000000000000000e+02,3.853617600000000039e+02
3.450000000000000000e+02,3.856049800000000118e+02
3.460000000000000000e+02,3.858481800000000135e+02
3.470000000000000000e+02,3.860849000000000046e+02
3.480000000000000000e+02,3.863252899999999954e+02
3.490000000000000000e+02,3.865650899999999979e+02
3.500000000000000000e+02,3.867984900000000152e+02
3.510000000000000000e+02,3.870355799999999817e+02
3.520000000000000000e+02,3.872722800000000234e+02
3.530000000000000000e+02,3.875025600000000168e+02
3.540000000000000000e+02,3.877373400000000174e+02
3.550000000000000000e+02,3.879698200000000270e+02
3.560000000000000000e+02,3.881976599999999848e+02
3.570000000000000000e+02,3.884294100000000185e+02
3.580000000000000000e+02,3.886590899999999920e+02
3.590000000000000000e+02,3.888856200000000172e+02
3.600000000000000000e+02,3.891127000000000180e+02
3.610000000000000000e+02,3.893408499999999890e+02
3.620000000000000000e+02,3.895634200000000078e+02
3.630000000000000000e+02,3.897885400000000118e+02
3.640000000000000000e+02,3.900146500000000174e+02
3.650000000000000000e+02,3.902341000000000122e+02
3.660000000000000000e+02,3.904573100000000068e+02
3.670000000000000000e+02,3.906795000000000186e+02
3.680000000000000000e+02,3.908978900000000181e+02
3.690000000000000000e+02,3.911180699999999888e+02
3.700000000000000000e+02,3.913381299999999783e+02
3.710000000000000000e+02,3.915540500000000179e+02
3.720000000000000000e+02,3.917717900000000100e+02
3.730000000000000000e+02,3.919902299999999968e+02
3.740000000000000000e+02,3.922034600000000069e+02
3.750000000000000000e+02,3.924196800000000280e+02
3.760000000000000000e+02,3.926342799999999897e+02
3.770000000000000000e+02,3.928468599999999924e+02
3.780000000000000000e+02,3.930595400000000268e+02
3.790000000000000000e+02,3.932739300000000071e+02
3.800000000000000000e+02,3.934835499999999797e+02
3.810000000000000000e+02,3.936951599999999871e+02
3.820000000000000000e+02,3.939074100000000271e+02
3.830000000000000000e+02,3.941137699999999882e+02
3.840000000000000000e+02,3.943249799999999823e+02
3.850000000000000000e+02,3.945336300000000165e+02
3.860000000000000000e+02,3.947408399999999915e+02
3.870000000000000000e+02,3.949475100000000225e+02
3.880000000000000000e+02,3.951569200000000137e+02
3.890000000000000000e+02,3.953597399999999880e+02
3.900000000000000000e+02,3.955673800000000142e+02
3.910000000000000000e+02,3.957724299999999857e+02
3.920000000000000000e+02,3.959749499999999784e+02
3.930000000000000000e+02,3.961790799999999990e+02
3.940000000000000000e+02,3.963832100000000196e+02
3.950000000000000000e+02,3.965852100000000178e+02
3.960000000000000000e+02,3.967869299999999839e+02
3.970000000000000000e+02,3.969912100000000237e+02
3.980000000000000000e+02,3.971892700000000218e+02
3.990000000000000000e+02,3.973920299999999770e+02
