# Time [s], Temperature [C]
1.000000000000000000e+00,2.499997099999999861e+01
2.000000000000000000e+00,6.867144000000000403e+01
3.000000000000000000e+00,9.267657499999999970e+01
4.000000000000000000e+00,1.122146599999999950e+02
5.000000000000000000e+00,1.283874700000000075e+02
6.000000000000000000e+00,1.425352900000000034e+02
7.000000000000000000e+00,1.551380000000000052e+02
8.000000000000000000e+00,1.665705600000000004e+02
9.000000000000000000e+00,1.770563400000000058e+02
1.000000000000000000e+01,1.867626999999999953e+02
1.100000000000000000e+01,1.958101000000000056e+02
1.200000000000000000e+01,2.042900099999999952e+02
1.300000000000000000e+01,2.122757699999999943e+02
1.400000000000000000e+01,2.198259899999999902e+02
1.500000000000000000e+01,2.269881699999999967e+02
1.600000000000000000e+01,2.338022799999999961e+02
1.700000000000000000e+01,2.403026299999999935e+02
1.800000000000000000e+01,2.465184600000000046e+02
1.900000000000000000e+01,2.524763000000000090e+02
2.000000000000000000e+01,2.581995800000000258e+02
2.100000000000000000e+01,2.637088899999999967e+02
2.200000000000000000e+01,2.690252699999999777e+02
2.300000000000000000e+01,2.741678800000000251e+02
2.400000000000000000e+01,2.791497800000000211e+02
2.500000000000000000e+01,2.839833100000000172e+02
2.600000000000000000e+01,2.886799899999999752e+02
2.700000000000000000e+01,2.932395300000000020e+02
2.800000000000000000e+01,2.976641200000000254e+02
2.900000000000000000e+01,3.019535500000000070e+02
3.000000000000000000e+01,3.061036700000000224e+02
3.100000000000000000e+01,3.101165500000000179e+02
3.200000000000000000e+01,3.139968000000000075e+02
3.300000000000000000e+01,3.177481700000000160e+02
3.400000000000000000e+01,3.213767700000000218e+02
3.500000000000000000e+01,3.248919999999999959e+02
3.600000000000000000e+01,3.282969699999999875e+02
3.700000000000000000e+01,3.315992699999999900e+02
3.800000000000000000e+01,3.348059999999999832e+02
3.900000000000000000e+01,3.379203499999999849e+02
4.000000000000000000e+01,3.409466899999999896e+02
4.100000000000000000e+01,3.438919099999999958e+02
4.200000000000000000e+01,3.467552800000000275e+02
4.300000000000000000e+01,3.495422100000000114e+02
4.400000000000000000e+01,3.522567399999999793e+02
4.500000000000000000e+01,3.548992900000000077e+02
4.600000000000000000e+01,3.574727500000000191e+02
4.700000000000000000e+01,3.599811100000000010e+02
4.800000000000000000e+01,3.624232499999999959e+02
4.900000000000000000e+01,3.648021499999999833e+02
5.000000000000000000e+01,3.671211500000000001e+02
5.100000000000000000e+01,3.693797900000000141e+02
5.200000000000000000e+01,3.715788000000000011e+02
5.300000000000000000e+01,3.737217400000000112e+02
5.400000000000000000e+01,3.758078600000000051e+02
5.500000000000000000e+01,3.778386199999999917e+02
5.600000000000000000e+01,3.798167700000000195e+02
5.700000000000000000e+01,3.817422500000000127e+02
5.800000000000000000e+01,3.836166699999999992e+02
5.900000000000000000e+01,3.854412500000000250e+02
6.000000000000000000e+01,3.872172499999999786e+02
6.100000000000000000e+01,3.889467500000000086e+02
6.200000000000000000e+01,3.906303399999999897e+02
6.300000000000000000e+01,3.922702300000000264e+02
6.400000000000000000e+01,3.938671600000000126e+02
6.500000000000000000e+01,3.954241299999999910e+02
6.600000000000000000e+01,3.969418000000000006e+02
6.700000000000000000e+01,3.984215100000000120e+02
6.800000000000000000e+01,3.998660300000000234e+02
6.900000000000000000e+01,4.012781100000000265e+02
7.000000000000000000e+01,4.026573200000000270e+02
7.100000000000000000e+01,4.040080899999999815e+02
7.200000000000000000e+01,4.053297400000000152e+02
7.300000000000000000e+01,4.066273499999999785e+02
7.400000000000000000e+01,4.079003599999999778e+02
7.500000000000000000e+01,4.091508499999999913e+02
7.600000000000000000e+01,4.103841600000000085e+02
7.700000000000000000e+01,4.115967699999999923e+02
7.800000000000000000e+01,4.127959599999999796e+02
7.900000000000000000e+01,4.139814099999999826e+02
8.000000000000000000e+01,4.151534399999999891e+02
8.100000000000000000e+01,4.163155199999999923e+02
8.200000000000000000e+01,4.174698500000000081e+02
8.300000000000000000e+01,4.186153299999999717e+02
8.400000000000000000e+01,4.197567099999999982e+02
8.500000000000000000e+01,4.208942599999999743e+02
8.600000000000000000e+01,4.220267299999999864e+02
8.700000000000000000e+01,4.231589700000000107e+02
8.800000000000000000e+01,4.242907700000000091e+02
8.900000000000000000e+01,4.254229399999999828e+02
9.000000000000000000e+01,4.265545999999999935e+02
9.100000000000000000e+01,4.276902200000000107e+02
9.200000000000000000e+01,4.288241899999999873e+02
9.300000000000000000e+01,4.299618800000000078e+02
9.400000000000000000e+01,4.311016799999999876e+02
9.500000000000000000e+01,4.322422500000000127e+02
9.600000000000000000e+01,4.333856499999999983e+02
9.700000000000000000e+01,4.345303599999999733e+02
9.800000000000000000e+01,4.356772500000000150e+02
9.900000000000000000e+01,4.368208900000000199e+02
1.000000000000000000e+02,4.379647199999999998e+02
1.010000000000000000e+02,4.391069899999999961e+02
1.020000000000000000e+02,4.402448099999999727e+02
1.030000000000000000e+02,4.413776599999999917e+02
1.040000000000000000e+02,4.425039699999999812e+02
1.050000000000000000e+02,4.436230199999999968e+02
1.060000000000000000e+02,4.447361099999999965e+02
1.070000000000000000e+02,4.458353299999999990e+02
1.080000000000000000e+02,4.469252599999999802e+02
1.090000000000000000e+02,4.480060700000000224e+02
1.100000000000000000e+02,4.490736699999999928e+02
1.110000000000000000e+02,4.501308300000000031e+02
1.120000000000000000e+02,4.511715100000000120e+02
1.130000000000000000e+02,4.522049000000000092e+02
1.140000000000000000e+02,4.532244900000000030e+02
1.150000000000000000e+02,4.542320300000000088e+02
1.160000000000000000e+02,4.552316000000000145e+02
1.170000000000000000e+02,4.562168300000000158e+02
1.180000000000000000e+02,4.572005599999999959e+02
1.190000000000000000e+02,4.581704100000000039e+02
1.200000000000000000e+02,4.591361099999999738e+02
1.210000000000000000e+02,4.600942400000000134e+02
1.220000000000000000e+02,4.610488899999999717e+02
1.230000000000000000e+02,4.619950900000000047e+02
1.240000000000000000e+02,4.629378399999999942e+02
1.250000000000000000e+02,4.638774999999999977e+02
1.260000000000000000e+02,4.648094500000000266e+02
1.270000000000000000e+02,4.657382200000000125e+02
1.280000000000000000e+02,4.666635400000000118e+02
1.290000000000000000e+02,4.675805399999999850e+02
1.300000000000000000e+02,4.684936799999999835e+02
1.310000000000000000e+02,4.694022499999999809e+02
1.320000000000000000e+02,4.703013900000000262e+02
1.330000000000000000e+02,4.711955899999999815e+02
1.340000000000000000e+02,4.720838600000000156e+02
1.350000000000000000e+02,4.729651499999999942e+02
1.360000000000000000e+02,4.738364900000000262e+02
1.370000000000000000e+02,4.747014800000000037e+02
1.380000000000000000e+02,4.755581999999999994e+02
1.390000000000000000e+02,4.764086899999999787e+02
1.400000000000000000e+02,4.772486299999999915e+02
1.410000000000000000e+02,4.780838600000000156e+02
1.420000000000000000e+02,4.789083299999999781e+02
1.430000000000000000e+02,4.797299800000000118e+02
1.440000000000000000e+02,4.805442800000000148e+02
1.450000000000000000e+02,4.813488199999999892e+02
1.460000000000000000e+02,4.821516700000000242e+02
1.470000000000000000e+02,4.829470499999999902e+02
1.480000000000000000e+02,4.837348299999999881e+02
1.490000000000000000e+02,4.845217299999999909e+02
1.500000000000000000e+02,4.853030699999999911e+02
1.510000000000000000e+02,4.860769999999999982e+02
1.520000000000000000e+02,4.868504300000000171e+02
1.530000000000000000e+02,4.876192599999999970e+02
1.540000000000000000e+02,4.883838499999999954e+02
1.550000000000000000e+02,4.891456900000000019e+02
1.560000000000000000e+02,4.898989300000000071e+02
1.570000000000000000e+02,4.906508799999999724e+02
1.580000000000000000e+02,4.913990200000000073e+02
1.590000000000000000e+02,4.921420299999999770e+02
1.600000000000000000e+02,4.928798199999999952e+02
1.610000000000000000e+02,4.936128199999999993e+02
1.620000000000000000e+02,4.943390200000000050e+02
1.630000000000000000e+02,4.950626199999999812e+02
1.640000000000000000e+02,4.957805500000000052e+02
1.650000000000000000e+02,4.964925799999999754e+02
1.660000000000000000e+02,4.972021500000000174e+02
1.670000000000000000e+02,4.979029499999999757e+02
1.680000000000000000e+02,4.985993300000000090e+02
1.690000000000000000e+02,4.992910499999999843e+02
1.700000000000000000e+02,4.999781199999999899e+02
1.710000000000000000e+02,5.006614999999999895e+02
1.720000000000000000e+02,5.013379199999999969e+02
1.730000000000000000e+02,5.020124799999999823e+02
1.740000000000000000e+02,5.026830400000000054e+02
1.750000000000000000e+02,5.033462799999999788e+02
1.760000000000000000e+02,5.040085399999999822e+02
1.770000000000000000e+02,5.046676600000000121e+02
1.780000000000000000e+02,5.053200699999999870e+02
1.790000000000000000e+02,5.059702100000000087e+02
1.800000000000000000e+02,5.066173400000000129e+02
1.810000000000000000e+02,5.072615999999999872e+02
1.820000000000000000e+02,5.079017000000000053e+02
1.830000000000000000e+02,5.085388199999999870e+02
1.840000000000000000e+02,5.091691599999999767e+02
1.850000000000000000e+02,5.098000200000000177e+02
1.860000000000000000e+02,5.104222100000000069e+02
1.870000000000000000e+02,5.110425399999999740e+02
1.880000000000000000e+02,5.116637600000000248e+02
1.890000000000000000e+02,5.122743500000000267e+02
1.900000000000000000e+02,5.128844599999999900e+02
1.910000000000000000e+02,5.134870600000000422e+02
1.920000000000000000e+02,5.140908200000000079e+02
1.930000000000000000e+02,5.146856699999999591e+02
1.940000000000000000e+02,5.152814300000000003e+02
1.950000000000000000e+02,5.158682300000000396e+02
1.960000000000000000e+02,5.164574000000000069e+02
1.970000000000000000e+02,5.170369899999999461e+02
1.980000000000000000e+02,5.176162699999999859e+02
1.990000000000000000e+02,5.181908600000000433e+02
2.000000000000000000e+02,5.187642799999999852e+02
2.010000000000000000e+02,5.193297700000000532e+02
2.020000000000000000e+02,5.198979500000000371e+02
2.030000000000000000e+02,5.204594100000000481e+02
2.040000000000000000e+02,5.210153800000000501e+02
2.050000000000000000e+02,5.215734300000000303e+02
2.060000000000000000e+02,5.221238399999999729e+02
2.070000000000000000e+02,5.226729699999999639e+02
2.080000000000000000e+02,5.232192400000000134e+02
2.090000000000000000e+02,5.237595199999999522e+02
2.100000000000000000e+02,5.243016999999999825e+02
2.110000000000000000e+02,5.248365499999999884e+02
2.120000000000000000e+02,5.253690800000000536e+02
2.130000000000000000e+02,5.258980699999999615e+02
2.140000000000000000e+02,5.264221199999999499e+02
2.150000000000000000e+02,5.269454299999999876e+02
2.160000000000000000e+02,5.274652700000000323e+02
2.170000000000000000e+02,5.279817500000000337e+02
2.180000000000000000e+02,5.284929200000000264e+02
2.190000000000000000e+02,5.290054300000000467e+02
2.200000000000000000e+02,5.295104999999999791e+02
2.210000000000000000e+02,5.300142200000000230e+02
2.220000000000000000e+02,5.305170299999999770e+02
2.230000000000000000e+02,5.310132399999999961e+02
2.240000000000000000e+02,5.315089100000000144e+02
2.250000000000000000e+02,5.319974399999999832e+02
2.260000000000000000e+02,5.324882199999999557e+02
2.270000000000000000e+02,5.329728999999999814e+02
2.280000000000000000e+02,5.334569699999999557e+02
2.290000000000000000e+02,5.339342000000000326e+02
2.300000000000000000e+02,5.344108899999999949e+02
2.310000000000000000e+02,5.348865399999999681e+02
2.320000000000000000e+02,5.353557700000000068e+02
2.330000000000000000e+02,5.358254399999999578e+02
2.340000000000000000e+02,5.362907099999999900e+02
2.350000000000000000e+02,5.367499400000000378e+02
2.360000000000000000e+02,5.372110000000000127e+02
2.370000000000000000e+02,5.376674799999999550e+02
2.380000000000000000e+02,5.381191999999999780e+02
2.390000000000000000e+02,5.385706800000000385e+02
2.400000000000000000e+02,5.390185500000000047e+02
2.410000000000000000e+02,5.394611200000000508e+02
2.420000000000000000e+02,5.399031400000000076e+02
2.430000000000000000e+02,5.403436900000000378e+02
2.440000000000000000e+02,5.407777700000000323e+02
2.450000000000000000e+02,5.412124599999999646e+02
2.460000000000000000e+02,5.416430100000000039e+02
2.470000000000000000e+02,5.420712899999999763e+02
2.480000000000000000e+02,5.424954800000000432e+02
2.490000000000000000e+02,5.429183299999999690e+02
2.500000000000000000e+02,5.433380700000000161e+02
2.510000000000000000e+02,5.437565299999999979e+02
2.520000000000000000e+02,5.441686999999999443e+02
2.530000000000000000e+02,5.445803200000000288e+02
2.540000000000000000e+02,5.449904199999999719e+02
2.550000000000000000e+02,5.453966699999999719e+02
2.560000000000000000e+02,5.458001100000000179e+02
2.570000000000000000e+02,5.462020300000000361e+02
2.580000000000000000e+02,5.465982099999999946e+02
2.590000000000000000e+02,5.469935900000000402e+02
2.600000000000000000e+02,5.473876299999999446e+02
2.610000000000000000e+02,5.477778299999999945e+02
2.620000000000000000e+02,5.481654700000000275e+02
2.630000000000000000e+02,5.485519399999999450e+02
2.640000000000000000e+02,5.489346900000000460e+02
2.650000000000000000e+02,5.493126200000000381e+02
2.660000000000000000e+02,5.496911599999999680e+02
2.670000000000000000e+02,5.500662200000000439e+02
2.680000000000000000e+02,5.504384199999999510e+02
2.690000000000000000e+02,5.508085899999999810e+02
2.700000000000000000e+02,5.511766400000000203e+02
2.710000000000000000e+02,5.515421800000000303e+02
2.720000000000000000e+02,5.519049700000000485e+02
2.730000000000000000e+02,5.522648900000000367e+02
2.740000000000000000e+02,5.526230500000000347e+02
2.750000000000000000e+02,5.529790600000000040e+02
2.760000000000000000e+02,5.533325200000000450e+02
2.770000000000000000e+02,5.536848099999999704e+02
2.780000000000000000e+02,5.540319799999999759e+02
2.790000000000000000e+02,5.543778700000000299e+02
2.800000000000000000e+02,5.547214999999999918e+02
2.810000000000000000e+02,5.550634800000000268e+02
2.820000000000000000e+02,5.554028299999999945e+02
2.830000000000000000e+02,5.557400499999999965e+02
2.840000000000000000e+02,5.560766599999999471e+02
2.850000000000000000e+02,5.564073499999999513e+02
2.860000000000000000e+02,5.567373700000000554e+02
2.870000000000000000e+02,5.570659200000000055e+02
2.880000000000000000e+02,5.573918499999999767e+02
2.890000000000000000e+02,5.577156400000000076e+02
2.900000000000000000e+02,5.580391799999999876e+02
2.910000000000000000e+02,5.583577900000000227e+02
2.920000000000000000e+02,5.586759600000000319e+02
2.930000000000000000e+02,5.589919999999999618e+02
2.940000000000000000e+02,5.593055399999999509e+02
2.950000000000000000e+02,5.596184100000000399e+02
2.960000000000000000e+02,5.599274900000000343e+02
2.970000000000000000e+02,5.602355999999999767e+02
2.980000000000000000e+02,5.605413800000000037e+02
2.990000000000000000e+02,5.608476600000000190e+02
3.000000000000000000e+02,5.611508199999999533e+02
3.010000000000000000e+02,5.614497699999999440e+02
3.020000000000000000e+02,5.617488399999999729e+02
3.030000000000000000e+02,5.620452299999999468e+02
3.040000000000000000e+02,5.623411899999999832e+02
3.050000000000000000e+02,5.626336099999999760e+02
3.060000000000000000e+02,5.629255399999999554e+02
3.070000000000000000e+02,5.632168599999999969e+02
3.080000000000000000e+02,5.635067699999999604e+02
3.090000000000000000e+02,5.637919299999999794e+02
3.100000000000000000e+02,5.640767799999999852e+02
3.110000000000000000e+02,5.643612699999999904e+02
3.120000000000000000e+02,5.646418499999999767e+02
3.130000000000000000e+02,5.649237100000000282e+02
3.140000000000000000e+02,5.652025800000000118e+02
3.150000000000000000e+02,5.654810800000000199e+02
3.160000000000000000e+02,5.657554900000000089e+02
3.170000000000000000e+02,5.660305200000000241e+02
3.180000000000000000e+02,5.663059100000000399e+02
3.190000000000000000e+02,5.665763500000000477e+02
3.200000000000000000e+02,5.668477799999999434e+02
3.210000000000000000e+02,5.671179799999999886e+02
3.220000000000000000e+02,5.673844000000000278e+02
3.230000000000000000e+02,5.676531400000000076e+02
3.240000000000000000e+02,5.679191299999999956e+02
3.250000000000000000e+02,5.681820099999999911e+02
3.260000000000000000e+02,5.684453700000000254e+02
3.270000000000000000e+02,5.687078199999999697e+02
3.280000000000000000e+02,5.689684399999999869e+02
3.290000000000000000e+02,5.692287599999999657e+02
3.300000000000000000e+02,5.694884600000000319e+02
3.310000000000000000e+02,5.697444500000000289e+02
3.320000000000000000e+02,5.700028700000000299e+02
3.330000000000000000e+02,5.702589699999999766e+02
3.340000000000000000e+02,5.705122099999999818e+02
3.350000000000000000e+02,5.707663000000000011e+02
3.360000000000000000e+02,5.710215500000000475e+02
3.370000000000000000e+02,5.712725799999999481e+02
3.380000000000000000e+02,5.715242299999999886e+02
3.390000000000000000e+02,5.717752699999999777e+02
3.400000000000000000e+02,5.720249599999999646e+02
3.410000000000000000e+02,5.722755100000000539e+02
3.420000000000000000e+02,5.725225799999999481e+02
3.430000000000000000e+02,5.727720900000000483e+02
3.440000000000000000e+02,5.730195899999999938e+02
3.450000000000000000e+02,5.732644000000000233e+02
3.460000000000000000e+02,5.735098299999999654e+02
3.470000000000000000e+02,5.737570200000000114e+02
3.480000000000000000e+02,5.740003699999999753e+02
3.490000000000000000e+02,5.742457900000000564e+02
3.500000000000000000e+02,5.744895000000000209e+02
3.510000000000000000e+02,5.747328499999999849e+02
3.520000000000000000e+02,5.749761399999999867e+02
3.530000000000000000e+02,5.752181399999999485e+02
3.540000000000000000e+02,5.754632599999999911e+02
3.550000000000000000e+02,5.757038000000000011e+02
3.560000000000000000e+02,5.759463500000000522e+02
3.570000000000000000e+02,5.761896400000000540e+02
3.580000000000000000e+02,5.764296900000000505e+02
3.590000000000000000e+02,5.766727300000000014e+02
3.600000000000000000e+02,5.769127799999999979e+02
3.610000000000000000e+02,5.771553999999999860e+02
3.620000000000000000e+02,5.773973999999999478e+02
3.630000000000000000e+02,5.776372699999999440e+02
3.640000000000000000e+02,5.778811600000000226e+02
3.650000000000000000e+02,5.781218900000000076e+02
3.660000000000000000e+02,5.783638899999999694e+02
3.670000000000000000e+02,5.786066299999999956e+02
3.680000000000000000e+02,5.788494299999999839e+02
3.690000000000000000e+02,5.790924099999999726e+02
3.700000000000000000e+02,5.793364299999999503e+02
3.710000000000000000e+02,5.795800799999999526e+02
3.720000000000000000e+02,5.798248899999999821e+02
3.730000000000000000e+02,5.800677500000000464e+02
3.740000000000000000e+02,5.803132299999999759e+02
3.750000000000000000e+02,5.805607899999999972e+02
3.760000000000000000e+02,5.808060299999999643e+02
3.770000000000000000e+02,5.810539599999999609e+02
3.780000000000000000e+02,5.813012700000000450e+02
3.790000000000000000e+02,5.815498000000000047e+02
3.800000000000000000e+02,5.818000500000000557e+02
3.810000000000000000e+02,5.820493199999999661e+02
3.820000000000000000e+02,5.823023100000000341e+02
3.830000000000000000e+02,5.825556599999999889e+02
3.840000000000000000e+02,5.828079800000000432e+02
3.850000000000000000e+02,5.830632900000000518e+02
3.860000000000000000e+02,5.833188499999999976e+02
3.870000000000000000e+02,5.835755599999999959e+02
3.880000000000000000e+02,5.838341699999999719e+02
3.890000000000000000e+02,5.840925300000000107e+02
3.900000000000000000e+02,5.843538200000000415e+02
3.910000000000000000e+02,5.846155999999999722e+02
3.920000000000000000e+02,5.848772000000000162e+02
3.930000000000000000e+02,5.851410499999999502e+02
3.940000000000000000e+02,5.854076499999999896e+02
3.950000000000000000e+02,5.856728500000000395e+02
3.960000000000000000e+02,5.859402499999999918e+02
3.970000000000000000e+02,5.862094100000000481e+02
3.980000000000000000e+02,5.864784499999999525e+02
3.990000000000000000e+02,5.867503100000000131e+02
