# Time [s], Temperature [C]
1.000000000000000000e+00,2.499997099999999861e+01
2.000000000000000000e+00,4.625778600000000296e+01
3.000000000000000000e+00,5.820226699999999909e+01
4.000000000000000000e+00,6.786698900000000378e+01
5.000000000000000000e+00,7.593290700000000015e+01
6.000000000000000000e+00,8.300878899999999305e+01
7.000000000000000000e+00,8.934654199999999946e+01
8.000000000000000000e+00,9.512236799999999448e+01
9.000000000000000000e+00,1.004475199999999973e+02
1.000000000000000000e+01,1.054016900000000021e+02
1.100000000000000000e+01,1.100441600000000051e+02
1.200000000000000000e+01,1.144190799999999939e+02
1.300000000000000000e+01,1.185613000000000028e+02
1.400000000000000000e+01,1.224988900000000029e+02
1.500000000000000000e+01,1.262543900000000008e+02
1.600000000000000000e+01,1.298467100000000016e+02
1.700000000000000000e+01,1.332920699999999954e+02
1.800000000000000000e+01,1.366030100000000118e+02
1.900000000000000000e+01,1.397917500000000075e+02
2.000000000000000000e+01,1.428682399999999859e+02
2.100000000000000000e+01,1.458403800000000103e+02
2.200000000000000000e+01,1.487161299999999926e+02
2.300000000000000000e+01,1.515025799999999947e+02
2.400000000000000000e+01,1.542052899999999909e+02
2.500000000000000000e+01,1.568297100000000057e+02
2.600000000000000000e+01,1.593808099999999968e+02
2.700000000000000000e+01,1.618628500000000088e+02
2.800000000000000000e+01,1.642788199999999961e+02
2.900000000000000000e+01,1.666340500000000020e+02
3.000000000000000000e+01,1.689304199999999980e+02
3.100000000000000000e+01,1.711711400000000083e+02
3.200000000000000000e+01,1.733597399999999880e+02
3.300000000000000000e+01,1.754977599999999995e+02
3.400000000000000000e+01,1.775878099999999904e+02
3.500000000000000000e+01,1.796329700000000003e+02
3.600000000000000000e+01,1.816338000000000079e+02
3.700000000000000000e+01,1.835926499999999919e+02
3.800000000000000000e+01,1.855121200000000101e+02
3.900000000000000000e+01,1.873931000000000040e+02
4.000000000000000000e+01,1.892367900000000134e+02
4.100000000000000000e+01,1.910458099999999888e+02
4.200000000000000000e+01,1.928203900000000033e+02
4.300000000000000000e+01,1.945616799999999955e+02
4.400000000000000000e+01,1.962723699999999951e+02
4.500000000000000000e+01,1.979517800000000136e+02
4.600000000000000000e+01,1.996021900000000073e+02
4.700000000000000000e+01,2.012246199999999874e+02
4.800000000000000000e+01,2.028190899999999885e+02
4.900000000000000000e+01,2.043873399999999947e+02
5.000000000000000000e+01,2.059305899999999951e+02
5.100000000000000000e+01,2.074488100000000088e+02
5.200000000000000000e+01,2.089429299999999898e+02
5.300000000000000000e+01,2.104145499999999913e+02
5.400000000000000000e+01,2.118633700000000033e+02
5.500000000000000000e+01,2.132907899999999870e+02
5.600000000000000000e+01,2.146975700000000131e+02
5.700000000000000000e+01,2.160834399999999960e+02
5.800000000000000000e+01,2.174497499999999945e+02
5.900000000000000000e+01,2.187973499999999945e+02
6.000000000000000000e+01,2.201261000000000081e+02
6.100000000000000000e+01,2.214367699999999957e+02
6.200000000000000000e+01,2.227306700000000035e+02
6.300000000000000000e+01,2.240071299999999894e+02
6.400000000000000000e+01,2.252673299999999870e+02
6.500000000000000000e+01,2.265116099999999904e+02
6.600000000000000000e+01,2.277405500000000131e+02
6.700000000000000000e+01,2.289544099999999958e+02
6.800000000000000000e+01,2.301541899999999998e+02
6.900000000000000000e+01,2.313395199999999932e+02
7.000000000000000000e+01,2.325109699999999862e+02
7.100000000000000000e+01,2.336691700000000083e+02
7.200000000000000000e+01,2.348143799999999999e+02
7.300000000000000000e+01,2.359469499999999869e+02
7.400000000000000000e+01,2.370675699999999892e+02
7.500000000000000000e+01,2.381762699999999882e+02
7.600000000000000000e+01,2.392733900000000062e+02
7.700000000000000000e+01,2.403593799999999874e+02
7.800000000000000000e+01,2.414341400000000135e+02
7.900000000000000000e+01,2.424983699999999942e+02
8.000000000000000000e+01,2.435523200000000088e+02
8.100000000000000000e+01,2.445959200000000067e+02
8.200000000000000000e+01,2.456300999999999988e+02
8.300000000000000000e+01,2.466545999999999879e+02
8.400000000000000000e+01,2.476694899999999961e+02
8.500000000000000000e+01,2.486757700000000000e+02
8.600000000000000000e+01,2.496730799999999988e+02
8.700000000000000000e+01,2.506616799999999898e+02
8.800000000000000000e+01,2.516417199999999923e+02
8.900000000000000000e+01,2.526138799999999947e+02
9.000000000000000000e+01,2.535777400000000057e+02
9.100000000000000000e+01,2.545336599999999976e+02
9.200000000000000000e+01,2.554823299999999904e+02
9.300000000000000000e+01,2.564227300000000014e+02
9.400000000000000000e+01,2.573561399999999821e+02
9.500000000000000000e+01,2.582821400000000267e+02
9.600000000000000000e+01,2.592012300000000096e+02
9.700000000000000000e+01,2.601129500000000121e+02
9.800000000000000000e+01,2.610181600000000230e+02
9.900000000000000000e+01,2.619166599999999789e+02
1.000000000000000000e+02,2.628081399999999803e+02
1.010000000000000000e+02,2.636935399999999845e+02
1.020000000000000000e+02,2.645721399999999903e+02
1.030000000000000000e+02,2.654442700000000173e+02
1.040000000000000000e+02,2.663105499999999779e+02
1.050000000000000000e+02,2.671706500000000233e+02
1.060000000000000000e+02,2.680243500000000267e+02
1.070000000000000000e+02,2.688722799999999893e+02
1.080000000000000000e+02,2.697144799999999805e+02
1.090000000000000000e+02,2.705507799999999747e+02
1.100000000000000000e+02,2.713817099999999982e+02
1.110000000000000000e+02,2.722065999999999804e+02
1.120000000000000000e+02,2.730260599999999727e+02
1.130000000000000000e+02,2.738403599999999756e+02
1.140000000000000000e+02,2.746492299999999886e+02
1.150000000000000000e+02,2.754527899999999931e+02
1.160000000000000000e+02,2.762513400000000274e+02
1.170000000000000000e+02,2.770445900000000279e+02
1.180000000000000000e+02,2.778325500000000261e+02
1.190000000000000000e+02,2.786159999999999854e+02
1.200000000000000000e+02,2.793944399999999746e+02
1.210000000000000000e+02,2.801680000000000064e+02
1.220000000000000000e+02,2.809369800000000055e+02
1.230000000000000000e+02,2.817012300000000096e+02
1.240000000000000000e+02,2.824609100000000126e+02
1.250000000000000000e+02,2.832163400000000024e+02
1.260000000000000000e+02,2.839672199999999975e+02
1.270000000000000000e+02,2.847137099999999919e+02
1.280000000000000000e+02,2.854560200000000236e+02
1.290000000000000000e+02,2.861941199999999981e+02
1.300000000000000000e+02,2.869277599999999779e+02
1.310000000000000000e+02,2.876574699999999893e+02
1.320000000000000000e+02,2.883830600000000004e+02
1.330000000000000000e+02,2.891045799999999986e+02
1.340000000000000000e+02,2.898222000000000094e+02
1.350000000000000000e+02,2.905363199999999892e+02
1.360000000000000000e+02,2.912461900000000128e+02
1.370000000000000000e+02,2.919522099999999796e+02
1.380000000000000000e+02,2.926544499999999971e+02
1.390000000000000000e+02,2.933529399999999896e+02
1.400000000000000000e+02,2.940479700000000207e+02
1.410000000000000000e+02,2.947390700000000265e+02
1.420000000000000000e+02,2.954266400000000203e+02
1.430000000000000000e+02,2.961108100000000150e+02
1.440000000000000000e+02,2.967914099999999848e+02
1.450000000000000000e+02,2.974682599999999866e+02
1.460000000000000000e+02,2.981415999999999826e+02
1.470000000000000000e+02,2.988117700000000241e+02
1.480000000000000000e+02,2.994784900000000221e+02
1.490000000000000000e+02,3.001414500000000203e+02
1.500000000000000000e+02,3.008010899999999879e+02
1.510000000000000000e+02,3.014575500000000261e+02
1.520000000000000000e+02,3.021101400000000012e+02
1.530000000000000000e+02,3.027600400000000036e+02
1.540000000000000000e+02,3.034063100000000190e+02
1.550000000000000000e+02,3.040490699999999720e+02
1.560000000000000000e+02,3.046889300000000276e+02
1.570000000000000000e+02,3.053255899999999770e+02
1.580000000000000000e+02,3.059584399999999960e+02
1.590000000000000000e+02,3.065884100000000103e+02
1.600000000000000000e+02,3.072152699999999754e+02
1.610000000000000000e+02,3.078385000000000105e+02
1.620000000000000000e+02,3.084585000000000150e+02
1.630000000000000000e+02,3.090757800000000088e+02
1.640000000000000000e+02,3.096888400000000274e+02
1.650000000000000000e+02,3.102991599999999721e+02
1.660000000000000000e+02,3.109068300000000136e+02
1.670000000000000000e+02,3.115101000000000226e+02
1.680000000000000000e+02,3.121108100000000150e+02
1.690000000000000000e+02,3.127085000000000150e+02
1.700000000000000000e+02,3.133022799999999961e+02
1.710000000000000000e+02,3.138930700000000229e+02
1.720000000000000000e+02,3.144813199999999824e+02
1.730000000000000000e+02,3.150650299999999788e+02
1.740000000000000000e+02,3.156465799999999717e+02
1.750000000000000000e+02,3.162246700000000033e+02
1.760000000000000000e+02,3.167988899999999717e+02
1.770000000000000000e+02,3.173702700000000050e+02
1.780000000000000000e+02,3.179387800000000084e+02
1.790000000000000000e+02,3.185029599999999732e+02
1.800000000000000000e+02,3.190644800000000032e+02
1.810000000000000000e+02,3.196233799999999974e+02
1.820000000000000000e+02,3.201771899999999960e+02
1.830000000000000000e+02,3.207291299999999978e+02
1.840000000000000000e+02,3.212778900000000135e+02
1.850000000000000000e+02,3.218218400000000088e+02
1.860000000000000000e+02,3.223636200000000258e+02
1.870000000000000000e+02,3.229023700000000190e+02
1.880000000000000000e+02,3.234361000000000104e+02
1.890000000000000000e+02,3.239679600000000050e+02
1.900000000000000000e+02,3.244967700000000264e+02
1.910000000000000000e+02,3.250201700000000073e+02
1.920000000000000000e+02,3.255418700000000172e+02
1.930000000000000000e+02,3.260602999999999838e+02
1.940000000000000000e+02,3.265735199999999736e+02
1.950000000000000000e+02,3.270847200000000043e+02
1.960000000000000000e+02,3.275930799999999863e+02
1.970000000000000000e+02,3.280957599999999843e+02
1.980000000000000000e+02,3.285966500000000110e+02
1.990000000000000000e+02,3.290948500000000081e+02
2.000000000000000000e+02,3.295868199999999888e+02
2.010000000000000000e+02,3.300773899999999799e+02
2.020000000000000000e+02,3.305652799999999729e+02
2.030000000000000000e+02,3.310467499999999745e+02
2.040000000000000000e+02,3.315267000000000053e+02
2.050000000000000000e+02,3.320042399999999816e+02
2.060000000000000000e+02,3.324750999999999976e+02
2.070000000000000000e+02,3.329447900000000118e+02
2.080000000000000000e+02,3.334119000000000028e+02
2.090000000000000000e+02,3.338718299999999886e+02
2.100000000000000000e+02,3.343310500000000047e+02
2.110000000000000000e+02,3.347878099999999790e+02
2.120000000000000000e+02,3.352372100000000046e+02
2.130000000000000000e+02,3.356861599999999726e+02
2.140000000000000000e+02,3.361326000000000249e+02
2.150000000000000000e+02,3.365711999999999762e+02
2.160000000000000000e+02,3.370095800000000281e+02
2.170000000000000000e+02,3.374457699999999818e+02
2.180000000000000000e+02,3.378739899999999921e+02
2.190000000000000000e+02,3.383023400000000152e+02
2.200000000000000000e+02,3.387280900000000088e+02
2.210000000000000000e+02,3.391458400000000211e+02
2.220000000000000000e+02,3.395639600000000087e+02
2.230000000000000000e+02,3.399798299999999927e+02
2.240000000000000000e+02,3.403872700000000009e+02
2.250000000000000000e+02,3.407954700000000230e+02
2.260000000000000000e+02,3.412014500000000226e+02
2.270000000000000000e+02,3.415983899999999949e+02
2.280000000000000000e+02,3.419966099999999756e+02
2.290000000000000000e+02,3.423929099999999721e+02
2.300000000000000000e+02,3.427801799999999730e+02
2.310000000000000000e+02,3.431688500000000204e+02
2.320000000000000000e+02,3.435556000000000267e+02
2.330000000000000000e+02,3.439331700000000183e+02
2.340000000000000000e+02,3.443125000000000000e+02
2.350000000000000000e+02,3.446900899999999979e+02
2.360000000000000000e+02,3.450581399999999803e+02
2.370000000000000000e+02,3.454283800000000042e+02
2.380000000000000000e+02,3.457970000000000255e+02
2.390000000000000000e+02,3.461557300000000055e+02
2.400000000000000000e+02,3.465171199999999772e+02
2.410000000000000000e+02,3.468771100000000160e+02
2.420000000000000000e+02,3.472270500000000197e+02
2.430000000000000000e+02,3.475799600000000282e+02
2.440000000000000000e+02,3.479318200000000161e+02
2.450000000000000000e+02,3.482731600000000185e+02
2.460000000000000000e+02,3.486179200000000264e+02
2.470000000000000000e+02,3.489616100000000074e+02
2.480000000000000000e+02,3.492948600000000283e+02
2.490000000000000000e+02,3.496318099999999731e+02
2.500000000000000000e+02,3.499678599999999733e+02
2.510000000000000000e+02,3.502932700000000068e+02
2.520000000000000000e+02,3.506229900000000157e+02
2.530000000000000000e+02,3.509519000000000233e+02
2.540000000000000000e+02,3.512699600000000260e+02
2.550000000000000000e+02,3.515923799999999915e+02
2.560000000000000000e+02,3.519142800000000193e+02
2.570000000000000000e+02,3.522251600000000167e+02
2.580000000000000000e+02,3.525411100000000033e+02
2.590000000000000000e+02,3.528563199999999824e+02
2.600000000000000000e+02,3.531605799999999817e+02
2.610000000000000000e+02,3.534702500000000214e+02
2.620000000000000000e+02,3.537794799999999782e+02
2.630000000000000000e+02,3.540777299999999741e+02
2.640000000000000000e+02,3.543811000000000035e+02
2.650000000000000000e+02,3.546845700000000079e+02
2.660000000000000000e+02,3.549767200000000003e+02
2.670000000000000000e+02,3.552751499999999965e+02
2.680000000000000000e+02,3.555730599999999981e+02
2.690000000000000000e+02,3.558596800000000258e+02
2.700000000000000000e+02,3.561523099999999999e+02
2.710000000000000000e+02,3.564454700000000003e+02
2.720000000000000000e+02,3.567270500000000197e+02
2.730000000000000000e+02,3.570149499999999989e+02
2.740000000000000000e+02,3.573030999999999722e+02
2.750000000000000000e+02,3.575800199999999904e+02
2.760000000000000000e+02,3.578634299999999939e+02
2.770000000000000000e+02,3.581472499999999854e+02
2.780000000000000000e+02,3.584198000000000093e+02
2.790000000000000000e+02,3.586987300000000118e+02
2.800000000000000000e+02,3.589787000000000035e+02
2.810000000000000000e+02,3.592468000000000075e+02
2.820000000000000000e+02,3.595221900000000232e+02
2.830000000000000000e+02,3.597978800000000206e+02
2.840000000000000000e+02,3.600625299999999811e+02
2.850000000000000000e+02,3.603343499999999722e+02
2.860000000000000000e+02,3.606064799999999764e+02
2.870000000000000000e+02,3.608671600000000126e+02
2.880000000000000000e+02,3.611358599999999797e+02
2.890000000000000000e+02,3.614047899999999913e+02
2.900000000000000000e+02,3.616623500000000035e+02
2.910000000000000000e+02,3.619276399999999967e+02
2.920000000000000000e+02,3.621940000000000168e+02
2.930000000000000000e+02,3.624484600000000114e+02
2.940000000000000000e+02,3.627109100000000126e+02
2.950000000000000000e+02,3.629744600000000219e+02
2.960000000000000000e+02,3.632262000000000057e+02
2.970000000000000000e+02,3.634856300000000147e+02
2.980000000000000000e+02,3.637467300000000137e+02
2.990000000000000000e+02,3.639959400000000187e+02
3.000000000000000000e+02,3.642529599999999732e+02
3.010000000000000000e+02,3.645117200000000253e+02
3.020000000000000000e+02,3.647585799999999949e+02
3.030000000000000000e+02,3.650136400000000094e+02
3.040000000000000000e+02,3.652696199999999749e+02
3.050000000000000000e+02,3.655145600000000172e+02
3.060000000000000000e+02,3.657674600000000282e+02
3.070000000000000000e+02,3.660213899999999967e+02
3.080000000000000000e+02,3.662644000000000233e+02
3.090000000000000000e+02,3.665152899999999931e+02
3.100000000000000000e+02,3.667672699999999963e+02
3.110000000000000000e+02,3.670084200000000010e+02
3.120000000000000000e+02,3.672574799999999868e+02
3.130000000000000000e+02,3.675076300000000060e+02
3.140000000000000000e+02,3.677470999999999890e+02
3.150000000000000000e+02,3.679948099999999727e+02
3.160000000000000000e+02,3.682428899999999885e+02
3.170000000000000000e+02,3.684810800000000199e+02
3.180000000000000000e+02,3.687264999999999873e+02
3.190000000000000000e+02,3.689731800000000135e+02
3.200000000000000000e+02,3.692099000000000046e+02
3.210000000000000000e+02,3.694538000000000011e+02
3.220000000000000000e+02,3.696988799999999742e+02
3.230000000000000000e+02,3.699342700000000264e+02
3.240000000000000000e+02,3.701766700000000014e+02
3.250000000000000000e+02,3.704205900000000042e+02
3.260000000000000000e+02,3.706545100000000161e+02
3.270000000000000000e+02,3.708953599999999824e+02
3.280000000000000000e+02,3.711377299999999764e+02
3.290000000000000000e+02,3.713704799999999864e+02
3.300000000000000000e+02,3.716099500000000262e+02
3.310000000000000000e+02,3.718507999999999925e+02
3.320000000000000000e+02,3.720823399999999879e+02
3.330000000000000000e+02,3.723208000000000197e+02
3.340000000000000000e+02,3.725600600000000213e+02
3.350000000000000000e+02,3.727904100000000085e+02
3.360000000000000000e+02,3.730274699999999939e+02
3.370000000000000000e+02,3.732654400000000123e+02
3.380000000000000000e+02,3.734950600000000236e+02
3.390000000000000000e+02,3.737300399999999740e+02
3.400000000000000000e+02,3.739669200000000160e+02
3.410000000000000000e+02,3.741953100000000063e+02
3.420000000000000000e+02,3.744295999999999935e+02
3.430000000000000000e+02,3.746651299999999765e+02
3.440000000000000000e+02,3.748916600000000017e+02
3.450000000000000000e+02,3.751248499999999808e+02
3.460000000000000000e+02,3.753589200000000119e+02
3.470000000000000000e+02,3.755847800000000234e+02
3.480000000000000000e+02,3.758166200000000003e+02
3.490000000000000000e+02,3.760485800000000154e+02
3.500000000000000000e+02,3.762737700000000132e+02
3.510000000000000000e+02,3.765042100000000005e+02
3.520000000000000000e+02,3.767352300000000014e+02
3.530000000000000000e+02,3.769592599999999720e+02
3.540000000000000000e+02,3.771875900000000001e+02
3.550000000000000000e+02,3.774179700000000253e+02
3.560000000000000000e+02,3.776400800000000118e+02
3.570000000000000000e+02,3.778678899999999885e+02
3.580000000000000000e+02,3.780963399999999979e+02
3.590000000000000000e+02,3.783171399999999949e+02
3.600000000000000000e+02,3.785438800000000015e+02
3.610000000000000000e+02,3.787700800000000072e+02
3.620000000000000000e+02,3.789905699999999911e+02
3.630000000000000000e+02,3.792153900000000135e+02
3.640000000000000000e+02,3.794399399999999787e+02
3.650000000000000000e+02,3.796596099999999865e+02
3.660000000000000000e+02,3.798822000000000116e+02
3.670000000000000000e+02,3.801066000000000145e+02
3.680000000000000000e+02,3.803237599999999929e+02
3.690000000000000000e+02,3.805461099999999988e+02
3.700000000000000000e+02,3.807676999999999907e+02
3.710000000000000000e+02,3.809836999999999989e+02
3.720000000000000000e+02,3.812043800000000147e+02
3.730000000000000000e+02,3.814243500000000040e+02
3.740000000000000000e+02,3.816400499999999738e+02
3.750000000000000000e+02,3.818579100000000039e+02
3.760000000000000000e+02,3.820774499999999989e+02
3.770000000000000000e+02,3.822904700000000275e+02
3.780000000000000000e+02,3.825068699999999922e+02
3.790000000000000000e+02,3.827245500000000220e+02
3.800000000000000000e+02,3.829361599999999726e+02
3.810000000000000000e+02,3.831520100000000184e+02
3.820000000000000000e+02,3.833668200000000184e+02
3.830000000000000000e+02,3.835781900000000064e+02
3.840000000000000000e+02,3.837910200000000032e+02
3.850000000000000000e+02,3.840046100000000138e+02
3.860000000000000000e+02,3.842135299999999916e+02
3.870000000000000000e+02,3.844253499999999804e+02
3.880000000000000000e+02,3.846370200000000068e+02
3.890000000000000000e+02,3.848447600000000079e+02
3.900000000000000000e+02,3.850545299999999997e+02
3.910000000000000000e+02,3.852642799999999852e+02
3.920000000000000000e+02,3.854701499999999896e+02
3.930000000000000000e+02,3.856781300000000101e+02
3.940000000000000000e+02,3.858861999999999739e+02
3.950000000000000000e+02,3.860903000000000134e+02
3.960000000000000000e+02,3.862966299999999933e+02
3.970000000000000000e+02,3.865026599999999917e+02
3.980000000000000000e+02,3.867053500000000099e+02
3.990000000000000000e+02,3.869095500000000243e+02
