# Time [s], Convective Heat Transfer Coefficient [W/m2K]
1.000000000000000000e+00,0.000000000000000000e+00
2.000000000000000000e+00,0.000000000000000000e+00
3.000000000000000000e+00,0.000000000000000000e+00
4.000000000000000000e+00,0.000000000000000000e+00
5.000000000000000000e+00,1.915079995362458862e-02
6.000000000000000000e+00,3.574028725257893252e-02
7.000000000000000000e+00,5.917354552135824924e-02
8.000000000000000000e+00,8.889013924160209246e-02
9.000000000000000000e+00,1.267611739140729332e-01
1.000000000000000000e+01,1.727895684146384947e-01
1.100000000000000000e+01,2.267319233255974120e-01
1.200000000000000000e+01,2.879413090279433485e-01
1.300000000000000000e+01,3.556346166557569077e-01
1.400000000000000000e+01,4.289343530878738098e-01
1.500000000000000000e+01,5.069536152349597424e-01
1.600000000000000000e+01,5.888597765398126960e-01
1.700000000000000000e+01,6.738777417919611379e-01
1.800000000000000000e+01,7.613231351282513382e-01
1.900000000000000000e+01,8.505969367846812901e-01
2.000000000000000000e+01,9.411831676151701798e-01
2.100000000000000000e+01,1.032642538948613131e+00
2.200000000000000000e+01,1.124601961725560262e+00
2.300000000000000000e+01,1.216750827967105764e+00
2.400000000000000000e+01,1.308822934659468418e+00
2.500000000000000000e+01,1.400600630877895103e+00
2.600000000000000000e+01,1.491903973119515614e+00
2.700000000000000000e+01,1.582582752053723008e+00
2.800000000000000000e+01,1.672515719700466086e+00
2.900000000000000000e+01,1.761599776824662733e+00
3.000000000000000000e+01,1.849758813883652486e+00
3.100000000000000000e+01,1.936931027549201545e+00
3.200000000000000000e+01,2.023062314704109799e+00
3.300000000000000000e+01,2.108117629529673298e+00
3.400000000000000000e+01,2.192068804134368332e+00
3.500000000000000000e+01,2.274894662673802248e+00
3.600000000000000000e+01,2.356581916612362271e+00
3.700000000000000000e+01,2.437124341016821294e+00
3.800000000000000000e+01,2.516518579114437770e+00
3.900000000000000000e+01,2.594766363999660985e+00
4.000000000000000000e+01,2.671873318411056797e+00
4.100000000000000000e+01,2.747848401771253446e+00
4.200000000000000000e+01,2.822701737964900648e+00
4.300000000000000000e+01,2.896446988970298175e+00
4.400000000000000000e+01,2.969094946025240045e+00
4.500000000000000000e+01,3.040661309464281370e+00
4.600000000000000000e+01,3.111165153236544523e+00
4.700000000000000000e+01,3.180618866932824140e+00
4.800000000000000000e+01,3.249043568833113405e+00
4.900000000000000000e+01,3.316454337132154873e+00
5.000000000000000000e+01,3.382870761436313600e+00
5.100000000000000000e+01,3.448312839167084309e+00
5.200000000000000000e+01,3.512795017537342357e+00
5.300000000000000000e+01,3.576336607137749368e+00
5.400000000000000000e+01,3.638957088446592270e+00
5.500000000000000000e+01,3.700674916480606758e+00
5.600000000000000000e+01,3.761506895611286705e+00
5.700000000000000000e+01,3.821472650405262073e+00
5.800000000000000000e+01,3.880589820986316330e+00
5.900000000000000000e+01,3.938874486930911800e+00
6.000000000000000000e+01,3.996343358240031840e+00
6.100000000000000000e+01,4.053013683264948597e+00
6.200000000000000000e+01,4.108902344695980702e+00
6.300000000000000000e+01,4.164024698063895968e+00
6.400000000000000000e+01,4.218396619253095281e+00
6.500000000000000000e+01,4.272033362801537670e+00
6.600000000000000000e+01,4.324949779733033850e+00
6.700000000000000000e+01,4.377161546235780243e+00
6.800000000000000000e+01,4.428683061475933158e+00
6.900000000000000000e+01,4.479528958663738791e+00
7.000000000000000000e+01,4.529713649686628152e+00
7.100000000000000000e+01,4.579248139901903158e+00
7.200000000000000000e+01,4.628145608288646962e+00
7.300000000000000000e+01,4.676420304385584537e+00
7.400000000000000000e+01,4.724084378414574736e+00
7.500000000000000000e+01,4.771151258175647669e+00
7.600000000000000000e+01,4.817629860957657328e+00
7.700000000000000000e+01,4.863533812090688357e+00
7.800000000000000000e+01,4.908875604893950140e+00
7.900000000000000000e+01,4.953664449491363975e+00
8.000000000000000000e+01,4.997910863386201719e+00
8.100000000000000000e+01,5.041626501697787255e+00
8.200000000000000000e+01,5.084820882679809806e+00
8.300000000000000000e+01,5.127503783747797250e+00
8.400000000000000000e+01,5.169685826025014030e+00
8.500000000000000000e+01,5.211375986764381629e+00
8.600000000000000000e+01,5.252584056083788866e+00
8.700000000000000000e+01,5.293318354853140839e+00
8.800000000000000000e+01,5.333587486805989819e+00
8.900000000000000000e+01,5.373402015815799793e+00
9.000000000000000000e+01,5.412767727382645333e+00
9.100000000000000000e+01,5.451694907053388661e+00
9.200000000000000000e+01,5.490190137796792769e+00
9.300000000000000000e+01,5.528261991613963922e+00
9.400000000000000000e+01,5.565917453681919369e+00
9.500000000000000000e+01,5.603163778218624991e+00
9.600000000000000000e+01,5.640009020741737267e+00
9.700000000000000000e+01,5.676460241228078907e+00
9.800000000000000000e+01,5.712523673356701970e+00
9.900000000000000000e+01,5.748206900029254385e+00
1.000000000000000000e+02,5.783515550093825119e+00
1.010000000000000000e+02,5.818457598697487576e+00
1.020000000000000000e+02,5.853037316312851068e+00
1.030000000000000000e+02,5.887262170827741947e+00
1.040000000000000000e+02,5.921137234554171513e+00
1.050000000000000000e+02,5.954669115505489607e+00
1.060000000000000000e+02,5.987863161795573319e+00
1.070000000000000000e+02,6.020725726213134621e+00
1.080000000000000000e+02,6.053261204757240499e+00
1.090000000000000000e+02,6.085475459157970057e+00
1.100000000000000000e+02,6.117373487790667141e+00
1.110000000000000000e+02,6.148960677548970466e+00
1.120000000000000000e+02,6.180241619495300931e+00
1.130000000000000000e+02,6.211222272609320250e+00
1.140000000000000000e+02,6.241906531531034474e+00
1.150000000000000000e+02,6.272298856086973018e+00
1.160000000000000000e+02,6.302404892461935582e+00
1.170000000000000000e+02,6.332227768250796807e+00
1.180000000000000000e+02,6.361772577280548902e+00
1.190000000000000000e+02,6.391043509438159020e+00
1.200000000000000000e+02,6.420045169989156086e+00
1.210000000000000000e+02,6.448781125744504017e+00
1.220000000000000000e+02,6.477255708835533810e+00
1.230000000000000000e+02,6.505472434683844618e+00
1.240000000000000000e+02,6.533435792409371778e+00
1.250000000000000000e+02,6.561149028511967352e+00
1.260000000000000000e+02,6.588616356420426534e+00
1.270000000000000000e+02,6.615841312197879631e+00
1.280000000000000000e+02,6.642826782514094752e+00
1.290000000000000000e+02,6.669577136169029252e+00
1.300000000000000000e+02,6.696095554829516239e+00
1.310000000000000000e+02,6.722385634242192154e+00
1.320000000000000000e+02,6.748450083310382652e+00
1.330000000000000000e+02,6.774292543858894788e+00
1.340000000000000000e+02,6.799915530355565174e+00
1.350000000000000000e+02,6.825322985105981566e+00
1.360000000000000000e+02,6.850517232685437108e+00
1.370000000000000000e+02,6.875501763148409218e+00
1.380000000000000000e+02,6.900278977656567392e+00
1.390000000000000000e+02,6.924851936325134183e+00
1.400000000000000000e+02,6.949223850496210275e+00
1.410000000000000000e+02,6.973397114987139211e+00
1.420000000000000000e+02,6.997374531853025381e+00
1.430000000000000000e+02,7.021158821887540036e+00
1.440000000000000000e+02,7.044752391803424274e+00
1.450000000000000000e+02,7.068158282191678410e+00
1.460000000000000000e+02,7.091378052004827737e+00
1.470000000000000000e+02,7.114414833487519019e+00
1.480000000000000000e+02,7.137270754108929971e+00
1.490000000000000000e+02,7.159948338884246866e+00
1.500000000000000000e+02,7.182449363557987354e+00
1.510000000000000000e+02,7.204777133221589303e+00
1.520000000000000000e+02,7.226932401260131478e+00
1.530000000000000000e+02,7.248918793740799060e+00
1.540000000000000000e+02,7.270737630104291860e+00
1.550000000000000000e+02,7.292391294080438513e+00
1.560000000000000000e+02,7.313882327151530305e+00
1.570000000000000000e+02,7.335211031101266599e+00
1.580000000000000000e+02,7.356380940544906544e+00
1.590000000000000000e+02,7.377393783881811551e+00
1.600000000000000000e+02,7.398251245740731008e+00
1.610000000000000000e+02,7.418955181044202263e+00
1.620000000000000000e+02,7.439507610470696086e+00
1.630000000000000000e+02,7.459909874735783042e+00
1.640000000000000000e+02,7.480163908505644166e+00
1.650000000000000000e+02,7.500271808400617246e+00
1.660000000000000000e+02,7.520235000985671547e+00
1.670000000000000000e+02,7.540055496052731066e+00
1.680000000000000000e+02,7.559734232931153208e+00
1.690000000000000000e+02,7.579272942302262450e+00
1.700000000000000000e+02,7.598673720563839495e+00
1.710000000000000000e+02,7.617937810518388808e+00
1.720000000000000000e+02,7.637066225129114372e+00
1.730000000000000000e+02,7.656061550699734042e+00
1.740000000000000000e+02,7.674924331182771731e+00
1.750000000000000000e+02,7.693656875733901224e+00
1.760000000000000000e+02,7.712259476758243082e+00
1.770000000000000000e+02,7.730733984050513818e+00
1.780000000000000000e+02,7.749082403268206853e+00
1.790000000000000000e+02,7.767305146253991488e+00
1.800000000000000000e+02,7.785403772125846444e+00
1.810000000000000000e+02,7.803379999625271957e+00
1.820000000000000000e+02,7.821234172757138836e+00
1.830000000000000000e+02,7.838968530550865843e+00
1.840000000000000000e+02,7.856584130239417263e+00
1.850000000000000000e+02,7.874081251423856287e+00
1.860000000000000000e+02,7.891461668943793306e+00
1.870000000000000000e+02,7.908727122989613889e+00
1.880000000000000000e+02,7.925877642992106509e+00
1.890000000000000000e+02,7.942914367683465038e+00
1.900000000000000000e+02,7.959839151922605716e+00
1.910000000000000000e+02,7.976652895920391728e+00
1.920000000000000000e+02,7.993356115049872201e+00
1.930000000000000000e+02,8.009950042597539621e+00
1.940000000000000000e+02,8.026435706516252822e+00
1.950000000000000000e+02,8.042814657596183636e+00
1.960000000000000000e+02,8.059086615969681233e+00
1.970000000000000000e+02,8.075253457216286179e+00
1.980000000000000000e+02,8.091315593453455079e+00
1.990000000000000000e+02,8.107274851940507787e+00
2.000000000000000000e+02,8.123130721999226367e+00
2.010000000000000000e+02,8.138884995124056942e+00
2.020000000000000000e+02,8.154538375914366810e+00
2.030000000000000000e+02,8.170092081312999355e+00
2.040000000000000000e+02,8.185545734489585001e+00
2.050000000000000000e+02,8.200900701835911022e+00
2.060000000000000000e+02,8.216158152993816799e+00
2.070000000000000000e+02,8.231318891868349752e+00
2.080000000000000000e+02,8.246383879854368715e+00
2.090000000000000000e+02,8.261352517886196622e+00
2.100000000000000000e+02,8.276226434377525365e+00
2.110000000000000000e+02,8.291005698961830817e+00
2.120000000000000000e+02,8.305691904668233150e+00
2.130000000000000000e+02,8.320285266550358827e+00
2.140000000000000000e+02,8.334787510476255434e+00
2.150000000000000000e+02,8.349197984739131329e+00
2.160000000000000000e+02,8.363517550052581129e+00
2.170000000000000000e+02,8.377746885888306849e+00
2.180000000000000000e+02,8.391886659834831619e+00
2.190000000000000000e+02,8.405937362185456507e+00
2.200000000000000000e+02,8.419899639168395566e+00
2.210000000000000000e+02,8.433774125836842828e+00
2.220000000000000000e+02,8.447561446304574062e+00
2.230000000000000000e+02,8.461262213975077273e+00
2.240000000000000000e+02,8.474876542814916647e+00
2.250000000000000000e+02,8.488405192605576133e+00
2.260000000000000000e+02,8.501848587011012981e+00
2.270000000000000000e+02,8.515207787576818177e+00
2.280000000000000000e+02,8.528482713484027755e+00
2.290000000000000000e+02,8.541674084623483765e+00
2.300000000000000000e+02,8.554781969711791945e+00
2.310000000000000000e+02,8.567807390918755317e+00
2.320000000000000000e+02,8.580750401637478930e+00
2.330000000000000000e+02,8.593611844700310698e+00
2.340000000000000000e+02,8.606391760236411059e+00
2.350000000000000000e+02,8.619090658174444641e+00
2.360000000000000000e+02,8.631709354237282028e+00
2.370000000000000000e+02,8.644247555619131163e+00
2.380000000000000000e+02,8.656706220136129559e+00
2.390000000000000000e+02,8.669085513394378495e+00
2.400000000000000000e+02,8.681386062681998084e+00
2.410000000000000000e+02,8.693608021165593058e+00
2.420000000000000000e+02,8.705752001276321650e+00
2.430000000000000000e+02,8.717818452245717609e+00
2.440000000000000000e+02,8.729807047988904500e+00
2.450000000000000000e+02,8.741718842283917823e+00
2.460000000000000000e+02,8.753553958491389508e+00
2.470000000000000000e+02,8.765312516313359836e+00
2.480000000000000000e+02,8.776995391611775332e+00
2.490000000000000000e+02,8.788602539314945616e+00
2.500000000000000000e+02,8.800134668308276176e+00
2.510000000000000000e+02,8.811590970129513423e+00
2.520000000000000000e+02,8.822973198763525815e+00
2.530000000000000000e+02,8.834280987989270528e+00
2.540000000000000000e+02,8.845515169941434053e+00
2.550000000000000000e+02,8.856675222966950756e+00
2.560000000000000000e+02,8.867761968129217465e+00
2.570000000000000000e+02,8.878775622072817342e+00
2.580000000000000000e+02,8.889716248924916187e+00
2.590000000000000000e+02,8.900584648754794159e+00
2.600000000000000000e+02,8.911380874575293376e+00
2.610000000000000000e+02,8.922105270774316921e+00
2.620000000000000000e+02,8.932757589411279397e+00
2.630000000000000000e+02,8.943338753515879702e+00
2.640000000000000000e+02,8.953848799123697688e+00
2.650000000000000000e+02,8.964288051080878006e+00
2.660000000000000000e+02,8.974656829021922633e+00
2.670000000000000000e+02,8.984955012442515709e+00
2.680000000000000000e+02,8.995183637134003263e+00
2.690000000000000000e+02,9.005342139511400390e+00
2.700000000000000000e+02,9.015431111083152871e+00
2.710000000000000000e+02,9.025450704789857781e+00
2.720000000000000000e+02,9.035401356832526432e+00
2.730000000000000000e+02,9.045283068204357235e+00
2.740000000000000000e+02,9.055096266036192887e+00
2.750000000000000000e+02,9.064841229166068715e+00
2.760000000000000000e+02,9.074517947602144474e+00
2.770000000000000000e+02,9.084126693013116594e+00
2.780000000000000000e+02,9.093667874200070500e+00
2.790000000000000000e+02,9.103141470638353994e+00
2.800000000000000000e+02,9.112547741797886403e+00
2.810000000000000000e+02,9.121886802212317846e+00
2.820000000000000000e+02,9.131159044158202676e+00
2.830000000000000000e+02,9.140364854629865476e+00
2.840000000000000000e+02,9.149504056088266779e+00
2.850000000000000000e+02,9.158577028545352050e+00
2.860000000000000000e+02,9.167583589784323195e+00
2.870000000000000000e+02,9.176523973953630176e+00
2.880000000000000000e+02,9.185398827509429154e+00
2.890000000000000000e+02,9.194208097458128393e+00
2.900000000000000000e+02,9.202951867355318782e+00
2.910000000000000000e+02,9.211630080090554173e+00
2.920000000000000000e+02,9.220243089986245977e+00
2.930000000000000000e+02,9.228791246642115809e+00
2.940000000000000000e+02,9.237274346250179846e+00
2.950000000000000000e+02,9.245692595242351430e+00
2.960000000000000000e+02,9.254046333165325322e+00
2.970000000000000000e+02,9.262335349260771622e+00
2.980000000000000000e+02,9.270560113232692245e+00
2.990000000000000000e+02,9.278720409558250282e+00
3.000000000000000000e+02,9.286816700804454427e+00
3.010000000000000000e+02,9.294848902273406210e+00
3.020000000000000000e+02,9.302817198313807268e+00
3.030000000000000000e+02,9.310721229812632060e+00
3.040000000000000000e+02,9.318561581651639614e+00
3.050000000000000000e+02,9.326338428963540039e+00
3.060000000000000000e+02,9.334051809296505908e+00
3.070000000000000000e+02,9.341701221331659255e+00
3.080000000000000000e+02,9.349287504158043660e+00
3.090000000000000000e+02,9.356810018583132660e+00
3.100000000000000000e+02,9.364269595863634166e+00
3.110000000000000000e+02,9.371666126916279538e+00
3.120000000000000000e+02,9.378999368208580378e+00
3.130000000000000000e+02,9.386269208514365303e+00
3.140000000000000000e+02,9.393476331185039996e+00
3.150000000000000000e+02,9.400620353599942192e+00
3.160000000000000000e+02,9.407701951488455450e+00
3.170000000000000000e+02,9.414720341711847240e+00
3.180000000000000000e+02,9.421676062418416819e+00
3.190000000000000000e+02,9.428568856411592591e+00
3.200000000000000000e+02,9.435399517805764802e+00
3.210000000000000000e+02,9.442167258444504441e+00
3.220000000000000000e+02,9.448872603724003838e+00
3.230000000000000000e+02,9.455515681173363163e+00
3.240000000000000000e+02,9.462096354023824318e+00
3.250000000000000000e+02,9.468614875874335368e+00
3.260000000000000000e+02,9.475070714496572677e+00
3.270000000000000000e+02,9.481465031226353091e+00
3.280000000000000000e+02,9.487797028456776971e+00
3.290000000000000000e+02,9.494067079556060662e+00
3.300000000000000000e+02,9.500275035024035475e+00
3.310000000000000000e+02,9.506421262160936081e+00
3.320000000000000000e+02,9.512505736175887350e+00
3.330000000000000000e+02,9.518528817916964258e+00
3.340000000000000000e+02,9.524490348164071918e+00
3.350000000000000000e+02,9.530390166406814245e+00
3.360000000000000000e+02,9.536228883163717640e+00
3.370000000000000000e+02,9.542006203915249785e+00
3.380000000000000000e+02,9.547722603959792664e+00
3.390000000000000000e+02,9.553378041202419624e+00
3.400000000000000000e+02,9.558972599788299718e+00
3.410000000000000000e+02,9.564506617323578652e+00
3.420000000000000000e+02,9.569979916529543829e+00
3.430000000000000000e+02,9.575393340252446706e+00
3.440000000000000000e+02,9.580746195146701893e+00
3.450000000000000000e+02,9.586039317578849861e+00
3.460000000000000000e+02,9.591272265699563704e+00
3.470000000000000000e+02,9.596445614452814965e+00
3.480000000000000000e+02,9.601559045444576057e+00
3.490000000000000000e+02,9.606613761733747481e+00
3.500000000000000000e+02,9.611609692222392809e+00
3.510000000000000000e+02,9.616546384402862913e+00
3.520000000000000000e+02,9.621424776625710606e+00
3.530000000000000000e+02,9.626245043522567713e+00
3.540000000000000000e+02,9.631007357096475374e+00
3.550000000000000000e+02,9.635711382434582362e+00
3.560000000000000000e+02,9.640358295481489037e+00
3.570000000000000000e+02,9.644948007385609756e+00
3.580000000000000000e+02,9.649480804917521581e+00
3.590000000000000000e+02,9.653957223111293118e+00
3.600000000000000000e+02,9.658377542205478505e+00
3.610000000000000000e+02,9.662742039597755905e+00
3.620000000000000000e+02,9.667051365672231000e+00
3.630000000000000000e+02,9.671305290661210918e+00
3.640000000000000000e+02,9.675503958969764895e+00
3.650000000000000000e+02,9.679648762102409876e+00
3.660000000000000000e+02,9.683739587120784975e+00
3.670000000000000000e+02,9.687777192874845511e+00
3.680000000000000000e+02,9.691761586283098140e+00
3.690000000000000000e+02,9.695693270694182075e+00
3.700000000000000000e+02,9.699572497354891354e+00
3.710000000000000000e+02,9.703400385386819593e+00
3.720000000000000000e+02,9.707176682308393367e+00
3.730000000000000000e+02,9.710902376218845333e+00
3.740000000000000000e+02,9.714577830477781006e+00
3.750000000000000000e+02,9.718203281921541148e+00
3.760000000000000000e+02,9.721779956068324680e+00
3.770000000000000000e+02,9.725307464458733619e+00
3.780000000000000000e+02,9.728786407779550061e+00
3.790000000000000000e+02,9.732218372337175794e+00
3.800000000000000000e+02,9.735602592057661653e+00
3.810000000000000000e+02,9.738940523240113833e+00
3.820000000000000000e+02,9.742284431381719401e+00
3.830000000000000000e+02,9.745555668834921192e+00
3.840000000000000000e+02,9.748775443430325538e+00
3.850000000000000000e+02,9.751950257103857211e+00
3.860000000000000000e+02,9.755080688984486770e+00
3.870000000000000000e+02,9.758167684353328042e+00
3.880000000000000000e+02,9.761213167838949545e+00
3.890000000000000000e+02,9.764216848152617700e+00
3.900000000000000000e+02,9.767180274314833710e+00
3.910000000000000000e+02,9.770103273737287708e+00
3.920000000000000000e+02,9.772986776344151139e+00
3.930000000000000000e+02,9.775831586445862698e+00
3.940000000000000000e+02,9.778637648650171599e+00
3.950000000000000000e+02,9.781406375021241217e+00
3.960000000000000000e+02,9.784138073045907547e+00
3.970000000000000000e+02,9.786832804284737009e+00
3.980000000000000000e+02,9.789491362251787621e+00
