# Time [s], Thickness [m]
1.000000000000000000e+00,8.000000400000000303e-03
2.000000000000000000e+00,8.000000400000000303e-03
3.000000000000000000e+00,8.000000400000000303e-03
4.000000000000000000e+00,8.000000400000000303e-03
5.000000000000000000e+00,8.000000400000000303e-03
6.000000000000000000e+00,8.000000400000000303e-03
7.000000000000000000e+00,8.000000400000000303e-03
8.000000000000000000e+00,8.000000400000000303e-03
9.000000000000000000e+00,8.000000400000000303e-03
1.000000000000000000e+01,7.999999400000000829e-03
1.100000000000000000e+01,7.999999400000000829e-03
1.200000000000000000e+01,7.999999400000000829e-03
1.300000000000000000e+01,7.999998499999999221e-03
1.400000000000000000e+01,7.999997599999999348e-03
1.500000000000000000e+01,7.999994800000000128e-03
1.600000000000000000e+01,7.999991999999999173e-03
1.700000000000000000e+01,7.999986400000000733e-03
1.800000000000000000e+01,7.999979000000000812e-03
1.900000000000000000e+01,7.999966900000000589e-03
2.000000000000000000e+01,7.999950100000000064e-03
2.100000000000000000e+01,7.999924900000000144e-03
2.200000000000000000e+01,7.999889600000000683e-03
2.300000000000000000e+01,7.999840200000000318e-03
2.400000000000000000e+01,7.999773099999999554e-03
2.500000000000000000e+01,7.999682799999999552e-03
2.600000000000000000e+01,7.999561699999999456e-03
2.700000000000000000e+01,7.999404300000000426e-03
2.800000000000000000e+01,7.999200399999999850e-03
2.900000000000000000e+01,7.998939599999999386e-03
3.000000000000000000e+01,7.998612699999999368e-03
3.100000000000000000e+01,7.998204800000000350e-03
3.200000000000000000e+01,7.997704700000000250e-03
3.300000000000000000e+01,7.997096500000000149e-03
3.400000000000000000e+01,7.996367299999999553e-03
3.500000000000000000e+01,7.995502999999999291e-03
3.600000000000000000e+01,7.994487899999999647e-03
3.700000000000000000e+01,7.993313499999999891e-03
3.800000000000000000e+01,7.991969599999999146e-03
3.900000000000000000e+01,7.990441299999999705e-03
4.000000000000000000e+01,7.988727699999999959e-03
4.100000000000000000e+01,7.986828700000000308e-03
4.200000000000000000e+01,7.984728599999999302e-03
4.300000000000000000e+01,7.982438399999999823e-03
4.400000000000000000e+01,7.979963899999999513e-03
4.500000000000000000e+01,7.977286400000000235e-03
4.600000000000000000e+01,7.974428100000000019e-03
4.700000000000000000e+01,7.971401300000000023e-03
4.800000000000000000e+01,7.968175200000000152e-03
4.900000000000000000e+01,7.964787100000000550e-03
5.000000000000000000e+01,7.961249000000000103e-03
5.100000000000000000e+01,7.957518999999999704e-03
5.200000000000000000e+01,7.953644699999999970e-03
5.300000000000000000e+01,7.949641000000000346e-03
5.400000000000000000e+01,7.945451900000000817e-03
5.500000000000000000e+01,7.941135199999999408e-03
5.600000000000000000e+01,7.936704899999999160e-03
5.700000000000000000e+01,7.932094900000000517e-03
5.800000000000000000e+01,7.927371199999999965e-03
5.900000000000000000e+01,7.922549699999999889e-03
6.000000000000000000e+01,7.917551300000000639e-03
6.100000000000000000e+01,7.912451399999999302e-03
6.200000000000000000e+01,7.907264900000000526e-03
6.300000000000000000e+01,7.901905100000000334e-03
6.400000000000000000e+01,7.896452199999999186e-03
6.500000000000000000e+01,7.890921999999999867e-03
6.600000000000000000e+01,7.885224200000000641e-03
6.700000000000000000e+01,7.879437899999999426e-03
6.800000000000000000e+01,7.873583599999999308e-03
6.900000000000000000e+01,7.867565400000000111e-03
7.000000000000000000e+01,7.861463399999999227e-03
7.100000000000000000e+01,7.855298900000000015e-03
7.200000000000000000e+01,7.848977999999999511e-03
7.300000000000000000e+01,7.842576100000000008e-03
7.400000000000000000e+01,7.836116500000000346e-03
7.500000000000000000e+01,7.829509700000000794e-03
7.600000000000000000e+01,7.822822800000000382e-03
7.700000000000000000e+01,7.816082800000000511e-03
7.800000000000000000e+01,7.809207799999999706e-03
7.900000000000000000e+01,7.802254500000000391e-03
8.000000000000000000e+01,7.795251900000000310e-03
8.100000000000000000e+01,7.788125400000000045e-03
8.200000000000000000e+01,7.780924899999999700e-03
8.300000000000000000e+01,7.773678699999999817e-03
8.400000000000000000e+01,7.766321799999999914e-03
8.500000000000000000e+01,7.758894500000000291e-03
8.600000000000000000e+01,7.751425299999999824e-03
8.700000000000000000e+01,7.743859199999999707e-03
8.800000000000000000e+01,7.736227000000000034e-03
8.900000000000000000e+01,7.728556600000000346e-03
9.000000000000000000e+01,7.720801999999999700e-03
9.100000000000000000e+01,7.711202399999999603e-03
9.200000000000000000e+01,7.702488500000000127e-03
9.300000000000000000e+01,7.694246200000000140e-03
9.400000000000000000e+01,7.686180499999999659e-03
9.500000000000000000e+01,7.678217299999999870e-03
9.600000000000000000e+01,7.670242800000000132e-03
9.700000000000000000e+01,7.662255300000000297e-03
9.800000000000000000e+01,7.654259400000000199e-03
9.900000000000000000e+01,7.646209999999999639e-03
1.000000000000000000e+02,7.638118200000000232e-03
1.010000000000000000e+02,7.629999400000000292e-03
1.020000000000000000e+02,7.621823800000000065e-03
1.030000000000000000e+02,7.613602100000000164e-03
1.040000000000000000e+02,7.605349600000000168e-03
1.050000000000000000e+02,7.597045499999999923e-03
1.060000000000000000e+02,7.588696699999999615e-03
1.070000000000000000e+02,7.580317599999999816e-03
1.080000000000000000e+02,7.571891400000000001e-03
1.090000000000000000e+02,7.563424800000000288e-03
1.100000000000000000e+02,7.554928300000000353e-03
1.110000000000000000e+02,7.546390400000000179e-03
1.120000000000000000e+02,7.537815300000000329e-03
1.130000000000000000e+02,7.529212199999999605e-03
1.140000000000000000e+02,7.520571799999999606e-03
1.150000000000000000e+02,7.511897499999999755e-03
1.160000000000000000e+02,7.503196099999999771e-03
1.170000000000000000e+02,7.494461699999999810e-03
1.180000000000000000e+02,7.485696600000000221e-03
1.190000000000000000e+02,7.476905399999999972e-03
1.200000000000000000e+02,7.468084800000000106e-03
1.210000000000000000e+02,7.459235800000000097e-03
1.220000000000000000e+02,7.450362700000000109e-03
1.230000000000000000e+02,7.441462499999999987e-03
1.240000000000000000e+02,7.432536200000000072e-03
1.250000000000000000e+02,7.423587100000000188e-03
1.260000000000000000e+02,7.414612499999999849e-03
1.270000000000000000e+02,7.405613499999999863e-03
1.280000000000000000e+02,7.396592799999999850e-03
1.290000000000000000e+02,7.387548199999999926e-03
1.300000000000000000e+02,7.378479900000000161e-03
1.310000000000000000e+02,7.369390699999999773e-03
1.320000000000000000e+02,7.360278599999999817e-03
1.330000000000000000e+02,7.351143800000000360e-03
1.340000000000000000e+02,7.341988399999999949e-03
1.350000000000000000e+02,7.332810700000000174e-03
1.360000000000000000e+02,7.323611100000000304e-03
1.370000000000000000e+02,7.314390500000000211e-03
1.380000000000000000e+02,7.304557599999999921e-03
1.390000000000000000e+02,7.294826199999999983e-03
1.400000000000000000e+02,7.285181400000000085e-03
1.410000000000000000e+02,7.275609300000000258e-03
1.420000000000000000e+02,7.266088399999999677e-03
1.430000000000000000e+02,7.256601500000000281e-03
1.440000000000000000e+02,7.247133600000000425e-03
1.450000000000000000e+02,7.237675100000000306e-03
1.460000000000000000e+02,7.228217599999999660e-03
1.470000000000000000e+02,7.218754400000000106e-03
1.480000000000000000e+02,7.209281399999999812e-03
1.490000000000000000e+02,7.199794500000000416e-03
1.500000000000000000e+02,7.190291300000000232e-03
1.510000000000000000e+02,7.180770399999999651e-03
1.520000000000000000e+02,7.171229500000000055e-03
1.530000000000000000e+02,7.161667099999999633e-03
1.540000000000000000e+02,7.152083299999999720e-03
1.550000000000000000e+02,7.142475799999999965e-03
1.560000000000000000e+02,7.132845500000000241e-03
1.570000000000000000e+02,7.123190899999999603e-03
1.580000000000000000e+02,7.113512100000000254e-03
1.590000000000000000e+02,7.103808700000000323e-03
1.600000000000000000e+02,7.094079599999999867e-03
1.610000000000000000e+02,7.084325399999999960e-03
1.620000000000000000e+02,7.074544700000000123e-03
1.630000000000000000e+02,7.064738299999999763e-03
1.640000000000000000e+02,7.054904899999999736e-03
1.650000000000000000e+02,7.045044999999999780e-03
1.660000000000000000e+02,7.035158100000000157e-03
1.670000000000000000e+02,7.025243700000000265e-03
1.680000000000000000e+02,7.015302299999999838e-03
1.690000000000000000e+02,7.005332500000000136e-03
1.700000000000000000e+02,6.995334300000000290e-03
1.710000000000000000e+02,6.985307700000000300e-03
1.720000000000000000e+02,6.975252200000000430e-03
1.730000000000000000e+02,6.965167399999999676e-03
1.740000000000000000e+02,6.955053200000000171e-03
1.750000000000000000e+02,6.944909699999999783e-03
1.760000000000000000e+02,6.934736399999999641e-03
1.770000000000000000e+02,6.924532399999999872e-03
1.780000000000000000e+02,6.914298099999999746e-03
1.790000000000000000e+02,6.903596199999999759e-03
1.800000000000000000e+02,6.893004799999999724e-03
1.810000000000000000e+02,6.882460800000000239e-03
1.820000000000000000e+02,6.871937300000000373e-03
1.830000000000000000e+02,6.861420299999999688e-03
1.840000000000000000e+02,6.850900600000000250e-03
1.850000000000000000e+02,6.840371500000000209e-03
1.860000000000000000e+02,6.829827099999999721e-03
1.870000000000000000e+02,6.819264499999999965e-03
1.880000000000000000e+02,6.808680000000000114e-03
1.890000000000000000e+02,6.798072700000000294e-03
1.900000000000000000e+02,6.787439299999999814e-03
1.910000000000000000e+02,6.776779900000000009e-03
1.920000000000000000e+02,6.766092500000000197e-03
1.930000000000000000e+02,6.755375800000000368e-03
1.940000000000000000e+02,6.744629700000000054e-03
1.950000000000000000e+02,6.733854299999999724e-03
1.960000000000000000e+02,6.723049099999999639e-03
1.970000000000000000e+02,6.712214099999999802e-03
1.980000000000000000e+02,6.701348299999999869e-03
1.990000000000000000e+02,6.690453300000000388e-03
2.000000000000000000e+02,6.679528900000000421e-03
2.010000000000000000e+02,6.668574600000000234e-03
2.020000000000000000e+02,6.657591600000000234e-03
2.030000000000000000e+02,6.646580099999999623e-03
2.040000000000000000e+02,6.635541600000000213e-03
2.050000000000000000e+02,6.624476100000000270e-03
2.060000000000000000e+02,6.613384499999999666e-03
2.070000000000000000e+02,6.602267299999999874e-03
2.080000000000000000e+02,6.591125399999999898e-03
2.090000000000000000e+02,6.579960200000000217e-03
2.100000000000000000e+02,6.568773200000000041e-03
2.110000000000000000e+02,6.557564299999999770e-03
2.120000000000000000e+02,6.546335300000000017e-03
2.130000000000000000e+02,6.535087200000000256e-03
2.140000000000000000e+02,6.523820999999999960e-03
2.150000000000000000e+02,6.512537599999999871e-03
2.160000000000000000e+02,6.501238799999999735e-03
2.170000000000000000e+02,6.489561900000000334e-03
2.180000000000000000e+02,6.477978100000000156e-03
2.190000000000000000e+02,6.466445999999999826e-03
2.200000000000000000e+02,6.454946500000000205e-03
2.210000000000000000e+02,6.443468400000000075e-03
2.220000000000000000e+02,6.432005699999999992e-03
2.230000000000000000e+02,6.420554099999999792e-03
2.240000000000000000e+02,6.409111900000000195e-03
2.250000000000000000e+02,6.397676700000000383e-03
2.260000000000000000e+02,6.386247500000000014e-03
2.270000000000000000e+02,6.374824299999999958e-03
2.280000000000000000e+02,6.363406299999999939e-03
2.290000000000000000e+02,6.351993900000000096e-03
2.300000000000000000e+02,6.340587499999999696e-03
2.310000000000000000e+02,6.329187699999999812e-03
2.320000000000000000e+02,6.317793900000000240e-03
2.330000000000000000e+02,6.306407499999999722e-03
2.340000000000000000e+02,6.295029100000000197e-03
2.350000000000000000e+02,6.283658099999999726e-03
2.360000000000000000e+02,6.272296400000000258e-03
2.370000000000000000e+02,6.260944099999999658e-03
2.380000000000000000e+02,6.249600999999999594e-03
2.390000000000000000e+02,6.238269200000000347e-03
2.400000000000000000e+02,6.226948000000000379e-03
2.410000000000000000e+02,6.215638899999999765e-03
2.420000000000000000e+02,6.204342499999999580e-03
2.430000000000000000e+02,6.193058100000000017e-03
2.440000000000000000e+02,6.181787200000000287e-03
2.450000000000000000e+02,6.170530300000000128e-03
2.460000000000000000e+02,6.159286899999999801e-03
2.470000000000000000e+02,6.148058500000000252e-03
2.480000000000000000e+02,6.136845299999999816e-03
2.490000000000000000e+02,6.125647599999999894e-03
2.500000000000000000e+02,6.114465700000000156e-03
2.510000000000000000e+02,6.103299999999999871e-03
2.520000000000000000e+02,6.092150699999999974e-03
2.530000000000000000e+02,6.080720099999999996e-03
2.540000000000000000e+02,6.069382699999999707e-03
2.550000000000000000e+02,6.058111300000000241e-03
2.560000000000000000e+02,6.046892100000000360e-03
2.570000000000000000e+02,6.035715799999999930e-03
2.580000000000000000e+02,6.024577700000000383e-03
2.590000000000000000e+02,6.013473499999999819e-03
2.600000000000000000e+02,6.002400100000000217e-03
2.610000000000000000e+02,5.991355500000000028e-03
2.620000000000000000e+02,5.980338899999999847e-03
2.630000000000000000e+02,5.969348400000000325e-03
2.640000000000000000e+02,5.958383400000000392e-03
2.650000000000000000e+02,5.947442699999999638e-03
2.660000000000000000e+02,5.936526200000000197e-03
2.670000000000000000e+02,5.925633500000000199e-03
2.680000000000000000e+02,5.914764000000000306e-03
2.690000000000000000e+02,5.903917399999999982e-03
2.700000000000000000e+02,5.893093500000000026e-03
2.710000000000000000e+02,5.882292499999999640e-03
2.720000000000000000e+02,5.871513899999999953e-03
2.730000000000000000e+02,5.860757099999999893e-03
2.740000000000000000e+02,5.850022699999999666e-03
2.750000000000000000e+02,5.839310099999999934e-03
2.760000000000000000e+02,5.828619900000000034e-03
2.770000000000000000e+02,5.817951200000000093e-03
2.780000000000000000e+02,5.807304299999999780e-03
2.790000000000000000e+02,5.796679800000000167e-03
2.800000000000000000e+02,5.786076700000000045e-03
2.810000000000000000e+02,5.775495900000000155e-03
2.820000000000000000e+02,5.764937000000000360e-03
2.830000000000000000e+02,5.754399599999999657e-03
2.840000000000000000e+02,5.743884500000000053e-03
2.850000000000000000e+02,5.733390799999999940e-03
2.860000000000000000e+02,5.722919499999999660e-03
2.870000000000000000e+02,5.712470499999999611e-03
2.880000000000000000e+02,5.702043399999999658e-03
2.890000000000000000e+02,5.691638700000000405e-03
2.900000000000000000e+02,5.681002499999999837e-03
2.910000000000000000e+02,5.670446899999999867e-03
2.920000000000000000e+02,5.659952799999999618e-03
2.930000000000000000e+02,5.649509799999999880e-03
2.940000000000000000e+02,5.639110699999999934e-03
2.950000000000000000e+02,5.628751100000000014e-03
2.960000000000000000e+02,5.618427900000000363e-03
2.970000000000000000e+02,5.608139100000000300e-03
2.980000000000000000e+02,5.597882900000000078e-03
2.990000000000000000e+02,5.587657900000000087e-03
3.000000000000000000e+02,5.577463700000000191e-03
3.010000000000000000e+02,5.567298699999999843e-03
3.020000000000000000e+02,5.557162699999999844e-03
3.030000000000000000e+02,5.547055500000000125e-03
3.040000000000000000e+02,5.536976699999999682e-03
3.050000000000000000e+02,5.526925900000000114e-03
3.060000000000000000e+02,5.516903000000000085e-03
3.070000000000000000e+02,5.506908100000000063e-03
3.080000000000000000e+02,5.496940999999999980e-03
3.090000000000000000e+02,5.487002000000000372e-03
3.100000000000000000e+02,5.477090799999999836e-03
3.110000000000000000e+02,5.467207200000000038e-03
3.120000000000000000e+02,5.457352399999999652e-03
3.130000000000000000e+02,5.447526500000000015e-03
3.140000000000000000e+02,5.437728499999999916e-03
3.150000000000000000e+02,5.427959799999999835e-03
3.160000000000000000e+02,5.418220100000000101e-03
3.170000000000000000e+02,5.408510600000000258e-03
3.180000000000000000e+02,5.398830400000000432e-03
3.190000000000000000e+02,5.389180999999999833e-03
3.200000000000000000e+02,5.379561799999999991e-03
3.210000000000000000e+02,5.369973400000000244e-03
3.220000000000000000e+02,5.360416599999999997e-03
3.230000000000000000e+02,5.350892399999999591e-03
3.240000000000000000e+02,5.341400399999999757e-03
3.250000000000000000e+02,5.331941399999999900e-03
3.260000000000000000e+02,5.322516400000000363e-03
3.270000000000000000e+02,5.313125000000000139e-03
3.280000000000000000e+02,5.303768900000000244e-03
3.290000000000000000e+02,5.294448200000000278e-03
3.300000000000000000e+02,5.285163899999999713e-03
3.310000000000000000e+02,5.275717899999999953e-03
3.320000000000000000e+02,5.266354400000000137e-03
3.330000000000000000e+02,5.257059799999999963e-03
3.340000000000000000e+02,5.247828099999999989e-03
3.350000000000000000e+02,5.238654599999999911e-03
3.360000000000000000e+02,5.229536899999999780e-03
3.370000000000000000e+02,5.220472799999999712e-03
3.380000000000000000e+02,5.211461799999999971e-03
3.390000000000000000e+02,5.202502900000000215e-03
3.400000000000000000e+02,5.193595300000000171e-03
3.410000000000000000e+02,5.184740299999999850e-03
3.420000000000000000e+02,5.175937400000000382e-03
3.430000000000000000e+02,5.167187699999999974e-03
3.440000000000000000e+02,5.158491900000000165e-03
3.450000000000000000e+02,5.149850600000000292e-03
3.460000000000000000e+02,5.141265199999999966e-03
3.470000000000000000e+02,5.132736599999999927e-03
3.480000000000000000e+02,5.124266300000000253e-03
3.490000000000000000e+02,5.115854999999999882e-03
3.500000000000000000e+02,5.107505200000000099e-03
3.510000000000000000e+02,5.099217900000000379e-03
3.520000000000000000e+02,5.090994800000000001e-03
3.530000000000000000e+02,5.082838200000000181e-03
3.540000000000000000e+02,5.074749699999999732e-03
3.550000000000000000e+02,5.066730499999999929e-03
3.560000000000000000e+02,5.058783600000000061e-03
3.570000000000000000e+02,5.050910599999999806e-03
3.580000000000000000e+02,5.043114500000000187e-03
3.590000000000000000e+02,5.035396699999999948e-03
3.600000000000000000e+02,5.027760299999999710e-03
3.610000000000000000e+02,5.020207300000000157e-03
3.620000000000000000e+02,5.012740400000000041e-03
3.630000000000000000e+02,5.005362000000000179e-03
3.640000000000000000e+02,4.998075799999999666e-03
3.650000000000000000e+02,4.990883199999999846e-03
3.660000000000000000e+02,4.983788400000000417e-03
3.670000000000000000e+02,4.976792699999999653e-03
3.680000000000000000e+02,4.969900900000000059e-03
3.690000000000000000e+02,4.963114900000000114e-03
3.700000000000000000e+02,4.956437699999999974e-03
3.710000000000000000e+02,4.949872400000000262e-03
3.720000000000000000e+02,4.943422500000000004e-03
3.730000000000000000e+02,4.937090899999999755e-03
3.740000000000000000e+02,4.930880399999999601e-03
3.750000000000000000e+02,4.924794700000000372e-03
3.760000000000000000e+02,4.918835600000000079e-03
3.770000000000000000e+02,4.913006900000000017e-03
3.780000000000000000e+02,4.907310899999999670e-03
3.790000000000000000e+02,4.901750499999999594e-03
3.800000000000000000e+02,4.896328299999999807e-03
3.810000000000000000e+02,4.891045899999999988e-03
3.820000000000000000e+02,4.885905900000000156e-03
3.830000000000000000e+02,4.880910700000000262e-03
3.840000000000000000e+02,4.876050600000000033e-03
3.850000000000000000e+02,4.871341399999999655e-03
3.860000000000000000e+02,4.866783500000000130e-03
3.870000000000000000e+02,4.862377000000000192e-03
3.880000000000000000e+02,4.858121699999999772e-03
3.890000000000000000e+02,4.854016499999999797e-03
3.900000000000000000e+02,4.850060699999999593e-03
3.910000000000000000e+02,4.846253899999999892e-03
3.920000000000000000e+02,4.842594700000000217e-03
3.930000000000000000e+02,4.839080899999999817e-03
3.940000000000000000e+02,4.835711300000000018e-03
3.950000000000000000e+02,4.832483400000000401e-03
3.960000000000000000e+02,4.829394600000000079e-03
3.970000000000000000e+02,4.826442299999999901e-03
3.980000000000000000e+02,4.823623200000000041e-03
3.990000000000000000e+02,4.820934500000000414e-03
