# Time [s], Mass [Kg]
1.000000000000000000e+00,1.000000000000000000e+00
2.000000000000000000e+00,1.000000000000000000e+00
3.000000000000000000e+00,1.000000000000000000e+00
4.000000000000000000e+00,1.000000000000000000e+00
5.000000000000000000e+00,1.000000000000000000e+00
6.000000000000000000e+00,1.000000000000000000e+00
7.000000000000000000e+00,1.000000000000000000e+00
8.000000000000000000e+00,9.999999400000000316e-01
9.000000000000000000e+00,9.999997000000000469e-01
1.000000000000000000e+01,9.999988100000000157e-01
1.100000000000000000e+01,9.999961299999999831e-01
1.200000000000000000e+01,9.999889100000000086e-01
1.300000000000000000e+01,9.999710899999999514e-01
1.400000000000000000e+01,9.999314500000000550e-01
1.500000000000000000e+01,9.998514099999999960e-01
1.600000000000000000e+01,9.997031100000000059e-01
1.700000000000000000e+01,9.994493100000000352e-01
1.800000000000000000e+01,9.990468599999999810e-01
1.900000000000000000e+01,9.984549900000000422e-01
2.000000000000000000e+01,9.976460900000000409e-01
2.100000000000000000e+01,9.966129700000000424e-01
2.200000000000000000e+01,9.953653799999999663e-01
2.300000000000000000e+01,9.939244999999999886e-01
2.400000000000000000e+01,9.923182099999999783e-01
2.500000000000000000e+01,9.905680399999999830e-01
2.600000000000000000e+01,9.886977700000000313e-01
2.700000000000000000e+01,9.867349899999999785e-01
2.800000000000000000e+01,9.846918599999999744e-01
2.900000000000000000e+01,9.825887700000000002e-01
3.000000000000000000e+01,9.804506899999999581e-01
3.100000000000000000e+01,9.782835800000000415e-01
3.200000000000000000e+01,9.761057499999999942e-01
3.300000000000000000e+01,9.739410299999999854e-01
3.400000000000000000e+01,9.717911500000000480e-01
3.500000000000000000e+01,9.696710099999999999e-01
3.600000000000000000e+01,9.675971899999999959e-01
3.700000000000000000e+01,9.655645499999999659e-01
3.800000000000000000e+01,9.635708299999999893e-01
3.900000000000000000e+01,9.616080500000000475e-01
4.000000000000000000e+01,9.596480099999999958e-01
4.100000000000000000e+01,9.576586499999999447e-01
4.200000000000000000e+01,9.556132000000000515e-01
4.300000000000000000e+01,9.534956199999999882e-01
4.400000000000000000e+01,9.513109899999999675e-01
4.500000000000000000e+01,9.490795699999999835e-01
4.600000000000000000e+01,9.468259799999999560e-01
4.700000000000000000e+01,9.445717300000000538e-01
4.800000000000000000e+01,9.423351300000000208e-01
4.900000000000000000e+01,9.401289200000000346e-01
5.000000000000000000e+01,9.379629499999999620e-01
5.100000000000000000e+01,9.358424499999999924e-01
5.200000000000000000e+01,9.337680299999999711e-01
5.300000000000000000e+01,9.317339100000000540e-01
5.400000000000000000e+01,9.297279099999999907e-01
5.500000000000000000e+01,9.268237900000000362e-01
5.600000000000000000e+01,9.243727900000000552e-01
5.700000000000000000e+01,9.220379600000000453e-01
5.800000000000000000e+01,9.196671800000000285e-01
5.900000000000000000e+01,9.173408699999999749e-01
6.000000000000000000e+01,9.150440699999999872e-01
6.100000000000000000e+01,9.128009700000000448e-01
6.200000000000000000e+01,9.106147300000000389e-01
6.300000000000000000e+01,9.084919099999999581e-01
6.400000000000000000e+01,9.064323899999999767e-01
6.500000000000000000e+01,9.044296099999999949e-01
6.600000000000000000e+01,9.024706500000000409e-01
6.700000000000000000e+01,9.005346899999999710e-01
6.800000000000000000e+01,8.985969400000000107e-01
6.900000000000000000e+01,8.966321900000000511e-01
7.000000000000000000e+01,8.946204199999999718e-01
7.100000000000000000e+01,8.925538699999999714e-01
7.200000000000000000e+01,8.904352199999999717e-01
7.300000000000000000e+01,8.882768199999999670e-01
7.400000000000000000e+01,8.860944499999999779e-01
7.500000000000000000e+01,8.839041600000000498e-01
7.600000000000000000e+01,8.817202400000000440e-01
7.700000000000000000e+01,8.795543300000000508e-01
7.800000000000000000e+01,8.774146400000000234e-01
7.900000000000000000e+01,8.753055299999999983e-01
8.000000000000000000e+01,8.732277800000000090e-01
8.100000000000000000e+01,8.711778500000000314e-01
8.200000000000000000e+01,8.691487300000000360e-01
8.300000000000000000e+01,8.671302199999999516e-01
8.400000000000000000e+01,8.651098600000000083e-01
8.500000000000000000e+01,8.630768699999999960e-01
8.600000000000000000e+01,8.610223500000000474e-01
8.700000000000000000e+01,8.589415599999999928e-01
8.800000000000000000e+01,8.568350700000000320e-01
8.900000000000000000e+01,8.539387000000000505e-01
9.000000000000000000e+01,8.515117199999999720e-01
9.100000000000000000e+01,8.491994699999999563e-01
9.200000000000000000e+01,8.470048900000000103e-01
9.300000000000000000e+01,8.449014400000000036e-01
9.400000000000000000e+01,8.428673700000000046e-01
9.500000000000000000e+01,8.408826000000000356e-01
9.600000000000000000e+01,8.389212499999999517e-01
9.700000000000000000e+01,8.369604899999999459e-01
9.800000000000000000e+01,8.349792400000000114e-01
9.900000000000000000e+01,8.329638799999999899e-01
1.000000000000000000e+02,8.309071099999999488e-01
1.010000000000000000e+02,8.288102099999999917e-01
1.020000000000000000e+02,8.266786299999999699e-01
1.030000000000000000e+02,8.245214199999999494e-01
1.040000000000000000e+02,8.223478800000000311e-01
1.050000000000000000e+02,8.201671200000000272e-01
1.060000000000000000e+02,8.179870799999999775e-01
1.070000000000000000e+02,8.158131199999999472e-01
1.080000000000000000e+02,8.136491200000000035e-01
1.090000000000000000e+02,8.114967899999999679e-01
1.100000000000000000e+02,8.093550200000000361e-01
1.110000000000000000e+02,8.072207000000000132e-01
1.120000000000000000e+02,8.050888800000000067e-01
1.130000000000000000e+02,8.029530000000000278e-01
1.140000000000000000e+02,8.008066999999999824e-01
1.150000000000000000e+02,7.986442400000000053e-01
1.160000000000000000e+02,7.964609299999999559e-01
1.170000000000000000e+02,7.942552000000000501e-01
1.180000000000000000e+02,7.920272900000000504e-01
1.190000000000000000e+02,7.897799599999999476e-01
1.200000000000000000e+02,7.875167100000000087e-01
1.210000000000000000e+02,7.852422000000000013e-01
1.220000000000000000e+02,7.829605299999999879e-01
1.230000000000000000e+02,7.806751100000000054e-01
1.240000000000000000e+02,7.777874500000000468e-01
1.250000000000000000e+02,7.752990699999999791e-01
1.260000000000000000e+02,7.729494599999999771e-01
1.270000000000000000e+02,7.706441899999999512e-01
1.280000000000000000e+02,7.683465499999999615e-01
1.290000000000000000e+02,7.660300700000000074e-01
1.300000000000000000e+02,7.636874900000000244e-01
1.310000000000000000e+02,7.613191000000000264e-01
1.320000000000000000e+02,7.589302700000000179e-01
1.330000000000000000e+02,7.565271300000000476e-01
1.340000000000000000e+02,7.541149900000000406e-01
1.350000000000000000e+02,7.516981999999999831e-01
1.360000000000000000e+02,7.492793199999999709e-01
1.370000000000000000e+02,7.468591300000000377e-01
1.380000000000000000e+02,7.444361400000000240e-01
1.390000000000000000e+02,7.420080300000000406e-01
1.400000000000000000e+02,7.395703200000000033e-01
1.410000000000000000e+02,7.371181799999999562e-01
1.420000000000000000e+02,7.346462000000000270e-01
1.430000000000000000e+02,7.321498400000000517e-01
1.440000000000000000e+02,7.296256399999999642e-01
1.450000000000000000e+02,7.270713399999999549e-01
1.460000000000000000e+02,7.244866500000000098e-01
1.470000000000000000e+02,7.218731000000000453e-01
1.480000000000000000e+02,7.192324399999999729e-01
1.490000000000000000e+02,7.165678100000000272e-01
1.500000000000000000e+02,7.138822099999999615e-01
1.510000000000000000e+02,7.111779999999999768e-01
1.520000000000000000e+02,7.084570500000000326e-01
1.530000000000000000e+02,7.057203100000000173e-01
1.540000000000000000e+02,7.024604700000000035e-01
1.550000000000000000e+02,6.994854200000000244e-01
1.560000000000000000e+02,6.965892900000000276e-01
1.570000000000000000e+02,6.937090200000000095e-01
1.580000000000000000e+02,6.908254600000000023e-01
1.590000000000000000e+02,6.879335600000000550e-01
1.600000000000000000e+02,6.850348699999999624e-01
1.610000000000000000e+02,6.821312299999999773e-01
1.620000000000000000e+02,6.792241900000000054e-01
1.630000000000000000e+02,6.763136400000000492e-01
1.640000000000000000e+02,6.733987299999999454e-01
1.650000000000000000e+02,6.704772100000000457e-01
1.660000000000000000e+02,6.675461499999999493e-01
1.670000000000000000e+02,6.646026999999999907e-01
1.680000000000000000e+02,6.616441600000000367e-01
1.690000000000000000e+02,6.586689399999999806e-01
1.700000000000000000e+02,6.556763599999999581e-01
1.710000000000000000e+02,6.526672799999999608e-01
1.720000000000000000e+02,6.496439000000000519e-01
1.730000000000000000e+02,6.466087099999999754e-01
1.740000000000000000e+02,6.435653000000000068e-01
1.750000000000000000e+02,6.405171200000000509e-01
1.760000000000000000e+02,6.374674999999999647e-01
1.770000000000000000e+02,6.344193200000000088e-01
1.780000000000000000e+02,6.313744199999999918e-01
1.790000000000000000e+02,6.279399399999999742e-01
1.800000000000000000e+02,6.247065099999999926e-01
1.810000000000000000e+02,6.215562799999999610e-01
1.820000000000000000e+02,6.184503399999999873e-01
1.830000000000000000e+02,6.153747999999999996e-01
1.840000000000000000e+02,6.123243600000000120e-01
1.850000000000000000e+02,6.092972800000000522e-01
1.860000000000000000e+02,6.062916499999999598e-01
1.870000000000000000e+02,6.033057600000000242e-01
1.880000000000000000e+02,6.003372099999999545e-01
1.890000000000000000e+02,5.973833800000000194e-01
1.900000000000000000e+02,5.944414700000000273e-01
1.910000000000000000e+02,5.915088699999999644e-01
1.920000000000000000e+02,5.885839499999999669e-01
1.930000000000000000e+02,5.856651099999999888e-01
1.940000000000000000e+02,5.827521100000000454e-01
1.950000000000000000e+02,5.798451300000000419e-01
1.960000000000000000e+02,5.769451300000000282e-01
1.970000000000000000e+02,5.740535900000000025e-01
1.980000000000000000e+02,5.711718199999999968e-01
1.990000000000000000e+02,5.683015000000000150e-01
2.000000000000000000e+02,5.654438699999999596e-01
2.010000000000000000e+02,5.625999600000000100e-01
2.020000000000000000e+02,5.597702300000000353e-01
2.030000000000000000e+02,5.569549200000000200e-01
2.040000000000000000e+02,5.538558999999999566e-01
2.050000000000000000e+02,5.508912200000000148e-01
2.060000000000000000e+02,5.480014100000000221e-01
2.070000000000000000e+02,5.451623799999999465e-01
2.080000000000000000e+02,5.423635199999999879e-01
2.090000000000000000e+02,5.395980500000000513e-01
2.100000000000000000e+02,5.368615399999999704e-01
2.110000000000000000e+02,5.341500599999999821e-01
2.120000000000000000e+02,5.314602899999999464e-01
2.130000000000000000e+02,5.287893999999999650e-01
2.140000000000000000e+02,5.261348500000000428e-01
2.150000000000000000e+02,5.234950800000000015e-01
2.160000000000000000e+02,5.208691399999999527e-01
2.170000000000000000e+02,5.182567200000000041e-01
2.180000000000000000e+02,5.156583799999999718e-01
2.190000000000000000e+02,5.130748699999999607e-01
2.200000000000000000e+02,5.105073500000000264e-01
2.210000000000000000e+02,5.079573400000000349e-01
2.220000000000000000e+02,5.054259300000000232e-01
2.230000000000000000e+02,5.029146100000000397e-01
2.240000000000000000e+02,5.004240899999999881e-01
2.250000000000000000e+02,4.979553199999999791e-01
2.260000000000000000e+02,4.955089400000000088e-01
2.270000000000000000e+02,4.930855000000000099e-01
2.280000000000000000e+02,4.906854600000000177e-01
2.290000000000000000e+02,4.883093800000000151e-01
2.300000000000000000e+02,4.859580700000000197e-01
2.310000000000000000e+02,4.836323599999999834e-01
2.320000000000000000e+02,4.811131399999999947e-01
2.330000000000000000e+02,4.787101100000000220e-01
2.340000000000000000e+02,4.763916699999999893e-01
2.350000000000000000e+02,4.741410899999999873e-01
2.360000000000000000e+02,4.719487700000000174e-01
2.370000000000000000e+02,4.698091099999999742e-01
2.380000000000000000e+02,4.677193499999999782e-01
2.390000000000000000e+02,4.656791699999999756e-01
2.400000000000000000e+02,4.636902500000000260e-01
2.410000000000000000e+02,4.617555700000000041e-01
2.420000000000000000e+02,4.598794299999999780e-01
2.430000000000000000e+02,4.580667299999999775e-01
2.440000000000000000e+02,4.563230899999999868e-01
2.450000000000000000e+02,4.546546599999999883e-01
2.460000000000000000e+02,4.530683500000000086e-01
2.470000000000000000e+02,4.515718200000000127e-01
2.480000000000000000e+02,4.501738000000000128e-01
2.490000000000000000e+02,4.488841900000000162e-01
2.500000000000000000e+02,4.477143000000000095e-01
2.510000000000000000e+02,4.466762799999999811e-01
2.520000000000000000e+02,4.457825400000000049e-01
2.530000000000000000e+02,4.450442499999999746e-01
2.540000000000000000e+02,4.444687399999999733e-01
2.550000000000000000e+02,4.440560000000000063e-01
2.560000000000000000e+02,4.437942200000000170e-01
2.570000000000000000e+02,4.436564399999999853e-01
2.580000000000000000e+02,4.436025000000000107e-01
2.590000000000000000e+02,4.435897200000000207e-01
2.600000000000000000e+02,4.435887000000000024e-01
2.610000000000000000e+02,4.435887000000000024e-01
2.620000000000000000e+02,4.435887000000000024e-01
2.630000000000000000e+02,4.435887000000000024e-01
2.640000000000000000e+02,4.435887000000000024e-01
2.650000000000000000e+02,4.435887000000000024e-01
2.660000000000000000e+02,4.435887000000000024e-01
2.670000000000000000e+02,4.435887000000000024e-01
2.680000000000000000e+02,4.435887000000000024e-01
2.690000000000000000e+02,4.435887000000000024e-01
2.700000000000000000e+02,4.435887000000000024e-01
2.710000000000000000e+02,4.435887000000000024e-01
2.720000000000000000e+02,4.435887000000000024e-01
2.730000000000000000e+02,4.435887000000000024e-01
2.740000000000000000e+02,4.435887000000000024e-01
2.750000000000000000e+02,4.435887000000000024e-01
2.760000000000000000e+02,4.435887000000000024e-01
2.770000000000000000e+02,4.435887000000000024e-01
2.780000000000000000e+02,4.435887000000000024e-01
2.790000000000000000e+02,4.435887000000000024e-01
2.800000000000000000e+02,4.435887000000000024e-01
2.810000000000000000e+02,4.435887000000000024e-01
2.820000000000000000e+02,4.435887000000000024e-01
2.830000000000000000e+02,4.435887000000000024e-01
2.840000000000000000e+02,4.435887000000000024e-01
2.850000000000000000e+02,4.435887000000000024e-01
2.860000000000000000e+02,4.435887000000000024e-01
2.870000000000000000e+02,4.435887000000000024e-01
2.880000000000000000e+02,4.435887000000000024e-01
2.890000000000000000e+02,4.435887000000000024e-01
2.900000000000000000e+02,4.435887000000000024e-01
2.910000000000000000e+02,4.435887000000000024e-01
2.920000000000000000e+02,4.435887000000000024e-01
2.930000000000000000e+02,4.435887000000000024e-01
2.940000000000000000e+02,4.435887000000000024e-01
2.950000000000000000e+02,4.435887000000000024e-01
2.960000000000000000e+02,4.435887000000000024e-01
2.970000000000000000e+02,4.435887000000000024e-01
2.980000000000000000e+02,4.435887000000000024e-01
2.990000000000000000e+02,4.435887000000000024e-01
3.000000000000000000e+02,4.435887000000000024e-01
3.010000000000000000e+02,4.435887000000000024e-01
3.020000000000000000e+02,4.435887000000000024e-01
3.030000000000000000e+02,4.435887000000000024e-01
3.040000000000000000e+02,4.435887000000000024e-01
3.050000000000000000e+02,4.435887000000000024e-01
3.060000000000000000e+02,4.435887000000000024e-01
3.070000000000000000e+02,4.435887000000000024e-01
3.080000000000000000e+02,4.435887000000000024e-01
3.090000000000000000e+02,4.435887000000000024e-01
3.100000000000000000e+02,4.435887000000000024e-01
3.110000000000000000e+02,4.435887000000000024e-01
3.120000000000000000e+02,4.435887000000000024e-01
3.130000000000000000e+02,4.435887000000000024e-01
3.140000000000000000e+02,4.435887000000000024e-01
3.150000000000000000e+02,4.435887000000000024e-01
3.160000000000000000e+02,4.435887000000000024e-01
3.170000000000000000e+02,4.435887000000000024e-01
3.180000000000000000e+02,4.435887000000000024e-01
3.190000000000000000e+02,4.435887000000000024e-01
3.200000000000000000e+02,4.435887000000000024e-01
3.210000000000000000e+02,4.435887000000000024e-01
3.220000000000000000e+02,4.435887000000000024e-01
3.230000000000000000e+02,4.435887000000000024e-01
3.240000000000000000e+02,4.435887000000000024e-01
3.250000000000000000e+02,4.435887000000000024e-01
3.260000000000000000e+02,4.435887000000000024e-01
3.270000000000000000e+02,4.435887000000000024e-01
3.280000000000000000e+02,4.435887000000000024e-01
3.290000000000000000e+02,4.435887000000000024e-01
3.300000000000000000e+02,4.435887000000000024e-01
3.310000000000000000e+02,4.435887000000000024e-01
3.320000000000000000e+02,4.435887000000000024e-01
3.330000000000000000e+02,4.435887000000000024e-01
3.340000000000000000e+02,4.435887000000000024e-01
3.350000000000000000e+02,4.435887000000000024e-01
3.360000000000000000e+02,4.435887000000000024e-01
3.370000000000000000e+02,4.435887000000000024e-01
3.380000000000000000e+02,4.435887000000000024e-01
3.390000000000000000e+02,4.435887000000000024e-01
3.400000000000000000e+02,4.435887000000000024e-01
3.410000000000000000e+02,4.435887000000000024e-01
3.420000000000000000e+02,4.435887000000000024e-01
3.430000000000000000e+02,4.435887000000000024e-01
3.440000000000000000e+02,4.435887000000000024e-01
3.450000000000000000e+02,4.435887000000000024e-01
3.460000000000000000e+02,4.435887000000000024e-01
3.470000000000000000e+02,4.435887000000000024e-01
3.480000000000000000e+02,4.435887000000000024e-01
3.490000000000000000e+02,4.435887000000000024e-01
3.500000000000000000e+02,4.435887000000000024e-01
3.510000000000000000e+02,4.435887000000000024e-01
3.520000000000000000e+02,4.435887000000000024e-01
3.530000000000000000e+02,4.435887000000000024e-01
3.540000000000000000e+02,4.435887000000000024e-01
3.550000000000000000e+02,4.435887000000000024e-01
3.560000000000000000e+02,4.435887000000000024e-01
3.570000000000000000e+02,4.435887000000000024e-01
3.580000000000000000e+02,4.435887000000000024e-01
3.590000000000000000e+02,4.435887000000000024e-01
3.600000000000000000e+02,4.435887000000000024e-01
3.610000000000000000e+02,4.435887000000000024e-01
3.620000000000000000e+02,4.435887000000000024e-01
3.630000000000000000e+02,4.435887000000000024e-01
3.640000000000000000e+02,4.435887000000000024e-01
3.650000000000000000e+02,4.435887000000000024e-01
3.660000000000000000e+02,4.435887000000000024e-01
3.670000000000000000e+02,4.435887000000000024e-01
3.680000000000000000e+02,4.435887000000000024e-01
3.690000000000000000e+02,4.435887000000000024e-01
3.700000000000000000e+02,4.435887000000000024e-01
3.710000000000000000e+02,4.435887000000000024e-01
3.720000000000000000e+02,4.435887000000000024e-01
3.730000000000000000e+02,4.435887000000000024e-01
3.740000000000000000e+02,4.435887000000000024e-01
3.750000000000000000e+02,4.435887000000000024e-01
3.760000000000000000e+02,4.435887000000000024e-01
3.770000000000000000e+02,4.435887000000000024e-01
3.780000000000000000e+02,4.435887000000000024e-01
3.790000000000000000e+02,4.435887000000000024e-01
3.800000000000000000e+02,4.435887000000000024e-01
3.810000000000000000e+02,4.435887000000000024e-01
3.820000000000000000e+02,4.435887000000000024e-01
3.830000000000000000e+02,4.435887000000000024e-01
3.840000000000000000e+02,4.435887000000000024e-01
3.850000000000000000e+02,4.435887000000000024e-01
3.860000000000000000e+02,4.435887000000000024e-01
3.870000000000000000e+02,4.435887000000000024e-01
3.880000000000000000e+02,4.435887000000000024e-01
3.890000000000000000e+02,4.435887000000000024e-01
3.900000000000000000e+02,4.435887000000000024e-01
3.910000000000000000e+02,4.435887000000000024e-01
3.920000000000000000e+02,4.435887000000000024e-01
3.930000000000000000e+02,4.435887000000000024e-01
3.940000000000000000e+02,4.435887000000000024e-01
3.950000000000000000e+02,4.435887000000000024e-01
3.960000000000000000e+02,4.435887000000000024e-01
3.970000000000000000e+02,4.435887000000000024e-01
3.980000000000000000e+02,4.435887000000000024e-01
3.990000000000000000e+02,4.435887000000000024e-01
