# Time [s], Temperature [C]
1.000000000000000000e+00,2.499997700000000123e+01
2.000000000000000000e+00,4.081832500000000152e+01
3.000000000000000000e+00,4.988741699999999923e+01
4.000000000000000000e+00,5.727985000000000326e+01
5.000000000000000000e+00,6.347695199999999716e+01
6.000000000000000000e+00,6.893424199999999757e+01
7.000000000000000000e+00,7.383555599999999686e+01
8.000000000000000000e+00,7.831380500000000211e+01
9.000000000000000000e+00,8.245311700000000599e+01
1.000000000000000000e+01,8.631286599999999964e+01
1.100000000000000000e+01,8.993662299999999732e+01
1.200000000000000000e+01,9.335881000000000540e+01
1.300000000000000000e+01,9.660543800000000658e+01
1.400000000000000000e+01,9.969803600000000188e+01
1.500000000000000000e+01,1.026530900000000059e+02
1.600000000000000000e+01,1.054855500000000035e+02
1.700000000000000000e+01,1.082068000000000012e+02
1.800000000000000000e+01,1.108268599999999964e+02
1.900000000000000000e+01,1.133542599999999965e+02
2.000000000000000000e+01,1.157976500000000044e+02
2.100000000000000000e+01,1.181625099999999975e+02
2.200000000000000000e+01,1.204549200000000013e+02
2.300000000000000000e+01,1.226799500000000052e+02
2.400000000000000000e+01,1.248415799999999933e+02
2.500000000000000000e+01,1.269451399999999950e+02
2.600000000000000000e+01,1.289933200000000113e+02
2.700000000000000000e+01,1.309893999999999892e+02
2.800000000000000000e+01,1.329369199999999864e+02
2.900000000000000000e+01,1.348383300000000133e+02
3.000000000000000000e+01,1.366963000000000079e+02
3.100000000000000000e+01,1.385123600000000010e+02
3.200000000000000000e+01,1.402897800000000075e+02
3.300000000000000000e+01,1.420299400000000105e+02
3.400000000000000000e+01,1.437347599999999943e+02
3.500000000000000000e+01,1.454060699999999997e+02
3.600000000000000000e+01,1.470455000000000041e+02
3.700000000000000000e+01,1.486545700000000068e+02
3.800000000000000000e+01,1.502348299999999881e+02
3.900000000000000000e+01,1.517873199999999940e+02
4.000000000000000000e+01,1.533133699999999919e+02
4.100000000000000000e+01,1.548143900000000031e+02
4.200000000000000000e+01,1.562912900000000036e+02
4.300000000000000000e+01,1.577456200000000024e+02
4.400000000000000000e+01,1.591783100000000104e+02
4.500000000000000000e+01,1.605897699999999872e+02
4.600000000000000000e+01,1.619820300000000088e+02
4.700000000000000000e+01,1.633544300000000078e+02
4.800000000000000000e+01,1.647091100000000097e+02
4.900000000000000000e+01,1.660451500000000067e+02
5.000000000000000000e+01,1.673650700000000029e+02
5.100000000000000000e+01,1.686681499999999971e+02
5.200000000000000000e+01,1.699541900000000112e+02
5.300000000000000000e+01,1.712251699999999914e+02
5.400000000000000000e+01,1.724802099999999996e+02
5.500000000000000000e+01,1.737197899999999890e+02
5.600000000000000000e+01,1.749442400000000077e+02
5.700000000000000000e+01,1.761531799999999919e+02
5.800000000000000000e+01,1.773462800000000072e+02
5.900000000000000000e+01,1.785247200000000021e+02
6.000000000000000000e+01,1.796879600000000039e+02
6.100000000000000000e+01,1.808353899999999896e+02
6.200000000000000000e+01,1.819678299999999922e+02
6.300000000000000000e+01,1.830847300000000075e+02
6.400000000000000000e+01,1.841869800000000055e+02
6.500000000000000000e+01,1.852742900000000077e+02
6.600000000000000000e+01,1.863466500000000110e+02
6.700000000000000000e+01,1.874042699999999968e+02
6.800000000000000000e+01,1.884476300000000037e+02
6.900000000000000000e+01,1.894766799999999876e+02
7.000000000000000000e+01,1.904916100000000085e+02
7.100000000000000000e+01,1.914931300000000078e+02
7.200000000000000000e+01,1.924816299999999956e+02
7.300000000000000000e+01,1.934560400000000016e+02
7.400000000000000000e+01,1.944192199999999957e+02
7.500000000000000000e+01,1.953684700000000021e+02
7.600000000000000000e+01,1.963061399999999992e+02
7.700000000000000000e+01,1.972322200000000123e+02
7.800000000000000000e+01,1.981460999999999899e+02
7.900000000000000000e+01,1.990489000000000033e+02
8.000000000000000000e+01,1.999412800000000061e+02
8.100000000000000000e+01,2.008222800000000063e+02
8.200000000000000000e+01,2.016920299999999884e+02
8.300000000000000000e+01,2.025533299999999883e+02
8.400000000000000000e+01,2.034027600000000007e+02
8.500000000000000000e+01,2.042421400000000062e+02
8.600000000000000000e+01,2.050735799999999927e+02
8.700000000000000000e+01,2.058942700000000059e+02
8.800000000000000000e+01,2.067049700000000030e+02
8.900000000000000000e+01,2.075082600000000070e+02
9.000000000000000000e+01,2.083005699999999933e+02
9.100000000000000000e+01,2.090833100000000115e+02
9.200000000000000000e+01,2.098602600000000109e+02
9.300000000000000000e+01,2.106262499999999989e+02
9.400000000000000000e+01,2.113829700000000003e+02
9.500000000000000000e+01,2.121340199999999925e+02
9.600000000000000000e+01,2.128744499999999960e+02
9.700000000000000000e+01,2.136062599999999918e+02
9.800000000000000000e+01,2.143328999999999951e+02
9.900000000000000000e+01,2.150486099999999965e+02
1.000000000000000000e+02,2.157552599999999927e+02
1.010000000000000000e+02,2.164582699999999988e+02
1.020000000000000000e+02,2.171496699999999862e+02
1.030000000000000000e+02,2.178321400000000096e+02
1.040000000000000000e+02,2.185114100000000121e+02
1.050000000000000000e+02,2.191800800000000038e+02
1.060000000000000000e+02,2.198389300000000048e+02
1.070000000000000000e+02,2.204955899999999929e+02
1.080000000000000000e+02,2.211407600000000002e+02
1.090000000000000000e+02,2.217770700000000090e+02
1.100000000000000000e+02,2.224122500000000002e+02
1.110000000000000000e+02,2.230343000000000018e+02
1.120000000000000000e+02,2.236478999999999928e+02
1.130000000000000000e+02,2.242615399999999966e+02
1.140000000000000000e+02,2.248614000000000033e+02
1.150000000000000000e+02,2.254530599999999936e+02
1.160000000000000000e+02,2.260451999999999941e+02
1.170000000000000000e+02,2.266243699999999990e+02
1.180000000000000000e+02,2.271934100000000001e+02
1.190000000000000000e+02,2.277659800000000132e+02
1.200000000000000000e+02,2.283233199999999954e+02
1.210000000000000000e+02,2.288709100000000092e+02
1.220000000000000000e+02,2.294234899999999868e+02
1.230000000000000000e+02,2.299602399999999989e+02
1.240000000000000000e+02,2.304876299999999958e+02
1.250000000000000000e+02,2.310208299999999895e+02
1.260000000000000000e+02,2.315369699999999966e+02
1.270000000000000000e+02,2.320445300000000088e+02
1.280000000000000000e+02,2.325588799999999878e+02
1.290000000000000000e+02,2.330560600000000022e+02
1.300000000000000000e+02,2.335442700000000116e+02
1.310000000000000000e+02,2.340410799999999938e+02
1.320000000000000000e+02,2.345201099999999883e+02
1.330000000000000000e+02,2.349896400000000085e+02
1.340000000000000000e+02,2.354690899999999942e+02
1.350000000000000000e+02,2.359303099999999915e+02
1.360000000000000000e+02,2.363820800000000020e+02
1.370000000000000000e+02,2.368465899999999920e+02
1.380000000000000000e+02,2.372904399999999896e+02
1.390000000000000000e+02,2.377252799999999979e+02
1.400000000000000000e+02,2.381749000000000080e+02
1.410000000000000000e+02,2.386029100000000085e+02
1.420000000000000000e+02,2.390215599999999938e+02
1.430000000000000000e+02,2.394572000000000003e+02
1.440000000000000000e+02,2.398707300000000089e+02
1.450000000000000000e+02,2.402749499999999898e+02
1.460000000000000000e+02,2.406980100000000107e+02
1.470000000000000000e+02,2.410977300000000128e+02
1.480000000000000000e+02,2.414880799999999965e+02
1.490000000000000000e+02,2.418994000000000142e+02
1.500000000000000000e+02,2.422858899999999949e+02
1.510000000000000000e+02,2.426635400000000118e+02
1.520000000000000000e+02,2.430639500000000055e+02
1.530000000000000000e+02,2.434390400000000056e+02
1.540000000000000000e+02,2.438050800000000038e+02
1.550000000000000000e+02,2.441959099999999978e+02
1.560000000000000000e+02,2.445603600000000029e+02
1.570000000000000000e+02,2.449163499999999942e+02
1.580000000000000000e+02,2.452983399999999961e+02
1.590000000000000000e+02,2.456530300000000011e+02
1.600000000000000000e+02,2.459985700000000008e+02
1.610000000000000000e+02,2.463726800000000026e+02
1.620000000000000000e+02,2.467184399999999869e+02
1.630000000000000000e+02,2.470553400000000011e+02
1.640000000000000000e+02,2.474225800000000106e+02
1.650000000000000000e+02,2.477603100000000040e+02
1.660000000000000000e+02,2.480898899999999969e+02
1.670000000000000000e+02,2.484507000000000119e+02
1.680000000000000000e+02,2.487813299999999970e+02
1.690000000000000000e+02,2.491032099999999900e+02
1.700000000000000000e+02,2.494587400000000059e+02
1.710000000000000000e+02,2.497835399999999879e+02
1.720000000000000000e+02,2.500998400000000004e+02
1.730000000000000000e+02,2.504502699999999891e+02
1.740000000000000000e+02,2.507686300000000017e+02
1.750000000000000000e+02,2.510783700000000067e+02
1.760000000000000000e+02,2.514245899999999949e+02
1.770000000000000000e+02,2.517384000000000128e+02
1.780000000000000000e+02,2.520428499999999872e+02
1.790000000000000000e+02,2.523852100000000007e+02
1.800000000000000000e+02,2.526936300000000131e+02
1.810000000000000000e+02,2.529944500000000005e+02
1.820000000000000000e+02,2.533341700000000003e+02
1.830000000000000000e+02,2.536382600000000025e+02
1.840000000000000000e+02,2.539343599999999981e+02
1.850000000000000000e+02,2.542701099999999883e+02
1.860000000000000000e+02,2.545715600000000052e+02
1.870000000000000000e+02,2.548637699999999882e+02
1.880000000000000000e+02,2.551975899999999911e+02
1.890000000000000000e+02,2.554947699999999884e+02
1.900000000000000000e+02,2.557838299999999947e+02
1.910000000000000000e+02,2.561150200000000154e+02
1.920000000000000000e+02,2.564087200000000166e+02
1.930000000000000000e+02,2.566947000000000116e+02
1.940000000000000000e+02,2.570242900000000077e+02
1.950000000000000000e+02,2.573152200000000107e+02
1.960000000000000000e+02,2.575985400000000141e+02
1.970000000000000000e+02,2.579241599999999721e+02
1.980000000000000000e+02,2.582137799999999856e+02
1.990000000000000000e+02,2.584943200000000161e+02
2.000000000000000000e+02,2.588188799999999787e+02
2.010000000000000000e+02,2.591050700000000120e+02
2.020000000000000000e+02,2.591381200000000149e+02
2.030000000000000000e+02,2.585285000000000082e+02
2.040000000000000000e+02,2.586868299999999863e+02
2.050000000000000000e+02,2.588361199999999940e+02
2.060000000000000000e+02,2.590930200000000241e+02
2.070000000000000000e+02,2.593325199999999882e+02
2.080000000000000000e+02,2.595769700000000171e+02
2.090000000000000000e+02,2.598698400000000106e+02
2.100000000000000000e+02,2.601370800000000258e+02
2.110000000000000000e+02,2.603986499999999751e+02
2.120000000000000000e+02,2.607035200000000259e+02
2.130000000000000000e+02,2.609782700000000091e+02
2.140000000000000000e+02,2.612464899999999943e+02
2.150000000000000000e+02,2.615554500000000075e+02
2.160000000000000000e+02,2.618330100000000016e+02
2.170000000000000000e+02,2.621024499999999762e+02
2.180000000000000000e+02,2.624116799999999898e+02
2.190000000000000000e+02,2.626919899999999757e+02
2.200000000000000000e+02,2.629617000000000075e+02
2.210000000000000000e+02,2.632708099999999831e+02
2.220000000000000000e+02,2.635497399999999857e+02
2.230000000000000000e+02,2.638197900000000118e+02
2.240000000000000000e+02,2.641280800000000113e+02
2.250000000000000000e+02,2.644064900000000193e+02
2.260000000000000000e+02,2.646750799999999799e+02
2.270000000000000000e+02,2.649820900000000279e+02
2.280000000000000000e+02,2.652592500000000086e+02
2.290000000000000000e+02,2.655278599999999756e+02
2.300000000000000000e+02,2.658330700000000206e+02
2.310000000000000000e+02,2.661081800000000044e+02
2.320000000000000000e+02,2.663767399999999839e+02
2.330000000000000000e+02,2.666805100000000266e+02
2.340000000000000000e+02,2.669542799999999829e+02
2.350000000000000000e+02,2.672203999999999837e+02
2.360000000000000000e+02,2.675220299999999725e+02
2.370000000000000000e+02,2.677953499999999849e+02
2.380000000000000000e+02,2.680604900000000157e+02
2.390000000000000000e+02,2.683602599999999825e+02
2.400000000000000000e+02,2.686308000000000220e+02
2.410000000000000000e+02,2.688942299999999932e+02
2.420000000000000000e+02,2.691936299999999846e+02
2.430000000000000000e+02,2.694626200000000154e+02
2.440000000000000000e+02,2.697236899999999764e+02
2.450000000000000000e+02,2.700217900000000100e+02
2.460000000000000000e+02,2.702888800000000060e+02
2.470000000000000000e+02,2.705487400000000093e+02
2.480000000000000000e+02,2.708438400000000001e+02
2.490000000000000000e+02,2.711103800000000206e+02
2.500000000000000000e+02,2.713686500000000024e+02
2.510000000000000000e+02,2.716613199999999892e+02
2.520000000000000000e+02,2.719251100000000179e+02
2.530000000000000000e+02,2.721832600000000184e+02
2.540000000000000000e+02,2.724739700000000084e+02
2.550000000000000000e+02,2.727360499999999774e+02
2.560000000000000000e+02,2.729911200000000235e+02
2.570000000000000000e+02,2.732807000000000244e+02
2.580000000000000000e+02,2.735412900000000036e+02
2.590000000000000000e+02,2.737950099999999907e+02
2.600000000000000000e+02,2.740823100000000068e+02
2.610000000000000000e+02,2.743410000000000082e+02
2.620000000000000000e+02,2.745934399999999869e+02
2.630000000000000000e+02,2.748772900000000163e+02
2.640000000000000000e+02,2.751353500000000167e+02
2.650000000000000000e+02,2.753861099999999738e+02
2.660000000000000000e+02,2.756678200000000061e+02
2.670000000000000000e+02,2.759231899999999769e+02
2.680000000000000000e+02,2.761736099999999965e+02
2.690000000000000000e+02,2.764526700000000119e+02
2.700000000000000000e+02,2.767059899999999857e+02
2.710000000000000000e+02,2.769565400000000182e+02
2.720000000000000000e+02,2.772320900000000279e+02
2.730000000000000000e+02,2.774842800000000125e+02
2.740000000000000000e+02,2.777313500000000204e+02
2.750000000000000000e+02,2.780057699999999841e+02
2.760000000000000000e+02,2.782566800000000171e+02
2.770000000000000000e+02,2.785024099999999976e+02
2.780000000000000000e+02,2.787742600000000266e+02
2.790000000000000000e+02,2.790233799999999746e+02
2.800000000000000000e+02,2.792679400000000101e+02
2.810000000000000000e+02,2.795376299999999787e+02
2.820000000000000000e+02,2.797860699999999952e+02
2.830000000000000000e+02,2.800273399999999810e+02
2.840000000000000000e+02,2.802956199999999853e+02
2.850000000000000000e+02,2.805423599999999738e+02
2.860000000000000000e+02,2.807818899999999758e+02
2.870000000000000000e+02,2.810461700000000178e+02
2.880000000000000000e+02,2.812927599999999870e+02
2.890000000000000000e+02,2.815308499999999867e+02
2.900000000000000000e+02,2.817945599999999899e+02
2.910000000000000000e+02,2.820377799999999979e+02
2.920000000000000000e+02,2.822748700000000213e+02
2.930000000000000000e+02,2.825357399999999757e+02
2.940000000000000000e+02,2.827774999999999750e+02
2.950000000000000000e+02,2.830149200000000178e+02
2.960000000000000000e+02,2.832716100000000097e+02
2.970000000000000000e+02,2.835118400000000065e+02
2.980000000000000000e+02,2.837476500000000215e+02
2.990000000000000000e+02,2.840027499999999918e+02
3.000000000000000000e+02,2.842412699999999859e+02
3.010000000000000000e+02,2.844755900000000111e+02
3.020000000000000000e+02,2.847286100000000033e+02
3.030000000000000000e+02,2.849670399999999972e+02
3.040000000000000000e+02,2.849681100000000242e+02
3.050000000000000000e+02,2.845044300000000135e+02
3.060000000000000000e+02,2.846103800000000206e+02
3.070000000000000000e+02,2.847206400000000031e+02
3.080000000000000000e+02,2.849006999999999721e+02
3.090000000000000000e+02,2.850801399999999717e+02
3.100000000000000000e+02,2.852688899999999990e+02
3.110000000000000000e+02,2.854850500000000011e+02
3.120000000000000000e+02,2.856931799999999839e+02
3.130000000000000000e+02,2.859017900000000054e+02
3.140000000000000000e+02,2.861327800000000252e+02
3.150000000000000000e+02,2.863513500000000249e+02
3.160000000000000000e+02,2.865686600000000226e+02
3.170000000000000000e+02,2.868059400000000210e+02
3.180000000000000000e+02,2.870310699999999997e+02
3.190000000000000000e+02,2.872529299999999921e+02
3.200000000000000000e+02,2.874933199999999829e+02
3.210000000000000000e+02,2.877192099999999755e+02
3.220000000000000000e+02,2.879441199999999981e+02
3.230000000000000000e+02,2.881835899999999810e+02
3.240000000000000000e+02,2.884109199999999760e+02
3.250000000000000000e+02,2.886365099999999870e+02
3.260000000000000000e+02,2.888758900000000267e+02
3.270000000000000000e+02,2.891043999999999983e+02
3.280000000000000000e+02,2.893284600000000069e+02
3.290000000000000000e+02,2.895684499999999844e+02
3.300000000000000000e+02,2.897963899999999740e+02
3.310000000000000000e+02,2.900190400000000182e+02
3.320000000000000000e+02,2.902575400000000059e+02
3.330000000000000000e+02,2.904844400000000064e+02
3.340000000000000000e+02,2.907074000000000069e+02
3.350000000000000000e+02,2.909429900000000089e+02
3.360000000000000000e+02,2.911702300000000037e+02
3.370000000000000000e+02,2.913904099999999744e+02
3.380000000000000000e+02,2.916263700000000085e+02
3.390000000000000000e+02,2.918509799999999927e+02
3.400000000000000000e+02,2.920697599999999738e+02
3.410000000000000000e+02,2.923051100000000133e+02
3.420000000000000000e+02,2.925267900000000054e+02
3.430000000000000000e+02,2.927473100000000272e+02
3.440000000000000000e+02,2.929779399999999896e+02
3.450000000000000000e+02,2.931983299999999986e+02
3.460000000000000000e+02,2.934173599999999738e+02
3.470000000000000000e+02,2.936461499999999774e+02
3.480000000000000000e+02,2.938662400000000048e+02
3.490000000000000000e+02,2.940822800000000257e+02
3.500000000000000000e+02,2.943107899999999972e+02
3.510000000000000000e+02,2.945293899999999780e+02
3.520000000000000000e+02,2.947444199999999910e+02
3.530000000000000000e+02,2.949691500000000133e+02
3.540000000000000000e+02,2.951876199999999812e+02
3.550000000000000000e+02,2.953995400000000018e+02
3.560000000000000000e+02,2.956245099999999866e+02
3.570000000000000000e+02,2.958399999999999750e+02
3.580000000000000000e+02,2.960523699999999963e+02
3.590000000000000000e+02,2.962755700000000161e+02
3.600000000000000000e+02,2.964873999999999796e+02
3.610000000000000000e+02,2.966997700000000009e+02
3.620000000000000000e+02,2.969193700000000149e+02
3.630000000000000000e+02,2.971329299999999876e+02
3.640000000000000000e+02,2.973408499999999890e+02
3.650000000000000000e+02,2.975601199999999835e+02
3.660000000000000000e+02,2.977702899999999886e+02
3.670000000000000000e+02,2.979783600000000092e+02
3.680000000000000000e+02,2.981957699999999818e+02
3.690000000000000000e+02,2.984039599999999837e+02
3.700000000000000000e+02,2.986120300000000043e+02
3.710000000000000000e+02,2.986641500000000065e+02
3.720000000000000000e+02,2.986560099999999807e+02
3.730000000000000000e+02,2.988322800000000257e+02
3.740000000000000000e+02,2.990065299999999979e+02
3.750000000000000000e+02,2.991922599999999761e+02
3.760000000000000000e+02,2.993792399999999816e+02
3.770000000000000000e+02,2.995786100000000260e+02
3.780000000000000000e+02,2.997730700000000184e+02
3.790000000000000000e+02,2.999664900000000216e+02
3.800000000000000000e+02,3.001700399999999718e+02
3.810000000000000000e+02,3.003656899999999723e+02
3.820000000000000000e+02,3.005621899999999869e+02
3.830000000000000000e+02,3.007652600000000120e+02
3.840000000000000000e+02,3.009650899999999751e+02
3.850000000000000000e+02,3.011600999999999999e+02
3.860000000000000000e+02,3.013664200000000051e+02
3.870000000000000000e+02,3.015631399999999758e+02
3.880000000000000000e+02,3.017609600000000114e+02
3.890000000000000000e+02,3.019639000000000237e+02
3.900000000000000000e+02,3.021635099999999738e+02
3.910000000000000000e+02,3.023581800000000044e+02
3.920000000000000000e+02,3.025632899999999950e+02
3.930000000000000000e+02,3.027594300000000089e+02
3.940000000000000000e+02,3.029541899999999828e+02
3.950000000000000000e+02,3.031566500000000133e+02
3.960000000000000000e+02,3.033533600000000092e+02
3.970000000000000000e+02,3.035477000000000203e+02
3.980000000000000000e+02,3.037493000000000052e+02
3.990000000000000000e+02,3.039444899999999734e+02
