# Time [s], Temperature [C]
1.000000000000000000e+00,2.500000000000000000e+01
2.000000000000000000e+00,2.500000000000000000e+01
3.000000000000000000e+00,2.500000000000000000e+01
4.000000000000000000e+00,2.500000000000000000e+01
5.000000000000000000e+00,2.500000599999999906e+01
6.000000000000000000e+00,2.500002500000000083e+01
7.000000000000000000e+00,2.500010699999999986e+01
8.000000000000000000e+00,2.500036000000000058e+01
9.000000000000000000e+00,2.500104699999999980e+01
1.000000000000000000e+01,2.500265500000000074e+01
1.100000000000000000e+01,2.500599100000000163e+01
1.200000000000000000e+01,2.501226199999999977e+01
1.300000000000000000e+01,2.502308800000000133e+01
1.400000000000000000e+01,2.504048500000000033e+01
1.500000000000000000e+01,2.506680499999999867e+01
1.600000000000000000e+01,2.510464500000000143e+01
1.700000000000000000e+01,2.515675500000000042e+01
1.800000000000000000e+01,2.522594499999999940e+01
1.900000000000000000e+01,2.531498900000000063e+01
2.000000000000000000e+01,2.542657300000000120e+01
2.100000000000000000e+01,2.556321099999999902e+01
2.200000000000000000e+01,2.572723200000000077e+01
2.300000000000000000e+01,2.592074799999999968e+01
2.400000000000000000e+01,2.614562000000000097e+01
2.500000000000000000e+01,2.640348399999999884e+01
2.600000000000000000e+01,2.669573000000000107e+01
2.700000000000000000e+01,2.702350200000000058e+01
2.800000000000000000e+01,2.738771200000000050e+01
2.900000000000000000e+01,2.778909300000000115e+01
3.000000000000000000e+01,2.822819099999999892e+01
3.100000000000000000e+01,2.870530499999999918e+01
3.200000000000000000e+01,2.922061000000000064e+01
3.300000000000000000e+01,2.977413400000000010e+01
3.400000000000000000e+01,3.036578400000000144e+01
3.500000000000000000e+01,3.099531199999999842e+01
3.600000000000000000e+01,3.166238999999999848e+01
3.700000000000000000e+01,3.236659999999999826e+01
3.800000000000000000e+01,3.310743300000000033e+01
3.900000000000000000e+01,3.388429599999999908e+01
4.000000000000000000e+01,3.469657099999999872e+01
4.100000000000000000e+01,3.554356800000000050e+01
4.200000000000000000e+01,3.642452200000000317e+01
4.300000000000000000e+01,3.733869599999999878e+01
4.400000000000000000e+01,3.828532799999999980e+01
4.500000000000000000e+01,3.926351900000000228e+01
4.600000000000000000e+01,4.027250699999999739e+01
4.700000000000000000e+01,4.131136699999999706e+01
4.800000000000000000e+01,4.237929199999999952e+01
4.900000000000000000e+01,4.347541799999999768e+01
5.000000000000000000e+01,4.459880100000000169e+01
5.100000000000000000e+01,4.574864999999999782e+01
5.200000000000000000e+01,4.692410300000000234e+01
5.300000000000000000e+01,4.812429399999999902e+01
5.400000000000000000e+01,4.934835400000000050e+01
5.500000000000000000e+01,5.059544799999999753e+01
5.600000000000000000e+01,5.186482600000000076e+01
5.700000000000000000e+01,5.315558599999999956e+01
5.800000000000000000e+01,5.446690000000000254e+01
5.900000000000000000e+01,5.579804599999999937e+01
6.000000000000000000e+01,5.714829300000000245e+01
6.100000000000000000e+01,5.851680799999999749e+01
6.200000000000000000e+01,5.990291599999999761e+01
6.300000000000000000e+01,6.130582400000000121e+01
6.400000000000000000e+01,6.272489199999999698e+01
6.500000000000000000e+01,6.415934000000000026e+01
6.600000000000000000e+01,6.560857400000000439e+01
6.700000000000000000e+01,6.707194499999999948e+01
6.800000000000000000e+01,6.854865300000000161e+01
6.900000000000000000e+01,7.003817700000000457e+01
7.000000000000000000e+01,7.153994000000000142e+01
7.100000000000000000e+01,7.305327599999999677e+01
7.200000000000000000e+01,7.457752999999999588e+01
7.300000000000000000e+01,7.611220600000000047e+01
7.400000000000000000e+01,7.765671500000000549e+01
7.500000000000000000e+01,7.921047199999999577e+01
7.600000000000000000e+01,8.077297199999999577e+01
7.700000000000000000e+01,8.234365800000000490e+01
7.800000000000000000e+01,8.392200499999999863e+01
7.900000000000000000e+01,8.550749999999999318e+01
8.000000000000000000e+01,8.709963199999999972e+01
8.100000000000000000e+01,8.869792900000000202e+01
8.200000000000000000e+01,9.030190299999999581e+01
8.300000000000000000e+01,9.191108699999999487e+01
8.400000000000000000e+01,9.352501700000000540e+01
8.500000000000000000e+01,9.514324200000000076e+01
8.600000000000000000e+01,9.676534300000000144e+01
8.700000000000000000e+01,9.839086199999999849e+01
8.800000000000000000e+01,1.000193399999999997e+02
8.900000000000000000e+01,1.016504099999999937e+02
9.000000000000000000e+01,1.032836499999999944e+02
9.100000000000000000e+01,1.049186600000000027e+02
9.200000000000000000e+01,1.065550199999999990e+02
9.300000000000000000e+01,1.081923800000000000e+02
9.400000000000000000e+01,1.098303700000000021e+02
9.500000000000000000e+01,1.114686999999999983e+02
9.600000000000000000e+01,1.131068599999999975e+02
9.700000000000000000e+01,1.147446300000000008e+02
9.800000000000000000e+01,1.163816499999999934e+02
9.900000000000000000e+01,1.180175600000000031e+02
1.000000000000000000e+02,1.196520600000000059e+02
1.010000000000000000e+02,1.212848599999999948e+02
1.020000000000000000e+02,1.229156799999999947e+02
1.030000000000000000e+02,1.245442599999999942e+02
1.040000000000000000e+02,1.261702800000000053e+02
1.050000000000000000e+02,1.277934800000000024e+02
1.060000000000000000e+02,1.294136000000000024e+02
1.070000000000000000e+02,1.310304299999999955e+02
1.080000000000000000e+02,1.326436600000000112e+02
1.090000000000000000e+02,1.342531099999999924e+02
1.100000000000000000e+02,1.358585699999999861e+02
1.110000000000000000e+02,1.374597799999999950e+02
1.120000000000000000e+02,1.390565799999999967e+02
1.130000000000000000e+02,1.406487899999999911e+02
1.140000000000000000e+02,1.422362400000000093e+02
1.150000000000000000e+02,1.438187399999999911e+02
1.160000000000000000e+02,1.453961500000000058e+02
1.170000000000000000e+02,1.469683100000000024e+02
1.180000000000000000e+02,1.485350799999999936e+02
1.190000000000000000e+02,1.500962499999999977e+02
1.200000000000000000e+02,1.516517299999999864e+02
1.210000000000000000e+02,1.532014299999999878e+02
1.220000000000000000e+02,1.547452399999999955e+02
1.230000000000000000e+02,1.562829900000000123e+02
1.240000000000000000e+02,1.578146500000000003e+02
1.250000000000000000e+02,1.593400900000000036e+02
1.260000000000000000e+02,1.608591900000000123e+02
1.270000000000000000e+02,1.623719800000000077e+02
1.280000000000000000e+02,1.638782300000000021e+02
1.290000000000000000e+02,1.653779900000000112e+02
1.300000000000000000e+02,1.668711700000000064e+02
1.310000000000000000e+02,1.683577099999999973e+02
1.320000000000000000e+02,1.698374900000000025e+02
1.330000000000000000e+02,1.713105600000000095e+02
1.340000000000000000e+02,1.727768599999999992e+02
1.350000000000000000e+02,1.742362799999999936e+02
1.360000000000000000e+02,1.756888700000000085e+02
1.370000000000000000e+02,1.771345799999999997e+02
1.380000000000000000e+02,1.785733299999999986e+02
1.390000000000000000e+02,1.800051699999999926e+02
1.400000000000000000e+02,1.814300399999999911e+02
1.410000000000000000e+02,1.828479800000000068e+02
1.420000000000000000e+02,1.842588700000000017e+02
1.430000000000000000e+02,1.856627799999999979e+02
1.440000000000000000e+02,1.870596500000000049e+02
1.450000000000000000e+02,1.884495499999999879e+02
1.460000000000000000e+02,1.898323800000000006e+02
1.470000000000000000e+02,1.912082399999999893e+02
1.480000000000000000e+02,1.925770100000000014e+02
1.490000000000000000e+02,1.939388399999999990e+02
1.500000000000000000e+02,1.952935799999999915e+02
1.510000000000000000e+02,1.966413100000000043e+02
1.520000000000000000e+02,1.979821000000000026e+02
1.530000000000000000e+02,1.993158099999999990e+02
1.540000000000000000e+02,2.006425600000000031e+02
1.550000000000000000e+02,2.019623899999999992e+02
1.560000000000000000e+02,2.032751800000000060e+02
1.570000000000000000e+02,2.045809600000000046e+02
1.580000000000000000e+02,2.058798099999999920e+02
1.590000000000000000e+02,2.071717700000000093e+02
1.600000000000000000e+02,2.084567900000000122e+02
1.610000000000000000e+02,2.097348599999999976e+02
1.620000000000000000e+02,2.110060100000000034e+02
1.630000000000000000e+02,2.122702899999999886e+02
1.640000000000000000e+02,2.135337499999999977e+02
1.650000000000000000e+02,2.147868699999999933e+02
1.660000000000000000e+02,2.160322299999999984e+02
1.670000000000000000e+02,2.172704300000000046e+02
1.680000000000000000e+02,2.185016200000000026e+02
1.690000000000000000e+02,2.197258600000000115e+02
1.700000000000000000e+02,2.209432799999999872e+02
1.710000000000000000e+02,2.221539500000000089e+02
1.720000000000000000e+02,2.233579900000000009e+02
1.730000000000000000e+02,2.245554500000000075e+02
1.740000000000000000e+02,2.257464400000000069e+02
1.750000000000000000e+02,2.269309800000000052e+02
1.760000000000000000e+02,2.281090700000000027e+02
1.770000000000000000e+02,2.292806500000000085e+02
1.780000000000000000e+02,2.304457199999999943e+02
1.790000000000000000e+02,2.316042600000000107e+02
1.800000000000000000e+02,2.327562299999999880e+02
1.810000000000000000e+02,2.339015499999999861e+02
1.820000000000000000e+02,2.350401500000000112e+02
1.830000000000000000e+02,2.361719999999999970e+02
1.840000000000000000e+02,2.372970699999999908e+02
1.850000000000000000e+02,2.384154100000000085e+02
1.860000000000000000e+02,2.395268900000000087e+02
1.870000000000000000e+02,2.406314500000000010e+02
1.880000000000000000e+02,2.417291700000000105e+02
1.890000000000000000e+02,2.428200400000000059e+02
1.900000000000000000e+02,2.439040099999999995e+02
1.910000000000000000e+02,2.449810200000000009e+02
1.920000000000000000e+02,2.460510999999999910e+02
1.930000000000000000e+02,2.471142299999999921e+02
1.940000000000000000e+02,2.481703500000000133e+02
1.950000000000000000e+02,2.492195000000000107e+02
1.960000000000000000e+02,2.502616099999999904e+02
1.970000000000000000e+02,2.512966900000000123e+02
1.980000000000000000e+02,2.523246900000000039e+02
1.990000000000000000e+02,2.533455700000000093e+02
2.000000000000000000e+02,2.543592999999999904e+02
2.010000000000000000e+02,2.553658299999999883e+02
2.020000000000000000e+02,2.563651399999999967e+02
2.030000000000000000e+02,2.573571800000000280e+02
2.040000000000000000e+02,2.583418599999999969e+02
2.050000000000000000e+02,2.593191499999999792e+02
2.060000000000000000e+02,2.602889999999999873e+02
2.070000000000000000e+02,2.612513099999999895e+02
2.080000000000000000e+02,2.622060500000000047e+02
2.090000000000000000e+02,2.631531699999999887e+02
2.100000000000000000e+02,2.640925599999999918e+02
2.110000000000000000e+02,2.650241700000000264e+02
2.120000000000000000e+02,2.659479699999999980e+02
2.130000000000000000e+02,2.668638000000000261e+02
2.140000000000000000e+02,2.677716100000000097e+02
2.150000000000000000e+02,2.686713899999999740e+02
2.160000000000000000e+02,2.695629599999999755e+02
2.170000000000000000e+02,2.704462300000000141e+02
2.180000000000000000e+02,2.713211999999999762e+02
2.190000000000000000e+02,2.721877099999999814e+02
2.200000000000000000e+02,2.730457499999999982e+02
2.210000000000000000e+02,2.738952300000000264e+02
2.220000000000000000e+02,2.747360199999999963e+02
2.230000000000000000e+02,2.755681799999999839e+02
2.240000000000000000e+02,2.763915700000000015e+02
2.250000000000000000e+02,2.772061499999999796e+02
2.260000000000000000e+02,2.780119000000000256e+02
2.270000000000000000e+02,2.788088099999999940e+02
2.280000000000000000e+02,2.795968599999999924e+02
2.290000000000000000e+02,2.803759499999999889e+02
2.300000000000000000e+02,2.811460599999999772e+02
2.310000000000000000e+02,2.819070399999999950e+02
2.320000000000000000e+02,2.826587200000000166e+02
2.330000000000000000e+02,2.834010000000000105e+02
2.340000000000000000e+02,2.841336999999999762e+02
2.350000000000000000e+02,2.848566599999999767e+02
2.360000000000000000e+02,2.855697599999999738e+02
2.370000000000000000e+02,2.862728599999999801e+02
2.380000000000000000e+02,2.869659100000000080e+02
2.390000000000000000e+02,2.876487999999999943e+02
2.400000000000000000e+02,2.883215299999999957e+02
2.410000000000000000e+02,2.889839799999999741e+02
2.420000000000000000e+02,2.896361400000000117e+02
2.430000000000000000e+02,2.902780500000000075e+02
2.440000000000000000e+02,2.909096099999999865e+02
2.450000000000000000e+02,2.915308499999999867e+02
2.460000000000000000e+02,2.921418199999999956e+02
2.470000000000000000e+02,2.927424899999999752e+02
2.480000000000000000e+02,2.933328900000000203e+02
2.490000000000000000e+02,2.939130900000000111e+02
2.500000000000000000e+02,2.944830299999999852e+02
2.510000000000000000e+02,2.950428800000000251e+02
2.520000000000000000e+02,2.955926200000000108e+02
2.530000000000000000e+02,2.961323199999999929e+02
2.540000000000000000e+02,2.966619900000000030e+02
2.550000000000000000e+02,2.971816999999999780e+02
2.560000000000000000e+02,2.976915900000000192e+02
2.570000000000000000e+02,2.981917100000000005e+02
2.580000000000000000e+02,2.986821299999999724e+02
2.590000000000000000e+02,2.991629300000000171e+02
2.600000000000000000e+02,2.996342200000000275e+02
2.610000000000000000e+02,3.000960999999999785e+02
2.620000000000000000e+02,3.005487100000000282e+02
2.630000000000000000e+02,3.009921299999999746e+02
2.640000000000000000e+02,3.014264499999999884e+02
2.650000000000000000e+02,3.018518700000000194e+02
2.660000000000000000e+02,3.022684600000000046e+02
2.670000000000000000e+02,3.026764200000000073e+02
2.680000000000000000e+02,3.030758700000000090e+02
2.690000000000000000e+02,3.034743300000000090e+02
2.700000000000000000e+02,3.038612699999999904e+02
2.710000000000000000e+02,3.042395900000000211e+02
2.720000000000000000e+02,3.046102300000000014e+02
2.730000000000000000e+02,3.049733600000000138e+02
2.740000000000000000e+02,3.053290999999999826e+02
2.750000000000000000e+02,3.056775200000000154e+02
2.760000000000000000e+02,3.060186199999999985e+02
2.770000000000000000e+02,3.063524199999999951e+02
2.780000000000000000e+02,3.066791099999999801e+02
2.790000000000000000e+02,3.069987499999999727e+02
2.800000000000000000e+02,3.073115199999999732e+02
2.810000000000000000e+02,3.076176100000000133e+02
2.820000000000000000e+02,3.079171799999999735e+02
2.830000000000000000e+02,3.082105099999999993e+02
2.840000000000000000e+02,3.084977700000000027e+02
2.850000000000000000e+02,3.087792099999999778e+02
2.860000000000000000e+02,3.090549899999999752e+02
2.870000000000000000e+02,3.093254400000000146e+02
2.880000000000000000e+02,3.095907000000000266e+02
2.890000000000000000e+02,3.098510099999999738e+02
2.900000000000000000e+02,3.101066000000000145e+02
2.910000000000000000e+02,3.103576699999999846e+02
2.920000000000000000e+02,3.106043999999999983e+02
2.930000000000000000e+02,3.108469799999999736e+02
2.940000000000000000e+02,3.110856299999999806e+02
2.950000000000000000e+02,3.113204999999999814e+02
2.960000000000000000e+02,3.115517899999999827e+02
2.970000000000000000e+02,3.117796599999999785e+02
2.980000000000000000e+02,3.120042700000000195e+02
2.990000000000000000e+02,3.122257999999999925e+02
3.000000000000000000e+02,3.124443999999999733e+02
3.010000000000000000e+02,3.126601900000000001e+02
3.020000000000000000e+02,3.128733199999999783e+02
3.030000000000000000e+02,3.130839500000000157e+02
3.040000000000000000e+02,3.132922100000000114e+02
3.050000000000000000e+02,3.134982299999999782e+02
3.060000000000000000e+02,3.137021199999999794e+02
3.070000000000000000e+02,3.139040200000000027e+02
3.080000000000000000e+02,3.141040300000000229e+02
3.090000000000000000e+02,3.143023099999999772e+02
3.100000000000000000e+02,3.144988700000000108e+02
3.110000000000000000e+02,3.147144799999999805e+02
3.120000000000000000e+02,3.149185499999999820e+02
3.130000000000000000e+02,3.151189600000000155e+02
3.140000000000000000e+02,3.153174399999999764e+02
3.150000000000000000e+02,3.155139800000000037e+02
3.160000000000000000e+02,3.157085599999999772e+02
3.170000000000000000e+02,3.159012500000000045e+02
3.180000000000000000e+02,3.160921299999999974e+02
3.190000000000000000e+02,3.162812799999999811e+02
3.200000000000000000e+02,3.164689300000000003e+02
3.210000000000000000e+02,3.166551799999999730e+02
3.220000000000000000e+02,3.168402399999999943e+02
3.230000000000000000e+02,3.170242900000000077e+02
3.240000000000000000e+02,3.172074600000000260e+02
3.250000000000000000e+02,3.173898599999999988e+02
3.260000000000000000e+02,3.175716899999999896e+02
3.270000000000000000e+02,3.177530199999999923e+02
3.280000000000000000e+02,3.179339600000000132e+02
3.290000000000000000e+02,3.181146899999999960e+02
3.300000000000000000e+02,3.182951699999999846e+02
3.310000000000000000e+02,3.184755599999999731e+02
3.320000000000000000e+02,3.186559100000000058e+02
3.330000000000000000e+02,3.188362999999999943e+02
3.340000000000000000e+02,3.190167799999999829e+02
3.350000000000000000e+02,3.191973899999999844e+02
3.360000000000000000e+02,3.193781999999999925e+02
3.370000000000000000e+02,3.195592700000000264e+02
3.380000000000000000e+02,3.197406300000000101e+02
3.390000000000000000e+02,3.199223000000000070e+02
3.400000000000000000e+02,3.201043700000000172e+02
3.410000000000000000e+02,3.202867699999999900e+02
3.420000000000000000e+02,3.204696700000000078e+02
3.430000000000000000e+02,3.206529800000000137e+02
3.440000000000000000e+02,3.208368199999999888e+02
3.450000000000000000e+02,3.210211499999999774e+02
3.460000000000000000e+02,3.212060200000000236e+02
3.470000000000000000e+02,3.213914500000000203e+02
3.480000000000000000e+02,3.215774200000000178e+02
3.490000000000000000e+02,3.217640400000000227e+02
3.500000000000000000e+02,3.219512599999999907e+02
3.510000000000000000e+02,3.221391600000000039e+02
3.520000000000000000e+02,3.223276999999999930e+02
3.530000000000000000e+02,3.225169399999999769e+02
3.540000000000000000e+02,3.227068800000000124e+02
3.550000000000000000e+02,3.229443400000000111e+02
3.560000000000000000e+02,3.231571700000000078e+02
3.570000000000000000e+02,3.233634599999999750e+02
3.580000000000000000e+02,3.235670499999999947e+02
3.590000000000000000e+02,3.237683099999999854e+02
3.600000000000000000e+02,3.239679899999999861e+02
3.610000000000000000e+02,3.241665600000000040e+02
3.620000000000000000e+02,3.243645300000000020e+02
3.630000000000000000e+02,3.245621899999999869e+02
3.640000000000000000e+02,3.247599200000000224e+02
3.650000000000000000e+02,3.249579499999999825e+02
3.660000000000000000e+02,3.251564900000000193e+02
3.670000000000000000e+02,3.253557099999999878e+02
3.680000000000000000e+02,3.255557900000000018e+02
3.690000000000000000e+02,3.257567700000000173e+02
3.700000000000000000e+02,3.259587099999999964e+02
3.710000000000000000e+02,3.261616799999999898e+02
3.720000000000000000e+02,3.263657799999999725e+02
3.730000000000000000e+02,3.265710100000000011e+02
3.740000000000000000e+02,3.267773700000000190e+02
3.750000000000000000e+02,3.269849899999999820e+02
3.760000000000000000e+02,3.271937899999999786e+02
3.770000000000000000e+02,3.274039000000000215e+02
3.780000000000000000e+02,3.276153299999999717e+02
3.790000000000000000e+02,3.278280300000000125e+02
3.800000000000000000e+02,3.280420500000000175e+02
3.810000000000000000e+02,3.282573899999999867e+02
3.820000000000000000e+02,3.284740300000000275e+02
3.830000000000000000e+02,3.286920200000000136e+02
3.840000000000000000e+02,3.289113500000000272e+02
3.850000000000000000e+02,3.291320799999999736e+02
3.860000000000000000e+02,3.293542499999999791e+02
3.870000000000000000e+02,3.295777899999999931e+02
3.880000000000000000e+02,3.298028600000000097e+02
3.890000000000000000e+02,3.300292999999999779e+02
3.900000000000000000e+02,3.302572299999999927e+02
3.910000000000000000e+02,3.304866000000000099e+02
3.920000000000000000e+02,3.307174699999999916e+02
3.930000000000000000e+02,3.309498899999999821e+02
3.940000000000000000e+02,3.311837199999999939e+02
3.950000000000000000e+02,3.314192800000000148e+02
3.960000000000000000e+02,3.316563100000000190e+02
3.970000000000000000e+02,3.318949900000000071e+02
3.980000000000000000e+02,3.321354400000000169e+02
3.990000000000000000e+02,3.323773800000000165e+02
