# Time [s], Temperature [C]
1.000000000000000000e+00,2.499997700000000123e+01
2.000000000000000000e+00,6.454583700000000590e+01
3.000000000000000000e+00,8.707401299999999367e+01
4.000000000000000000e+00,1.053631400000000014e+02
5.000000000000000000e+00,1.206190100000000029e+02
6.000000000000000000e+00,1.339964799999999912e+02
7.000000000000000000e+00,1.459606899999999996e+02
8.000000000000000000e+00,1.568546100000000081e+02
9.000000000000000000e+00,1.669046500000000037e+02
1.000000000000000000e+01,1.763068499999999972e+02
1.100000000000000000e+01,1.852317199999999957e+02
1.200000000000000000e+01,1.938170499999999947e+02
1.300000000000000000e+01,2.020877199999999903e+02
1.400000000000000000e+01,2.099546200000000056e+02
1.500000000000000000e+01,2.173227799999999945e+02
1.600000000000000000e+01,2.241787699999999859e+02
1.700000000000000000e+01,2.305629099999999880e+02
1.800000000000000000e+01,2.364849900000000105e+02
1.900000000000000000e+01,2.419610600000000034e+02
2.000000000000000000e+01,2.470277600000000007e+02
2.100000000000000000e+01,2.516021299999999883e+02
2.200000000000000000e+01,2.557022699999999986e+02
2.300000000000000000e+01,2.594856300000000147e+02
2.400000000000000000e+01,2.627454500000000053e+02
2.500000000000000000e+01,2.656282299999999736e+02
2.600000000000000000e+01,2.685082100000000196e+02
2.700000000000000000e+01,2.708946799999999939e+02
2.800000000000000000e+01,2.731102000000000203e+02
2.900000000000000000e+01,2.756723900000000071e+02
3.000000000000000000e+01,2.776832299999999805e+02
3.100000000000000000e+01,2.796816699999999969e+02
3.200000000000000000e+01,2.822455400000000054e+02
3.300000000000000000e+01,2.841508799999999724e+02
3.400000000000000000e+01,2.861266499999999837e+02
3.500000000000000000e+01,2.887771000000000186e+02
3.600000000000000000e+01,2.906783399999999915e+02
3.700000000000000000e+01,2.926673900000000117e+02
3.800000000000000000e+01,2.953639499999999884e+02
3.900000000000000000e+01,2.972658400000000256e+02
4.000000000000000000e+01,2.992275099999999952e+02
4.100000000000000000e+01,3.018655099999999720e+02
4.200000000000000000e+01,3.033602900000000204e+02
4.300000000000000000e+01,2.988507399999999734e+02
4.400000000000000000e+01,3.020071699999999737e+02
4.500000000000000000e+01,3.034609399999999937e+02
4.600000000000000000e+01,3.055013999999999896e+02
4.700000000000000000e+01,3.079011800000000108e+02
4.800000000000000000e+01,3.098684999999999832e+02
4.900000000000000000e+01,3.117236599999999953e+02
5.000000000000000000e+01,3.140415600000000040e+02
5.100000000000000000e+01,3.159025599999999940e+02
5.200000000000000000e+01,3.176778600000000097e+02
5.300000000000000000e+01,3.198173499999999763e+02
5.400000000000000000e+01,3.215934399999999869e+02
5.500000000000000000e+01,3.232951699999999846e+02
5.600000000000000000e+01,3.252855799999999817e+02
5.700000000000000000e+01,3.269901100000000156e+02
5.800000000000000000e+01,3.286343699999999899e+02
5.900000000000000000e+01,3.305004900000000134e+02
6.000000000000000000e+01,3.321401999999999930e+02
6.100000000000000000e+01,3.337220500000000243e+02
6.200000000000000000e+01,3.354714999999999918e+02
6.300000000000000000e+01,3.370356800000000135e+02
6.400000000000000000e+01,3.385539200000000051e+02
6.500000000000000000e+01,3.402010200000000282e+02
6.600000000000000000e+01,3.417001599999999826e+02
6.700000000000000000e+01,3.431600999999999999e+02
6.800000000000000000e+01,3.447200900000000274e+02
6.900000000000000000e+01,3.461659900000000221e+02
7.000000000000000000e+01,3.475818800000000124e+02
7.100000000000000000e+01,3.490794399999999769e+02
7.200000000000000000e+01,3.504857799999999770e+02
7.300000000000000000e+01,3.518489700000000084e+02
7.400000000000000000e+01,3.532943700000000149e+02
7.500000000000000000e+01,3.546454499999999825e+02
7.600000000000000000e+01,3.559752799999999979e+02
7.700000000000000000e+01,3.572734399999999937e+02
7.800000000000000000e+01,3.564049400000000105e+02
7.900000000000000000e+01,3.572536000000000058e+02
8.000000000000000000e+01,3.581040300000000229e+02
8.100000000000000000e+01,3.591538400000000024e+02
8.200000000000000000e+01,3.602568099999999731e+02
8.300000000000000000e+01,3.614822100000000091e+02
8.400000000000000000e+01,3.626879000000000133e+02
8.500000000000000000e+01,3.638944099999999935e+02
8.600000000000000000e+01,3.651559100000000058e+02
8.700000000000000000e+01,3.663714600000000132e+02
8.800000000000000000e+01,3.675812999999999988e+02
8.900000000000000000e+01,3.688176000000000272e+02
9.000000000000000000e+01,3.700193800000000124e+02
9.100000000000000000e+01,3.711981200000000172e+02
9.200000000000000000e+01,3.724035900000000083e+02
9.300000000000000000e+01,3.735737300000000118e+02
9.400000000000000000e+01,3.747216799999999921e+02
9.500000000000000000e+01,3.758959699999999771e+02
9.600000000000000000e+01,3.770349100000000249e+02
9.700000000000000000e+01,3.781551799999999730e+02
9.800000000000000000e+01,3.792941299999999956e+02
9.900000000000000000e+01,3.804041700000000219e+02
1.000000000000000000e+02,3.815010700000000270e+02
1.010000000000000000e+02,3.826138300000000072e+02
1.020000000000000000e+02,3.836964399999999955e+02
1.030000000000000000e+02,3.847673300000000154e+02
1.040000000000000000e+02,3.858459199999999782e+02
1.050000000000000000e+02,3.869046900000000164e+02
1.060000000000000000e+02,3.879474799999999846e+02
1.070000000000000000e+02,3.889979599999999778e+02
1.080000000000000000e+02,3.900310999999999808e+02
1.090000000000000000e+02,3.910492600000000039e+02
1.100000000000000000e+02,3.920838600000000156e+02
1.110000000000000000e+02,3.927863500000000272e+02
1.120000000000000000e+02,3.935172999999999774e+02
1.130000000000000000e+02,3.944560200000000236e+02
1.140000000000000000e+02,3.953497300000000223e+02
1.150000000000000000e+02,3.962690099999999802e+02
1.160000000000000000e+02,3.971971700000000283e+02
1.170000000000000000e+02,3.981268000000000029e+02
1.180000000000000000e+02,3.990607600000000161e+02
1.190000000000000000e+02,3.999997299999999996e+02
1.200000000000000000e+02,4.009384499999999889e+02
1.210000000000000000e+02,4.018685300000000211e+02
1.220000000000000000e+02,4.028011200000000258e+02
1.230000000000000000e+02,4.037319600000000150e+02
1.240000000000000000e+02,4.046536899999999832e+02
1.250000000000000000e+02,4.055809600000000046e+02
1.260000000000000000e+02,4.064957899999999995e+02
1.270000000000000000e+02,4.074073500000000081e+02
1.280000000000000000e+02,4.083174099999999953e+02
1.290000000000000000e+02,4.092178000000000111e+02
1.300000000000000000e+02,4.101107799999999770e+02
1.310000000000000000e+02,4.110074799999999868e+02
1.320000000000000000e+02,4.118894999999999982e+02
1.330000000000000000e+02,4.127664199999999823e+02
1.340000000000000000e+02,4.136445600000000127e+02
1.350000000000000000e+02,4.145144300000000044e+02
1.360000000000000000e+02,4.153750299999999811e+02
1.370000000000000000e+02,4.162408800000000042e+02
1.380000000000000000e+02,4.170938699999999812e+02
1.390000000000000000e+02,4.179410100000000057e+02
1.400000000000000000e+02,4.187914099999999848e+02
1.410000000000000000e+02,4.196334800000000200e+02
1.420000000000000000e+02,4.204651799999999753e+02
1.430000000000000000e+02,4.213011799999999880e+02
1.440000000000000000e+02,4.221297599999999761e+02
1.450000000000000000e+02,4.228059400000000210e+02
1.460000000000000000e+02,4.235018600000000220e+02
1.470000000000000000e+02,4.242835400000000163e+02
1.480000000000000000e+02,4.250600299999999834e+02
1.490000000000000000e+02,4.258390800000000240e+02
1.500000000000000000e+02,4.266118200000000229e+02
1.510000000000000000e+02,4.273823499999999740e+02
1.520000000000000000e+02,4.281574400000000082e+02
1.530000000000000000e+02,4.289316400000000158e+02
1.540000000000000000e+02,4.297004400000000146e+02
1.550000000000000000e+02,4.304692699999999945e+02
1.560000000000000000e+02,4.312356599999999958e+02
1.570000000000000000e+02,4.319995999999999867e+02
1.580000000000000000e+02,4.327665700000000015e+02
1.590000000000000000e+02,4.335276200000000131e+02
1.600000000000000000e+02,4.342853400000000192e+02
1.610000000000000000e+02,4.350449499999999716e+02
1.620000000000000000e+02,4.357998000000000047e+02
1.630000000000000000e+02,4.365499300000000176e+02
1.640000000000000000e+02,4.373026100000000156e+02
1.650000000000000000e+02,4.380473299999999881e+02
1.660000000000000000e+02,4.387893100000000004e+02
1.670000000000000000e+02,4.395249299999999835e+02
1.680000000000000000e+02,4.402586099999999760e+02
1.690000000000000000e+02,4.409903600000000097e+02
1.700000000000000000e+02,4.417217699999999923e+02
1.710000000000000000e+02,4.424513200000000097e+02
1.720000000000000000e+02,4.431723600000000260e+02
1.730000000000000000e+02,4.438933700000000044e+02
1.740000000000000000e+02,4.446145900000000211e+02
1.750000000000000000e+02,4.453286400000000071e+02
1.760000000000000000e+02,4.459921600000000126e+02
1.770000000000000000e+02,4.466298800000000142e+02
1.780000000000000000e+02,4.473002299999999991e+02
1.790000000000000000e+02,4.479808699999999817e+02
1.800000000000000000e+02,4.486614999999999895e+02
1.810000000000000000e+02,4.493368800000000078e+02
1.820000000000000000e+02,4.500121199999999817e+02
1.830000000000000000e+02,4.506872299999999996e+02
1.840000000000000000e+02,4.513568399999999770e+02
1.850000000000000000e+02,4.520272499999999809e+02
1.860000000000000000e+02,4.526975699999999847e+02
1.870000000000000000e+02,4.533672799999999938e+02
1.880000000000000000e+02,4.540348799999999869e+02
1.890000000000000000e+02,4.547014800000000037e+02
1.900000000000000000e+02,4.553619100000000230e+02
1.910000000000000000e+02,4.560230700000000184e+02
1.920000000000000000e+02,4.566879599999999755e+02
1.930000000000000000e+02,4.573439599999999814e+02
1.940000000000000000e+02,4.580000600000000190e+02
1.950000000000000000e+02,4.586550899999999729e+02
1.960000000000000000e+02,4.593037400000000048e+02
1.970000000000000000e+02,4.599586800000000153e+02
1.980000000000000000e+02,4.606030900000000088e+02
1.990000000000000000e+02,4.612454500000000053e+02
2.000000000000000000e+02,4.618893699999999853e+02
2.010000000000000000e+02,4.625262500000000045e+02
2.020000000000000000e+02,4.631648299999999949e+02
2.030000000000000000e+02,4.637831100000000220e+02
2.040000000000000000e+02,4.643832699999999818e+02
2.050000000000000000e+02,4.649961200000000190e+02
2.060000000000000000e+02,4.656023900000000140e+02
2.070000000000000000e+02,4.662110900000000129e+02
2.080000000000000000e+02,4.668193099999999731e+02
2.090000000000000000e+02,4.674279500000000098e+02
2.100000000000000000e+02,4.680285900000000083e+02
2.110000000000000000e+02,4.686343100000000277e+02
2.120000000000000000e+02,4.692322700000000282e+02
2.130000000000000000e+02,4.698356899999999996e+02
2.140000000000000000e+02,4.704302999999999884e+02
2.150000000000000000e+02,4.710263400000000047e+02
2.160000000000000000e+02,4.716193799999999783e+02
2.170000000000000000e+02,4.722119099999999889e+02
2.180000000000000000e+02,4.728000499999999988e+02
2.190000000000000000e+02,4.733918800000000147e+02
2.200000000000000000e+02,4.739750399999999786e+02
2.210000000000000000e+02,4.745650899999999979e+02
2.220000000000000000e+02,4.751454499999999825e+02
2.230000000000000000e+02,4.757254899999999793e+02
2.240000000000000000e+02,4.763039600000000178e+02
2.250000000000000000e+02,4.768808000000000220e+02
2.260000000000000000e+02,4.774553199999999720e+02
2.270000000000000000e+02,4.780282900000000268e+02
2.280000000000000000e+02,4.785916100000000029e+02
2.290000000000000000e+02,4.791375100000000202e+02
2.300000000000000000e+02,4.796951300000000060e+02
2.310000000000000000e+02,4.802434999999999832e+02
2.320000000000000000e+02,4.807938199999999824e+02
2.330000000000000000e+02,4.813458899999999971e+02
2.340000000000000000e+02,4.818907199999999875e+02
2.350000000000000000e+02,4.824391800000000217e+02
2.360000000000000000e+02,4.829836700000000178e+02
2.370000000000000000e+02,4.835264300000000048e+02
2.380000000000000000e+02,4.840701900000000251e+02
2.390000000000000000e+02,4.846079399999999850e+02
2.400000000000000000e+02,4.851500199999999836e+02
2.410000000000000000e+02,4.856859400000000164e+02
2.420000000000000000e+02,4.862222600000000057e+02
2.430000000000000000e+02,4.867553399999999897e+02
2.440000000000000000e+02,4.872897600000000011e+02
2.450000000000000000e+02,4.878180199999999900e+02
2.460000000000000000e+02,4.883508600000000115e+02
2.470000000000000000e+02,4.888790000000000191e+02
2.480000000000000000e+02,4.894071700000000078e+02
2.490000000000000000e+02,4.899334999999999809e+02
2.500000000000000000e+02,4.904599600000000237e+02
2.510000000000000000e+02,4.909848000000000070e+02
2.520000000000000000e+02,4.915077800000000252e+02
2.530000000000000000e+02,4.920320699999999761e+02
2.540000000000000000e+02,4.925504199999999742e+02
2.550000000000000000e+02,4.930726000000000226e+02
2.560000000000000000e+02,4.935856299999999806e+02
2.570000000000000000e+02,4.941002500000000168e+02
2.580000000000000000e+02,4.946102000000000203e+02
2.590000000000000000e+02,4.951191999999999780e+02
2.600000000000000000e+02,4.956303700000000276e+02
2.610000000000000000e+02,4.961354400000000169e+02
2.620000000000000000e+02,4.966465799999999717e+02
2.630000000000000000e+02,4.971573200000000270e+02
2.640000000000000000e+02,4.976645199999999818e+02
2.650000000000000000e+02,4.981711700000000178e+02
2.660000000000000000e+02,4.986794699999999807e+02
2.670000000000000000e+02,4.991898199999999974e+02
2.680000000000000000e+02,4.997014199999999846e+02
2.690000000000000000e+02,5.002088600000000156e+02
2.700000000000000000e+02,5.007225999999999999e+02
2.710000000000000000e+02,5.012365699999999720e+02
2.720000000000000000e+02,5.017466400000000135e+02
2.730000000000000000e+02,5.022635200000000282e+02
2.740000000000000000e+02,5.027775300000000129e+02
2.750000000000000000e+02,5.032967499999999745e+02
2.760000000000000000e+02,5.038121899999999869e+02
2.770000000000000000e+02,5.043359699999999748e+02
2.780000000000000000e+02,5.048617199999999912e+02
2.790000000000000000e+02,5.053845200000000091e+02
2.800000000000000000e+02,5.059146999999999821e+02
2.810000000000000000e+02,5.064453100000000063e+02
2.820000000000000000e+02,5.069792199999999980e+02
2.830000000000000000e+02,5.075167799999999829e+02
2.840000000000000000e+02,5.080612499999999727e+02
2.850000000000000000e+02,5.086032999999999902e+02
2.860000000000000000e+02,5.091558800000000247e+02
2.870000000000000000e+02,5.097102100000000178e+02
2.880000000000000000e+02,5.102694099999999935e+02
2.890000000000000000e+02,5.108352399999999989e+02
2.900000000000000000e+02,5.114014300000000048e+02
2.910000000000000000e+02,5.119615800000000263e+02
2.920000000000000000e+02,5.125436999999999443e+02
2.930000000000000000e+02,5.131274399999999787e+02
2.940000000000000000e+02,5.137208299999999781e+02
2.950000000000000000e+02,5.143220199999999522e+02
2.960000000000000000e+02,5.149329800000000432e+02
2.970000000000000000e+02,5.155528600000000097e+02
2.980000000000000000e+02,5.161827399999999670e+02
2.990000000000000000e+02,5.168184199999999464e+02
3.000000000000000000e+02,5.174641699999999673e+02
3.010000000000000000e+02,5.181244500000000244e+02
3.020000000000000000e+02,5.187899800000000141e+02
3.030000000000000000e+02,5.194656999999999698e+02
3.040000000000000000e+02,5.201537499999999454e+02
3.050000000000000000e+02,5.208504599999999982e+02
3.060000000000000000e+02,5.215571300000000292e+02
3.070000000000000000e+02,5.222763700000000426e+02
3.080000000000000000e+02,5.230053100000000086e+02
3.090000000000000000e+02,5.237450599999999667e+02
3.100000000000000000e+02,5.244954800000000432e+02
3.110000000000000000e+02,5.252565899999999601e+02
3.120000000000000000e+02,5.260275900000000320e+02
3.130000000000000000e+02,5.268094499999999698e+02
3.140000000000000000e+02,5.276011399999999867e+02
3.150000000000000000e+02,5.284026499999999942e+02
3.160000000000000000e+02,5.292108799999999746e+02
3.170000000000000000e+02,5.300312500000000000e+02
3.180000000000000000e+02,5.308609000000000151e+02
3.190000000000000000e+02,5.316992800000000443e+02
3.200000000000000000e+02,5.325441299999999956e+02
3.210000000000000000e+02,5.333989900000000262e+02
3.220000000000000000e+02,5.342621500000000196e+02
3.230000000000000000e+02,5.351307399999999461e+02
3.240000000000000000e+02,5.360081199999999626e+02
3.250000000000000000e+02,5.368867199999999684e+02
3.260000000000000000e+02,5.377775900000000320e+02
3.270000000000000000e+02,5.386730999999999767e+02
3.280000000000000000e+02,5.395711099999999760e+02
3.290000000000000000e+02,5.404758299999999736e+02
3.300000000000000000e+02,5.413851899999999659e+02
3.310000000000000000e+02,5.422996799999999666e+02
3.320000000000000000e+02,5.432171600000000353e+02
3.330000000000000000e+02,5.441379399999999578e+02
3.340000000000000000e+02,5.450613399999999729e+02
3.350000000000000000e+02,5.459893799999999828e+02
3.360000000000000000e+02,5.469160200000000032e+02
3.370000000000000000e+02,5.478469800000000305e+02
3.380000000000000000e+02,5.487811900000000378e+02
3.390000000000000000e+02,5.497124000000000024e+02
3.400000000000000000e+02,5.506489299999999503e+02
3.410000000000000000e+02,5.515847800000000234e+02
3.420000000000000000e+02,5.525212999999999965e+02
3.430000000000000000e+02,5.534572799999999688e+02
3.440000000000000000e+02,5.543952000000000453e+02
3.450000000000000000e+02,5.553292199999999639e+02
3.460000000000000000e+02,5.562648299999999608e+02
3.470000000000000000e+02,5.572009900000000471e+02
3.480000000000000000e+02,5.581318999999999733e+02
3.490000000000000000e+02,5.590656099999999924e+02
3.500000000000000000e+02,5.599965799999999945e+02
3.510000000000000000e+02,5.609259600000000319e+02
3.520000000000000000e+02,5.618529099999999517e+02
3.530000000000000000e+02,5.627797199999999975e+02
3.540000000000000000e+02,5.637007399999999961e+02
3.550000000000000000e+02,5.646237200000000485e+02
3.560000000000000000e+02,5.655415000000000418e+02
3.570000000000000000e+02,5.664572799999999688e+02
3.580000000000000000e+02,5.673703000000000429e+02
3.590000000000000000e+02,5.682816800000000512e+02
3.600000000000000000e+02,5.691859100000000353e+02
3.610000000000000000e+02,5.700913699999999835e+02
3.620000000000000000e+02,5.709918800000000374e+02
3.630000000000000000e+02,5.718902600000000120e+02
3.640000000000000000e+02,5.727820400000000518e+02
3.650000000000000000e+02,5.736751699999999801e+02
3.660000000000000000e+02,5.745612200000000485e+02
3.670000000000000000e+02,5.754455600000000004e+02
3.680000000000000000e+02,5.763264199999999846e+02
3.690000000000000000e+02,5.772003200000000334e+02
3.700000000000000000e+02,5.780739700000000312e+02
3.710000000000000000e+02,5.789415900000000192e+02
3.720000000000000000e+02,5.798067600000000539e+02
3.730000000000000000e+02,5.806672399999999925e+02
3.740000000000000000e+02,5.815216699999999719e+02
3.750000000000000000e+02,5.823749400000000378e+02
3.760000000000000000e+02,5.832231399999999439e+02
3.770000000000000000e+02,5.840665900000000192e+02
3.780000000000000000e+02,5.849064300000000003e+02
3.790000000000000000e+02,5.857419999999999618e+02
3.800000000000000000e+02,5.865725099999999657e+02
3.810000000000000000e+02,5.874000899999999774e+02
3.820000000000000000e+02,5.882227799999999434e+02
3.830000000000000000e+02,5.890421099999999797e+02
3.840000000000000000e+02,5.898533300000000281e+02
3.850000000000000000e+02,5.906636399999999867e+02
3.860000000000000000e+02,5.914700299999999515e+02
3.870000000000000000e+02,5.922711199999999963e+02
3.880000000000000000e+02,5.930674999999999955e+02
3.890000000000000000e+02,5.938601700000000392e+02
3.900000000000000000e+02,5.946459999999999582e+02
3.910000000000000000e+02,5.954292000000000371e+02
3.920000000000000000e+02,5.962081299999999828e+02
3.930000000000000000e+02,5.969833399999999983e+02
3.940000000000000000e+02,5.977525600000000168e+02
3.950000000000000000e+02,5.985189199999999801e+02
3.960000000000000000e+02,5.992794800000000350e+02
3.970000000000000000e+02,6.000354599999999436e+02
3.980000000000000000e+02,6.007882100000000491e+02
3.990000000000000000e+02,6.015343000000000302e+02
