# Time [s], Convective Heat Transfer Coefficient [W/m2K]
1.000000000000000000e+00,0.000000000000000000e+00
2.000000000000000000e+00,0.000000000000000000e+00
3.000000000000000000e+00,0.000000000000000000e+00
4.000000000000000000e+00,0.000000000000000000e+00
5.000000000000000000e+00,2.412849599104084641e-02
6.000000000000000000e+00,3.908348017778424249e-02
7.000000000000000000e+00,6.234380213143796146e-02
8.000000000000000000e+00,9.379928805020416871e-02
9.000000000000000000e+00,1.338598978250591931e-01
1.000000000000000000e+01,1.824703432386969304e-01
1.100000000000000000e+01,2.394615781799251109e-01
1.200000000000000000e+01,3.041139572767147525e-01
1.300000000000000000e+01,3.755709789032928292e-01
1.400000000000000000e+01,4.529452109941159987e-01
1.500000000000000000e+01,5.352557893347617002e-01
1.600000000000000000e+01,6.216347792223988478e-01
1.700000000000000000e+01,7.112530357591529961e-01
1.800000000000000000e+01,8.033897883814723473e-01
1.900000000000000000e+01,8.974167164641281280e-01
2.000000000000000000e+01,9.927856185567502934e-01
2.100000000000000000e+01,1.089034384644895548e+00
2.200000000000000000e+01,1.185769863893436638e+00
2.300000000000000000e+01,1.282661185923122504e+00
2.400000000000000000e+01,1.379437344646886165e+00
2.500000000000000000e+01,1.475868618491179118e+00
2.600000000000000000e+01,1.571763730722211649e+00
2.700000000000000000e+01,1.666971403886770675e+00
2.800000000000000000e+01,1.761360964023476861e+00
2.900000000000000000e+01,1.854830859304046342e+00
3.000000000000000000e+01,1.947298126812489150e+00
3.100000000000000000e+01,2.038696681308106218e+00
3.200000000000000000e+01,2.128978502374536674e+00
3.300000000000000000e+01,2.218104882833524361e+00
3.400000000000000000e+01,2.306044645721687214e+00
3.500000000000000000e+01,2.392778909312760049e+00
3.600000000000000000e+01,2.478295282051855342e+00
3.700000000000000000e+01,2.562588655444377750e+00
3.800000000000000000e+01,2.645657721542413743e+00
3.900000000000000000e+01,2.727501348713953000e+00
4.000000000000000000e+01,2.808129648870554718e+00
4.100000000000000000e+01,2.887552492063824250e+00
4.200000000000000000e+01,2.965777896314074180e+00
4.300000000000000000e+01,3.042822678296466243e+00
4.400000000000000000e+01,3.118701767765558408e+00
4.500000000000000000e+01,3.193432270311594490e+00
4.600000000000000000e+01,3.267028686998052933e+00
4.700000000000000000e+01,3.339512493045415198e+00
4.800000000000000000e+01,3.410901151428471945e+00
4.900000000000000000e+01,3.481212986600340731e+00
5.000000000000000000e+01,3.550469749439424394e+00
5.100000000000000000e+01,3.618691020410536030e+00
5.200000000000000000e+01,3.685895605078214565e+00
5.300000000000000000e+01,3.752102570336952603e+00
5.400000000000000000e+01,3.817332243026775096e+00
5.500000000000000000e+01,3.881603991652644581e+00
5.600000000000000000e+01,3.944936772299022287e+00
5.700000000000000000e+01,4.007350457720417758e+00
5.800000000000000000e+01,4.068864602121808005e+00
5.900000000000000000e+01,4.129497291878488241e+00
6.000000000000000000e+01,4.189264198670302974e+00
6.100000000000000000e+01,4.248184995354192139e+00
6.200000000000000000e+01,4.306278203546678007e+00
6.300000000000000000e+01,4.363561034030277064e+00
6.400000000000000000e+01,4.420047937940524641e+00
6.500000000000000000e+01,4.475757557911300033e+00
6.600000000000000000e+01,4.530706700739256299e+00
6.700000000000000000e+01,4.584908451363735260e+00
6.800000000000000000e+01,4.638379961554044861e+00
6.900000000000000000e+01,4.691136321347693539e+00
7.000000000000000000e+01,4.743191430484086091e+00
7.100000000000000000e+01,4.794561152911003710e+00
7.200000000000000000e+01,4.845257003698757003e+00
7.300000000000000000e+01,4.895294678466058258e+00
7.400000000000000000e+01,4.944685668562068592e+00
7.500000000000000000e+01,4.993444225077209531e+00
7.600000000000000000e+01,5.041583624978678735e+00
7.700000000000000000e+01,5.089113806876933488e+00
7.800000000000000000e+01,5.136049161358216431e+00
7.900000000000000000e+01,5.182400537165292143e+00
8.000000000000000000e+01,5.228178153017892349e+00
8.100000000000000000e+01,5.273395556000743056e+00
8.200000000000000000e+01,5.318062090356305838e+00
8.300000000000000000e+01,5.362188568909515674e+00
8.400000000000000000e+01,5.405785665006699325e+00
8.500000000000000000e+01,5.448863404802681387e+00
8.600000000000000000e+01,5.491431056560567292e+00
8.700000000000000000e+01,5.533499323913817491e+00
8.800000000000000000e+01,5.575076279849190186e+00
8.900000000000000000e+01,5.616171860337019872e+00
9.000000000000000000e+01,5.656793849000668395e+00
9.100000000000000000e+01,5.696952642388273702e+00
9.200000000000000000e+01,5.736655695137431898e+00
9.300000000000000000e+01,5.775911191616997620e+00
9.400000000000000000e+01,5.814726817475690979e+00
9.500000000000000000e+01,5.853112387176086173e+00
9.600000000000000000e+01,5.891074072429196562e+00
9.700000000000000000e+01,5.928618794927020375e+00
9.800000000000000000e+01,5.965754638184335157e+00
9.900000000000000000e+01,6.002488078629505175e+00
1.000000000000000000e+02,6.038828061965879179e+00
1.010000000000000000e+02,6.074779924508265871e+00
1.020000000000000000e+02,6.110349929871967234e+00
1.030000000000000000e+02,6.145545338700859617e+00
1.040000000000000000e+02,6.180371624517251306e+00
1.050000000000000000e+02,6.214835936812135309e+00
1.060000000000000000e+02,6.248945030637017339e+00
1.070000000000000000e+02,6.282703419775747200e+00
1.080000000000000000e+02,6.316117456659544160e+00
1.090000000000000000e+02,6.349192477477950902e+00
1.100000000000000000e+02,6.381933688033020857e+00
1.110000000000000000e+02,6.414347422133660714e+00
1.120000000000000000e+02,6.446439170099867333e+00
1.130000000000000000e+02,6.478213425435688677e+00
1.140000000000000000e+02,6.509675418305641337e+00
1.150000000000000000e+02,6.540829630302108733e+00
1.160000000000000000e+02,6.571680643045581860e+00
1.170000000000000000e+02,6.602234744977304892e+00
1.180000000000000000e+02,6.632495862286220678e+00
1.190000000000000000e+02,6.662468303179459816e+00
1.200000000000000000e+02,6.692156479643475819e+00
1.210000000000000000e+02,6.721564384996479902e+00
1.220000000000000000e+02,6.750696382909643134e+00
1.230000000000000000e+02,6.779557191928368809e+00
1.240000000000000000e+02,6.808151365955152912e+00
1.250000000000000000e+02,6.836481548466423419e+00
1.260000000000000000e+02,6.864551780543827419e+00
1.270000000000000000e+02,6.892365719529299994e+00
1.280000000000000000e+02,6.919928121516083941e+00
1.290000000000000000e+02,6.947242858269675025e+00
1.300000000000000000e+02,6.974311989664983003e+00
1.310000000000000000e+02,7.001139415798673937e+00
1.320000000000000000e+02,7.027728674173027379e+00
1.330000000000000000e+02,7.054083659533420203e+00
1.340000000000000000e+02,7.080207443581914895e+00
1.350000000000000000e+02,7.106102537340508007e+00
1.360000000000000000e+02,7.131772752834059759e+00
1.370000000000000000e+02,7.157220643355546308e+00
1.380000000000000000e+02,7.182449363557987354e+00
1.390000000000000000e+02,7.207462423475881508e+00
1.400000000000000000e+02,7.232261662583414186e+00
1.410000000000000000e+02,7.256850418881691134e+00
1.420000000000000000e+02,7.281231491607602635e+00
1.430000000000000000e+02,7.305407817591642150e+00
1.440000000000000000e+02,7.329380941766419966e+00
1.450000000000000000e+02,7.353154526550644832e+00
1.460000000000000000e+02,7.376730627211342650e+00
1.470000000000000000e+02,7.400112522163373008e+00
1.480000000000000000e+02,7.423301276113848601e+00
1.490000000000000000e+02,7.446299820170367845e+00
1.500000000000000000e+02,7.469110796489061954e+00
1.510000000000000000e+02,7.491735941763875140e+00
1.520000000000000000e+02,7.514177980524721079e+00
1.530000000000000000e+02,7.536438329031428296e+00
1.540000000000000000e+02,7.558520207327189766e+00
1.550000000000000000e+02,7.580424920373996400e+00
1.560000000000000000e+02,7.602154141373226537e+00
1.570000000000000000e+02,7.623710908441097445e+00
1.580000000000000000e+02,7.645096181823534565e+00
1.590000000000000000e+02,7.666312487031094136e+00
1.600000000000000000e+02,7.687361693047368938e+00
1.610000000000000000e+02,7.708245227514785469e+00
1.620000000000000000e+02,7.728964676658471866e+00
1.630000000000000000e+02,7.749522560883497668e+00
1.640000000000000000e+02,7.769919595854129390e+00
1.650000000000000000e+02,7.790158597603905832e+00
1.660000000000000000e+02,7.810240590488074730e+00
1.670000000000000000e+02,7.830166762494975785e+00
1.680000000000000000e+02,7.849939600960950337e+00
1.690000000000000000e+02,7.869559835970805217e+00
1.700000000000000000e+02,7.889029493511206859e+00
1.710000000000000000e+02,7.908350179286913750e+00
1.720000000000000000e+02,7.927521971582535798e+00
1.730000000000000000e+02,7.946548277757200296e+00
1.740000000000000000e+02,7.965428744336201738e+00
1.750000000000000000e+02,7.984165956606762649e+00
1.760000000000000000e+02,8.002760435070221945e+00
1.770000000000000000e+02,8.021214140213508870e+00
1.780000000000000000e+02,8.039527904123101365e+00
1.790000000000000000e+02,8.057703078881438330e+00
1.800000000000000000e+02,8.075740448050789055e+00
1.810000000000000000e+02,8.093642205083657615e+00
1.820000000000000000e+02,8.111408364171554197e+00
1.830000000000000000e+02,8.129041236473735665e+00
1.840000000000000000e+02,8.146540794662701757e+00
1.850000000000000000e+02,8.163908938274975213e+00
1.860000000000000000e+02,8.181146129978541737e+00
1.870000000000000000e+02,8.198254386671020910e+00
1.880000000000000000e+02,8.215233778402431852e+00
1.890000000000000000e+02,8.232086096030055700e+00
1.900000000000000000e+02,8.248811547515792597e+00
1.910000000000000000e+02,8.265411874238235868e+00
1.920000000000000000e+02,8.281887931102922096e+00
1.930000000000000000e+02,8.298240044253979875e+00
1.940000000000000000e+02,8.314469884119731091e+00
1.950000000000000000e+02,8.330577909234039069e+00
1.960000000000000000e+02,8.346565070010157683e+00
1.970000000000000000e+02,8.362432799413245021e+00
1.980000000000000000e+02,8.378181336332296780e+00
1.990000000000000000e+02,8.393811575612463827e+00
2.000000000000000000e+02,8.409324890388003126e+00
2.010000000000000000e+02,8.424721474149842848e+00
2.020000000000000000e+02,8.440002662940242928e+00
2.030000000000000000e+02,8.455169441135732100e+00
2.040000000000000000e+02,8.470221795231411832e+00
2.050000000000000000e+02,8.485161007749393747e+00
2.060000000000000000e+02,8.499988176374047910e+00
2.070000000000000000e+02,8.514703571475987331e+00
2.080000000000000000e+02,8.529307937686287033e+00
2.090000000000000000e+02,8.543802485836954119e+00
2.100000000000000000e+02,8.558187926253806310e+00
2.110000000000000000e+02,8.572464317959388680e+00
2.120000000000000000e+02,8.586632825932154489e+00
2.130000000000000000e+02,8.600694436987391001e+00
2.140000000000000000e+02,8.614649647346714900e+00
2.150000000000000000e+02,8.628498942326114474e+00
2.160000000000000000e+02,8.642242953273244765e+00
2.170000000000000000e+02,8.655882767775507247e+00
2.180000000000000000e+02,8.669418988099044654e+00
2.190000000000000000e+02,8.682852359914164708e+00
2.200000000000000000e+02,8.696183305774860983e+00
2.210000000000000000e+02,8.709412393076860326e+00
2.220000000000000000e+02,8.722540331903353206e+00
2.230000000000000000e+02,8.735567819549793001e+00
2.240000000000000000e+02,8.748495387843833626e+00
2.250000000000000000e+02,8.761323863143463342e+00
2.260000000000000000e+02,8.774053905940538911e+00
2.270000000000000000e+02,8.786685861723860569e+00
2.280000000000000000e+02,8.799220672670816867e+00
2.290000000000000000e+02,8.811658361618547985e+00
2.300000000000000000e+02,8.824000300156681575e+00
2.310000000000000000e+02,8.836246341333975352e+00
2.320000000000000000e+02,8.848397531938616112e+00
2.330000000000000000e+02,8.860454157808760556e+00
2.340000000000000000e+02,8.872416943867534656e+00
2.350000000000000000e+02,8.884286603346248867e+00
2.360000000000000000e+02,8.896063246362968968e+00
2.370000000000000000e+02,8.907747715662376109e+00
2.380000000000000000e+02,8.919340399924896801e+00
2.390000000000000000e+02,8.930841826780444137e+00
2.400000000000000000e+02,8.942252807457759189e+00
2.410000000000000000e+02,8.953573703147421625e+00
2.420000000000000000e+02,8.964804867705726821e+00
2.430000000000000000e+02,8.975947083655533731e+00
2.440000000000000000e+02,8.987000542382341806e+00
2.450000000000000000e+02,8.997965574352146945e+00
2.460000000000000000e+02,9.008843080138762005e+00
2.470000000000000000e+02,9.019633228617625065e+00
2.480000000000000000e+02,9.030336470596703080e+00
2.490000000000000000e+02,9.040953392292788493e+00
2.500000000000000000e+02,9.051484428042048336e+00
2.510000000000000000e+02,9.061930289766783275e+00
2.520000000000000000e+02,9.072290968274929313e+00
2.530000000000000000e+02,9.082567160533185913e+00
2.540000000000000000e+02,9.092758845874886475e+00
2.550000000000000000e+02,9.102866848030254587e+00
2.560000000000000000e+02,9.112891698130459517e+00
2.570000000000000000e+02,9.122833637999228529e+00
2.580000000000000000e+02,9.132692482983271631e+00
2.590000000000000000e+02,9.142469167071714864e+00
2.600000000000000000e+02,9.152164053960959222e+00
2.610000000000000000e+02,9.161777361537884801e+00
2.620000000000000000e+02,9.171309720109444896e+00
2.630000000000000000e+02,9.180760918214403432e+00
2.640000000000000000e+02,9.190131851689640641e+00
2.650000000000000000e+02,9.199422575943607683e+00
2.660000000000000000e+02,9.208633142741344813e+00
2.670000000000000000e+02,9.217764564626133250e+00
2.680000000000000000e+02,9.226816742971211127e+00
2.690000000000000000e+02,9.235789576775024656e+00
2.700000000000000000e+02,9.244683921438999974e+00
2.710000000000000000e+02,9.253499939116059281e+00
2.720000000000000000e+02,9.262237651162394059e+00
2.730000000000000000e+02,9.270897620440036846e+00
2.740000000000000000e+02,9.279479994682864330e+00
2.750000000000000000e+02,9.287985053145479952e+00
2.760000000000000000e+02,9.296412934515791093e+00
2.770000000000000000e+02,9.304764179027536386e+00
2.780000000000000000e+02,9.313038510197031883e+00
2.790000000000000000e+02,9.321236458819202042e+00
2.800000000000000000e+02,9.329358145430671101e+00
2.810000000000000000e+02,9.337404223748130505e+00
2.820000000000000000e+02,9.345374133678159723e+00
2.830000000000000000e+02,9.353268921610105480e+00
2.840000000000000000e+02,9.361088020871324744e+00
2.850000000000000000e+02,9.368832199200713973e+00
2.860000000000000000e+02,9.376501417406140959e+00
2.870000000000000000e+02,9.384096032363919093e+00
2.880000000000000000e+02,9.391616130239857085e+00
2.890000000000000000e+02,9.399061396162933235e+00
2.900000000000000000e+02,9.406432704964197811e+00
2.910000000000000000e+02,9.413729602095534332e+00
2.920000000000000000e+02,9.420953215564656702e+00
2.930000000000000000e+02,9.428103083240468862e+00
2.940000000000000000e+02,9.435179663328751687e+00
2.950000000000000000e+02,9.442182489269193013e+00
2.960000000000000000e+02,9.449112274287823965e+00
2.970000000000000000e+02,9.455969593591357025e+00
2.980000000000000000e+02,9.462753839608122775e+00
2.990000000000000000e+02,9.469465580239454283e+00
3.000000000000000000e+02,9.476104855826777751e+00
3.010000000000000000e+02,9.482672094141058494e+00
3.020000000000000000e+02,9.489167197705139500e+00
3.030000000000000000e+02,9.495651734209401340e+00
3.040000000000000000e+02,9.502030577783166621e+00
3.050000000000000000e+02,9.508330173146635644e+00
3.060000000000000000e+02,9.514555872384056201e+00
3.070000000000000000e+02,9.520709509533338277e+00
3.080000000000000000e+02,9.526792777231912979e+00
3.090000000000000000e+02,9.532805295624504183e+00
3.100000000000000000e+02,9.538748613802386700e+00
3.110000000000000000e+02,9.544623756436875439e+00
3.120000000000000000e+02,9.550430585466042288e+00
3.130000000000000000e+02,9.556170499118213257e+00
3.140000000000000000e+02,9.561843734053674382e+00
3.150000000000000000e+02,9.567450523304499299e+00
3.160000000000000000e+02,9.572991096318540727e+00
3.170000000000000000e+02,9.578465679002450273e+00
3.180000000000000000e+02,9.583873856532237667e+00
3.190000000000000000e+02,9.589215977291706494e+00
3.200000000000000000e+02,9.594491622641665884e+00
3.210000000000000000e+02,9.599700627330928882e+00
3.220000000000000000e+02,9.604843585638811021e+00
3.230000000000000000e+02,9.609920326257553214e+00
3.240000000000000000e+02,9.614931055971029039e+00
3.250000000000000000e+02,9.619875978199488031e+00
3.260000000000000000e+02,9.624754787572822323e+00
3.270000000000000000e+02,9.629568313608706021e+00
3.280000000000000000e+02,9.634316497229791665e+00
3.290000000000000000e+02,9.639000033087244290e+00
3.300000000000000000e+02,9.643619107216707675e+00
3.310000000000000000e+02,9.648173902535170043e+00
3.320000000000000000e+02,9.652665352690867451e+00
3.330000000000000000e+02,9.657093632386441584e+00
3.340000000000000000e+02,9.661459289588542276e+00
3.350000000000000000e+02,9.665762867994798668e+00
3.360000000000000000e+02,9.670004656743229177e+00
3.370000000000000000e+02,9.674185442041675742e+00
3.380000000000000000e+02,9.678305630282594052e+00
3.390000000000000000e+02,9.682365749192694437e+00
3.400000000000000000e+02,9.686366696903386142e+00
3.410000000000000000e+02,9.690308493882289653e+00
3.420000000000000000e+02,9.694192030420865080e+00
3.430000000000000000e+02,9.698018067490776772e+00
3.440000000000000000e+02,9.701787237345261161e+00
3.450000000000000000e+02,9.705499547006139593e+00
3.460000000000000000e+02,9.709156491721028459e+00
3.470000000000000000e+02,9.712758319541814345e+00
3.480000000000000000e+02,9.716305647984992078e+00
3.490000000000000000e+02,9.719798967101082710e+00
3.500000000000000000e+02,9.723239135265677291e+00
3.510000000000000000e+02,9.726627006748033821e+00
3.520000000000000000e+02,9.729963060868914937e+00
3.530000000000000000e+02,9.733247897610160848e+00
3.540000000000000000e+02,9.736482237260775108e+00
3.550000000000000000e+02,9.739667413689202746e+00
3.560000000000000000e+02,9.742803029314734076e+00
3.570000000000000000e+02,9.745890781290251326e+00
3.580000000000000000e+02,9.748930636744256972e+00
3.590000000000000000e+02,9.751923546268043808e+00
3.600000000000000000e+02,9.754870825853913630e+00
3.610000000000000000e+02,9.757772311731951476e+00
3.620000000000000000e+02,9.760628945136147649e+00
3.630000000000000000e+02,9.763441909495405469e+00
3.640000000000000000e+02,9.766211770705965023e+00
3.650000000000000000e+02,9.768938846946268129e+00
3.660000000000000000e+02,9.771624312767887233e+00
3.670000000000000000e+02,9.774268726450033640e+00
3.680000000000000000e+02,9.776872888986691379e+00
3.690000000000000000e+02,9.779437109093970903e+00
3.700000000000000000e+02,9.781963039597343368e+00
3.710000000000000000e+02,9.784450372621675385e+00
3.720000000000000000e+02,9.786900633242561653e+00
3.730000000000000000e+02,9.789314243267133619e+00
3.740000000000000000e+02,9.791691622869228340e+00
3.750000000000000000e+02,9.794034044871922973e+00
3.760000000000000000e+02,9.796341681120184219e+00
3.770000000000000000e+02,9.798616043551673371e+00
3.780000000000000000e+02,9.800856812636993709e+00
3.790000000000000000e+02,9.803138703656172126e+00
3.800000000000000000e+02,9.805351472847185335e+00
3.810000000000000000e+02,9.807525030121283294e+00
3.820000000000000000e+02,9.809666847843274695e+00
3.830000000000000000e+02,9.811778304906217940e+00
3.840000000000000000e+02,9.813861141895994677e+00
3.850000000000000000e+02,9.815915881019042999e+00
3.860000000000000000e+02,9.817943650343895712e+00
3.870000000000000000e+02,9.819944847279227673e+00
3.880000000000000000e+02,9.821920474881901342e+00
3.890000000000000000e+02,9.823870563835544800e+00
3.900000000000000000e+02,9.825796478115211841e+00
3.910000000000000000e+02,9.827697639984844358e+00
3.920000000000000000e+02,9.829575168410229935e+00
3.930000000000000000e+02,9.831429090326665232e+00
3.940000000000000000e+02,9.833260037618130056e+00
3.950000000000000000e+02,9.835067793774348033e+00
3.960000000000000000e+02,9.836853231065724401e+00
3.970000000000000000e+02,9.838616857397843418e+00
3.980000000000000000e+02,9.840359179662325317e+00
