# Time [s], Temperature [C]
1.000000000000000000e+00,2.500000000000000000e+01
2.000000000000000000e+00,2.500000000000000000e+01
3.000000000000000000e+00,2.500000000000000000e+01
4.000000000000000000e+00,2.500000000000000000e+01
5.000000000000000000e+00,2.500000000000000000e+01
6.000000000000000000e+00,2.500000000000000000e+01
7.000000000000000000e+00,2.500000400000000056e+01
8.000000000000000000e+00,2.500001299999999915e+01
9.000000000000000000e+00,2.500004600000000110e+01
1.000000000000000000e+01,2.500013699999999872e+01
1.100000000000000000e+01,2.500036000000000058e+01
1.200000000000000000e+01,2.500085299999999933e+01
1.300000000000000000e+01,2.500184600000000046e+01
1.400000000000000000e+01,2.500368900000000139e+01
1.500000000000000000e+01,2.500687800000000038e+01
1.600000000000000000e+01,2.501207000000000136e+01
1.700000000000000000e+01,2.502008400000000066e+01
1.800000000000000000e+01,2.503190400000000082e+01
1.900000000000000000e+01,2.504866399999999871e+01
2.000000000000000000e+01,2.507161500000000132e+01
2.100000000000000000e+01,2.510211400000000026e+01
2.200000000000000000e+01,2.514158600000000021e+01
2.300000000000000000e+01,2.519150499999999937e+01
2.400000000000000000e+01,2.525335899999999967e+01
2.500000000000000000e+01,2.532862899999999939e+01
2.600000000000000000e+01,2.541877200000000059e+01
2.700000000000000000e+01,2.552518699999999896e+01
2.800000000000000000e+01,2.564921800000000118e+01
2.900000000000000000e+01,2.579214100000000087e+01
3.000000000000000000e+01,2.595514899999999869e+01
3.100000000000000000e+01,2.613933000000000106e+01
3.200000000000000000e+01,2.634569700000000125e+01
3.300000000000000000e+01,2.657514000000000109e+01
3.400000000000000000e+01,2.682846800000000087e+01
3.500000000000000000e+01,2.710638199999999998e+01
3.600000000000000000e+01,2.740945800000000077e+01
3.700000000000000000e+01,2.773820100000000011e+01
3.800000000000000000e+01,2.809299700000000044e+01
3.900000000000000000e+01,2.847413799999999995e+01
4.000000000000000000e+01,2.888181499999999957e+01
4.100000000000000000e+01,2.931613000000000113e+01
4.200000000000000000e+01,2.979414399999999929e+01
4.300000000000000000e+01,3.028995499999999907e+01
4.400000000000000000e+01,3.081023599999999973e+01
4.500000000000000000e+01,3.135623400000000061e+01
4.600000000000000000e+01,3.192790400000000162e+01
4.700000000000000000e+01,3.252503999999999706e+01
4.800000000000000000e+01,3.314736599999999811e+01
4.900000000000000000e+01,3.379451399999999950e+01
5.000000000000000000e+01,3.446608700000000169e+01
5.100000000000000000e+01,3.516166299999999723e+01
5.200000000000000000e+01,3.588077899999999687e+01
5.300000000000000000e+01,3.662296700000000271e+01
5.400000000000000000e+01,3.738771100000000303e+01
5.500000000000000000e+01,3.817456399999999661e+01
5.600000000000000000e+01,3.898304000000000258e+01
5.700000000000000000e+01,3.981264099999999928e+01
5.800000000000000000e+01,4.066288399999999825e+01
5.900000000000000000e+01,4.153320300000000032e+01
6.000000000000000000e+01,4.242314100000000110e+01
6.100000000000000000e+01,4.333222599999999858e+01
6.200000000000000000e+01,4.426000200000000007e+01
6.300000000000000000e+01,4.520594799999999935e+01
6.400000000000000000e+01,4.616958600000000246e+01
6.500000000000000000e+01,4.715051700000000068e+01
6.600000000000000000e+01,4.814823899999999668e+01
6.700000000000000000e+01,4.916236500000000120e+01
6.800000000000000000e+01,5.019241699999999895e+01
6.900000000000000000e+01,5.123803300000000149e+01
7.000000000000000000e+01,5.229881999999999920e+01
7.100000000000000000e+01,5.337431699999999779e+01
7.200000000000000000e+01,5.446417999999999893e+01
7.300000000000000000e+01,5.556805399999999651e+01
7.400000000000000000e+01,5.668557700000000210e+01
7.500000000000000000e+01,5.781636000000000308e+01
7.600000000000000000e+01,5.896013599999999855e+01
7.700000000000000000e+01,6.011727499999999935e+01
7.800000000000000000e+01,6.128634999999999877e+01
7.900000000000000000e+01,6.246734599999999915e+01
8.000000000000000000e+01,6.366002300000000247e+01
8.100000000000000000e+01,6.486409799999999848e+01
8.200000000000000000e+01,6.607930799999999749e+01
8.300000000000000000e+01,6.730538900000000524e+01
8.400000000000000000e+01,6.854208400000000267e+01
8.500000000000000000e+01,6.978921499999999867e+01
8.600000000000000000e+01,7.104659300000000144e+01
8.700000000000000000e+01,7.231390399999999374e+01
8.800000000000000000e+01,7.359095800000000054e+01
8.900000000000000000e+01,7.487760199999999600e+01
9.000000000000000000e+01,7.617365300000000161e+01
9.100000000000000000e+01,7.747893500000000699e+01
9.200000000000000000e+01,7.879316699999999685e+01
9.300000000000000000e+01,8.011617300000000341e+01
9.400000000000000000e+01,8.144780000000000086e+01
9.500000000000000000e+01,8.278776600000000485e+01
9.600000000000000000e+01,8.413590200000000152e+01
9.700000000000000000e+01,8.549206499999999664e+01
9.800000000000000000e+01,8.685597199999999418e+01
9.900000000000000000e+01,8.822741700000000264e+01
1.000000000000000000e+02,8.960627700000000573e+01
1.010000000000000000e+02,9.099224900000000105e+01
1.020000000000000000e+02,9.238523100000000454e+01
1.030000000000000000e+02,9.378494999999999493e+01
1.040000000000000000e+02,9.519129200000000424e+01
1.050000000000000000e+02,9.660401899999999387e+01
1.060000000000000000e+02,9.802300300000000277e+01
1.070000000000000000e+02,9.944804399999999589e+01
1.080000000000000000e+02,1.008789199999999937e+02
1.090000000000000000e+02,1.023155600000000049e+02
1.100000000000000000e+02,1.037576999999999998e+02
1.110000000000000000e+02,1.052057400000000058e+02
1.120000000000000000e+02,1.066588200000000057e+02
1.130000000000000000e+02,1.081168299999999931e+02
1.140000000000000000e+02,1.095797299999999979e+02
1.150000000000000000e+02,1.110473499999999945e+02
1.160000000000000000e+02,1.125195700000000016e+02
1.170000000000000000e+02,1.139963099999999940e+02
1.180000000000000000e+02,1.154775000000000063e+02
1.190000000000000000e+02,1.169629400000000032e+02
1.200000000000000000e+02,1.184526100000000071e+02
1.210000000000000000e+02,1.199464300000000065e+02
1.220000000000000000e+02,1.214441300000000012e+02
1.230000000000000000e+02,1.229456299999999942e+02
1.240000000000000000e+02,1.244507100000000008e+02
1.250000000000000000e+02,1.259592700000000036e+02
1.260000000000000000e+02,1.274710800000000006e+02
1.270000000000000000e+02,1.289858700000000056e+02
1.280000000000000000e+02,1.305035100000000057e+02
1.290000000000000000e+02,1.320237999999999943e+02
1.300000000000000000e+02,1.335465900000000090e+02
1.310000000000000000e+02,1.350716400000000021e+02
1.320000000000000000e+02,1.365987399999999923e+02
1.330000000000000000e+02,1.381277300000000139e+02
1.340000000000000000e+02,1.396584200000000067e+02
1.350000000000000000e+02,1.411905700000000081e+02
1.360000000000000000e+02,1.427240600000000086e+02
1.370000000000000000e+02,1.442586499999999887e+02
1.380000000000000000e+02,1.457941999999999894e+02
1.390000000000000000e+02,1.473304899999999975e+02
1.400000000000000000e+02,1.488672799999999938e+02
1.410000000000000000e+02,1.504043700000000001e+02
1.420000000000000000e+02,1.519415999999999940e+02
1.430000000000000000e+02,1.534787800000000004e+02
1.440000000000000000e+02,1.550156100000000094e+02
1.450000000000000000e+02,1.565527999999999906e+02
1.460000000000000000e+02,1.580888500000000079e+02
1.470000000000000000e+02,1.596238700000000108e+02
1.480000000000000000e+02,1.611577800000000025e+02
1.490000000000000000e+02,1.626905099999999891e+02
1.500000000000000000e+02,1.642219499999999925e+02
1.510000000000000000e+02,1.657520800000000065e+02
1.520000000000000000e+02,1.672806500000000085e+02
1.530000000000000000e+02,1.688074599999999919e+02
1.540000000000000000e+02,1.703320899999999938e+02
1.550000000000000000e+02,1.718540800000000104e+02
1.560000000000000000e+02,1.733730600000000095e+02
1.570000000000000000e+02,1.748886300000000062e+02
1.580000000000000000e+02,1.764003600000000063e+02
1.590000000000000000e+02,1.779078399999999931e+02
1.600000000000000000e+02,1.794105500000000006e+02
1.610000000000000000e+02,1.809081099999999935e+02
1.620000000000000000e+02,1.824000699999999995e+02
1.630000000000000000e+02,1.838859999999999957e+02
1.640000000000000000e+02,1.853653099999999938e+02
1.650000000000000000e+02,1.868375900000000058e+02
1.660000000000000000e+02,1.883023200000000088e+02
1.670000000000000000e+02,1.897588800000000049e+02
1.680000000000000000e+02,1.912067900000000122e+02
1.690000000000000000e+02,1.926453899999999919e+02
1.700000000000000000e+02,1.940740999999999872e+02
1.710000000000000000e+02,1.954922599999999875e+02
1.720000000000000000e+02,1.968991900000000044e+02
1.730000000000000000e+02,1.982941899999999862e+02
1.740000000000000000e+02,1.996765100000000075e+02
1.750000000000000000e+02,2.010454699999999946e+02
1.760000000000000000e+02,2.024022199999999998e+02
1.770000000000000000e+02,2.037437099999999930e+02
1.780000000000000000e+02,2.050703100000000063e+02
1.790000000000000000e+02,2.063816999999999950e+02
1.800000000000000000e+02,2.076771999999999991e+02
1.810000000000000000e+02,2.089557599999999979e+02
1.820000000000000000e+02,2.102160800000000052e+02
1.830000000000000000e+02,2.114567399999999964e+02
1.840000000000000000e+02,2.126765699999999981e+02
1.850000000000000000e+02,2.138745999999999867e+02
1.860000000000000000e+02,2.150499599999999987e+02
1.870000000000000000e+02,2.162018899999999917e+02
1.880000000000000000e+02,2.173297399999999868e+02
1.890000000000000000e+02,2.184328800000000115e+02
1.900000000000000000e+02,2.195109099999999955e+02
1.910000000000000000e+02,2.205634499999999889e+02
1.920000000000000000e+02,2.215901200000000131e+02
1.930000000000000000e+02,2.225908200000000079e+02
1.940000000000000000e+02,2.235654299999999921e+02
1.950000000000000000e+02,2.245140700000000038e+02
1.960000000000000000e+02,2.254368100000000084e+02
1.970000000000000000e+02,2.263340000000000032e+02
1.980000000000000000e+02,2.272060199999999952e+02
1.990000000000000000e+02,2.280534399999999948e+02
2.000000000000000000e+02,2.288768499999999904e+02
2.010000000000000000e+02,2.296770500000000084e+02
2.020000000000000000e+02,2.304549100000000124e+02
2.030000000000000000e+02,2.312326199999999972e+02
2.040000000000000000e+02,2.319836999999999989e+02
2.050000000000000000e+02,2.327156799999999919e+02
2.060000000000000000e+02,2.334297300000000064e+02
2.070000000000000000e+02,2.341254299999999944e+02
2.080000000000000000e+02,2.348031599999999912e+02
2.090000000000000000e+02,2.354642800000000022e+02
2.100000000000000000e+02,2.361103799999999922e+02
2.110000000000000000e+02,2.367431300000000078e+02
2.120000000000000000e+02,2.373644600000000082e+02
2.130000000000000000e+02,2.379758099999999956e+02
2.140000000000000000e+02,2.385787400000000105e+02
2.150000000000000000e+02,2.391747000000000014e+02
2.160000000000000000e+02,2.397649399999999957e+02
2.170000000000000000e+02,2.403508500000000083e+02
2.180000000000000000e+02,2.409336399999999969e+02
2.190000000000000000e+02,2.415144500000000107e+02
2.200000000000000000e+02,2.420943599999999947e+02
2.210000000000000000e+02,2.426743600000000072e+02
2.220000000000000000e+02,2.432554499999999962e+02
2.230000000000000000e+02,2.438386700000000076e+02
2.240000000000000000e+02,2.444247599999999920e+02
2.250000000000000000e+02,2.450146000000000015e+02
2.260000000000000000e+02,2.456090700000000027e+02
2.270000000000000000e+02,2.462085600000000056e+02
2.280000000000000000e+02,2.469123800000000131e+02
2.290000000000000000e+02,2.475725899999999911e+02
2.300000000000000000e+02,2.482189899999999909e+02
2.310000000000000000e+02,2.488609500000000025e+02
2.320000000000000000e+02,2.495029900000000112e+02
2.330000000000000000e+02,2.501497699999999895e+02
2.340000000000000000e+02,2.508036500000000046e+02
2.350000000000000000e+02,2.514667800000000000e+02
2.360000000000000000e+02,2.521401999999999930e+02
2.370000000000000000e+02,2.528247200000000134e+02
2.380000000000000000e+02,2.535212199999999996e+02
2.390000000000000000e+02,2.542300600000000088e+02
2.400000000000000000e+02,2.549521000000000015e+02
2.410000000000000000e+02,2.556876800000000003e+02
2.420000000000000000e+02,2.564375000000000000e+02
2.430000000000000000e+02,2.572021500000000174e+02
2.440000000000000000e+02,2.579821499999999901e+02
2.450000000000000000e+02,2.587778299999999945e+02
2.460000000000000000e+02,2.595900300000000129e+02
2.470000000000000000e+02,2.604195900000000279e+02
2.480000000000000000e+02,2.612674000000000092e+02
2.490000000000000000e+02,2.621335100000000011e+02
2.500000000000000000e+02,2.630186800000000176e+02
2.510000000000000000e+02,2.639241299999999910e+02
2.520000000000000000e+02,2.648507399999999734e+02
2.530000000000000000e+02,2.657988300000000095e+02
2.540000000000000000e+02,2.667696500000000128e+02
2.550000000000000000e+02,2.680779999999999745e+02
2.560000000000000000e+02,2.691627500000000168e+02
2.570000000000000000e+02,2.702044999999999959e+02
2.580000000000000000e+02,2.712663900000000012e+02
2.590000000000000000e+02,2.723548599999999738e+02
2.600000000000000000e+02,2.734745199999999841e+02
2.610000000000000000e+02,2.746265300000000025e+02
2.620000000000000000e+02,2.758117399999999861e+02
2.630000000000000000e+02,2.770307900000000245e+02
2.640000000000000000e+02,2.782848799999999869e+02
2.650000000000000000e+02,2.795741600000000062e+02
2.660000000000000000e+02,2.808996900000000210e+02
2.670000000000000000e+02,2.822625699999999824e+02
2.680000000000000000e+02,2.836657700000000091e+02
2.690000000000000000e+02,2.851078800000000228e+02
2.700000000000000000e+02,2.865921299999999974e+02
2.710000000000000000e+02,2.881185600000000022e+02
2.720000000000000000e+02,2.896890599999999836e+02
2.730000000000000000e+02,2.913041400000000181e+02
2.740000000000000000e+02,2.929656100000000265e+02
2.750000000000000000e+02,2.946740100000000098e+02
2.760000000000000000e+02,2.964310899999999833e+02
2.770000000000000000e+02,2.982351100000000201e+02
2.780000000000000000e+02,3.000884100000000103e+02
2.790000000000000000e+02,3.019910600000000045e+02
2.800000000000000000e+02,3.039439699999999789e+02
2.810000000000000000e+02,3.059448199999999929e+02
2.820000000000000000e+02,3.079949300000000108e+02
2.830000000000000000e+02,3.100929899999999861e+02
2.840000000000000000e+02,3.122378199999999993e+02
2.850000000000000000e+02,3.144292899999999804e+02
2.860000000000000000e+02,3.166648599999999760e+02
2.870000000000000000e+02,3.189422299999999950e+02
2.880000000000000000e+02,3.212586699999999951e+02
2.890000000000000000e+02,3.236138300000000072e+02
2.900000000000000000e+02,3.264031400000000076e+02
2.910000000000000000e+02,3.288822000000000116e+02
2.920000000000000000e+02,3.313115799999999922e+02
2.930000000000000000e+02,3.337696199999999749e+02
2.940000000000000000e+02,3.362470700000000079e+02
2.950000000000000000e+02,3.387441400000000158e+02
2.960000000000000000e+02,3.412566199999999981e+02
2.970000000000000000e+02,3.437818899999999758e+02
2.980000000000000000e+02,3.463161600000000249e+02
2.990000000000000000e+02,3.488566299999999956e+02
3.000000000000000000e+02,3.513996599999999830e+02
3.010000000000000000e+02,3.539431200000000217e+02
3.020000000000000000e+02,3.564844100000000253e+02
3.030000000000000000e+02,3.590208700000000022e+02
3.040000000000000000e+02,3.615504500000000121e+02
3.050000000000000000e+02,3.640702800000000252e+02
3.060000000000000000e+02,3.665793199999999956e+02
3.070000000000000000e+02,3.690753199999999765e+02
3.080000000000000000e+02,3.715575000000000045e+02
3.090000000000000000e+02,3.740244400000000269e+02
3.100000000000000000e+02,3.764748500000000035e+02
3.110000000000000000e+02,3.789077800000000025e+02
3.120000000000000000e+02,3.813227800000000229e+02
3.130000000000000000e+02,3.837189900000000193e+02
3.140000000000000000e+02,3.860962200000000166e+02
3.150000000000000000e+02,3.884539500000000203e+02
3.160000000000000000e+02,3.907912299999999846e+02
3.170000000000000000e+02,3.931088599999999929e+02
3.180000000000000000e+02,3.954066799999999944e+02
3.190000000000000000e+02,3.976843000000000075e+02
3.200000000000000000e+02,3.999420200000000136e+02
3.210000000000000000e+02,4.021800499999999943e+02
3.220000000000000000e+02,4.043974299999999857e+02
3.230000000000000000e+02,4.065953099999999836e+02
3.240000000000000000e+02,4.087741399999999885e+02
3.250000000000000000e+02,4.109338099999999940e+02
3.260000000000000000e+02,4.130744599999999878e+02
3.270000000000000000e+02,4.151964399999999955e+02
3.280000000000000000e+02,4.172996800000000235e+02
3.290000000000000000e+02,4.193849500000000035e+02
3.300000000000000000e+02,4.214523599999999988e+02
3.310000000000000000e+02,4.235023199999999974e+02
3.320000000000000000e+02,4.255353099999999813e+02
3.330000000000000000e+02,4.275513000000000261e+02
3.340000000000000000e+02,4.295506300000000124e+02
3.350000000000000000e+02,4.315335999999999785e+02
3.360000000000000000e+02,4.335002700000000004e+02
3.370000000000000000e+02,4.354513499999999908e+02
3.380000000000000000e+02,4.373870200000000068e+02
3.390000000000000000e+02,4.393076199999999858e+02
3.400000000000000000e+02,4.412135599999999727e+02
3.410000000000000000e+02,4.431044899999999984e+02
3.420000000000000000e+02,4.449813199999999824e+02
3.430000000000000000e+02,4.468439300000000003e+02
3.440000000000000000e+02,4.486924999999999955e+02
3.450000000000000000e+02,4.505277100000000132e+02
3.460000000000000000e+02,4.523492100000000278e+02
3.470000000000000000e+02,4.541579600000000028e+02
3.480000000000000000e+02,4.559531900000000064e+02
3.490000000000000000e+02,4.577359599999999773e+02
3.500000000000000000e+02,4.595056200000000217e+02
3.510000000000000000e+02,4.612633099999999899e+02
3.520000000000000000e+02,4.630083900000000199e+02
3.530000000000000000e+02,4.647414200000000051e+02
3.540000000000000000e+02,4.664628900000000158e+02
3.550000000000000000e+02,4.681725799999999822e+02
3.560000000000000000e+02,4.698704200000000242e+02
3.570000000000000000e+02,4.715568200000000161e+02
3.580000000000000000e+02,4.732319600000000150e+02
3.590000000000000000e+02,4.748956900000000019e+02
3.600000000000000000e+02,4.765482499999999959e+02
3.610000000000000000e+02,4.781899700000000166e+02
3.620000000000000000e+02,4.798209200000000010e+02
3.630000000000000000e+02,4.814411600000000249e+02
3.640000000000000000e+02,4.830507200000000125e+02
3.650000000000000000e+02,4.846498700000000213e+02
3.660000000000000000e+02,4.862383699999999749e+02
3.670000000000000000e+02,4.878163799999999810e+02
3.680000000000000000e+02,4.893843100000000277e+02
3.690000000000000000e+02,4.909421399999999949e+02
3.700000000000000000e+02,4.924900499999999965e+02
3.710000000000000000e+02,4.940279199999999946e+02
3.720000000000000000e+02,4.955557600000000207e+02
3.730000000000000000e+02,4.970735500000000116e+02
3.740000000000000000e+02,4.985819399999999746e+02
3.750000000000000000e+02,5.000806299999999851e+02
3.760000000000000000e+02,5.015697599999999738e+02
3.770000000000000000e+02,5.030491299999999910e+02
3.780000000000000000e+02,5.045192599999999743e+02
3.790000000000000000e+02,5.059798299999999927e+02
3.800000000000000000e+02,5.074309700000000021e+02
3.810000000000000000e+02,5.088729599999999778e+02
3.820000000000000000e+02,5.103054799999999886e+02
3.830000000000000000e+02,5.117292199999999980e+02
3.840000000000000000e+02,5.131437399999999798e+02
3.850000000000000000e+02,5.145490099999999529e+02
3.860000000000000000e+02,5.159454299999999876e+02
3.870000000000000000e+02,5.173328199999999697e+02
3.880000000000000000e+02,5.187110599999999749e+02
3.890000000000000000e+02,5.200808100000000422e+02
3.900000000000000000e+02,5.214415299999999434e+02
3.910000000000000000e+02,5.227937600000000202e+02
3.920000000000000000e+02,5.241368999999999687e+02
3.930000000000000000e+02,5.254715599999999540e+02
3.940000000000000000e+02,5.267979100000000017e+02
3.950000000000000000e+02,5.281153000000000475e+02
3.960000000000000000e+02,5.294242600000000039e+02
3.970000000000000000e+02,5.307250400000000354e+02
3.980000000000000000e+02,5.320172099999999773e+02
3.990000000000000000e+02,5.333008399999999938e+02
