# Time [s], Temperature [C]
1.000000000000000000e+00,2.499998300000000029e+01
2.000000000000000000e+00,3.597988900000000001e+01
3.000000000000000000e+00,4.223685100000000148e+01
4.000000000000000000e+00,4.734483300000000128e+01
5.000000000000000000e+00,5.163691299999999984e+01
6.000000000000000000e+00,5.542462499999999892e+01
7.000000000000000000e+00,5.883562500000000028e+01
8.000000000000000000e+00,6.195985399999999998e+01
9.000000000000000000e+00,6.485441600000000051e+01
1.000000000000000000e+01,6.756011200000000372e+01
1.100000000000000000e+01,7.010665899999999340e+01
1.200000000000000000e+01,7.251733400000000529e+01
1.300000000000000000e+01,7.480953999999999837e+01
1.400000000000000000e+01,7.699761999999999773e+01
1.500000000000000000e+01,7.909358199999999783e+01
1.600000000000000000e+01,8.110646099999999592e+01
1.700000000000000000e+01,8.304472400000000221e+01
1.800000000000000000e+01,8.491496300000000019e+01
1.900000000000000000e+01,8.672321300000000122e+01
2.000000000000000000e+01,8.847444199999999626e+01
2.100000000000000000e+01,9.017301199999999994e+01
2.200000000000000000e+01,9.182273899999999855e+01
2.300000000000000000e+01,9.342740600000000484e+01
2.400000000000000000e+01,9.498969300000000260e+01
2.500000000000000000e+01,9.651234399999999880e+01
2.600000000000000000e+01,9.799787100000000351e+01
2.700000000000000000e+01,9.944886800000000449e+01
2.800000000000000000e+01,1.008665299999999974e+02
2.900000000000000000e+01,1.022532099999999957e+02
3.000000000000000000e+01,1.036103700000000032e+02
3.100000000000000000e+01,1.049396500000000003e+02
3.200000000000000000e+01,1.062423900000000003e+02
3.300000000000000000e+01,1.075200499999999977e+02
3.400000000000000000e+01,1.087736699999999956e+02
3.500000000000000000e+01,1.100041999999999973e+02
3.600000000000000000e+01,1.112129099999999937e+02
3.700000000000000000e+01,1.124004800000000017e+02
3.800000000000000000e+01,1.135682800000000015e+02
3.900000000000000000e+01,1.147170200000000051e+02
4.000000000000000000e+01,1.158471200000000039e+02
4.100000000000000000e+01,1.169595900000000057e+02
4.200000000000000000e+01,1.180552200000000056e+02
4.300000000000000000e+01,1.191343399999999946e+02
4.400000000000000000e+01,1.201980400000000060e+02
4.500000000000000000e+01,1.212463900000000052e+02
4.600000000000000000e+01,1.222803300000000064e+02
4.700000000000000000e+01,1.233003599999999977e+02
4.800000000000000000e+01,1.243068200000000019e+02
4.900000000000000000e+01,1.253002299999999991e+02
5.000000000000000000e+01,1.262811099999999982e+02
5.100000000000000000e+01,1.272496900000000011e+02
5.200000000000000000e+01,1.282063899999999990e+02
5.300000000000000000e+01,1.291517499999999927e+02
5.400000000000000000e+01,1.300858800000000031e+02
5.500000000000000000e+01,1.310091600000000085e+02
5.600000000000000000e+01,1.319222900000000038e+02
5.700000000000000000e+01,1.328248900000000106e+02
5.800000000000000000e+01,1.337176399999999887e+02
5.900000000000000000e+01,1.346006199999999922e+02
6.000000000000000000e+01,1.354740899999999897e+02
6.100000000000000000e+01,1.363380099999999970e+02
6.200000000000000000e+01,1.371930999999999869e+02
6.300000000000000000e+01,1.380389900000000125e+02
6.400000000000000000e+01,1.388760200000000111e+02
6.500000000000000000e+01,1.397043899999999894e+02
6.600000000000000000e+01,1.405241200000000106e+02
6.700000000000000000e+01,1.413353700000000117e+02
6.800000000000000000e+01,1.421386599999999873e+02
6.900000000000000000e+01,1.429335000000000093e+02
7.000000000000000000e+01,1.437201799999999992e+02
7.100000000000000000e+01,1.444993599999999958e+02
7.200000000000000000e+01,1.452703700000000140e+02
7.300000000000000000e+01,1.460335499999999911e+02
7.400000000000000000e+01,1.467896599999999978e+02
7.500000000000000000e+01,1.475381500000000017e+02
7.600000000000000000e+01,1.482789799999999900e+02
7.700000000000000000e+01,1.490132000000000119e+02
7.800000000000000000e+01,1.497398399999999867e+02
7.900000000000000000e+01,1.504594600000000071e+02
8.000000000000000000e+01,1.511728699999999890e+02
8.100000000000000000e+01,1.518789400000000001e+02
8.200000000000000000e+01,1.525782900000000097e+02
8.300000000000000000e+01,1.532719299999999976e+02
8.400000000000000000e+01,1.539585700000000088e+02
8.500000000000000000e+01,1.546384400000000028e+02
8.600000000000000000e+01,1.553135699999999986e+02
8.700000000000000000e+01,1.559814299999999889e+02
8.800000000000000000e+01,1.566430699999999945e+02
8.900000000000000000e+01,1.573002899999999897e+02
9.000000000000000000e+01,1.579504499999999894e+02
9.100000000000000000e+01,1.585945000000000107e+02
9.200000000000000000e+01,1.592346200000000067e+02
9.300000000000000000e+01,1.598678999999999917e+02
9.400000000000000000e+01,1.604949300000000108e+02
9.500000000000000000e+01,1.611188500000000090e+02
9.600000000000000000e+01,1.617357900000000086e+02
9.700000000000000000e+01,1.623464999999999918e+02
9.800000000000000000e+01,1.629548599999999965e+02
9.900000000000000000e+01,1.635557699999999954e+02
1.000000000000000000e+02,1.641511099999999885e+02
1.010000000000000000e+02,1.647439300000000060e+02
1.020000000000000000e+02,1.653298499999999933e+02
1.030000000000000000e+02,1.659094800000000021e+02
1.040000000000000000e+02,1.664879500000000121e+02
1.050000000000000000e+02,1.670584299999999871e+02
1.060000000000000000e+02,1.676233799999999974e+02
1.070000000000000000e+02,1.681872299999999996e+02
1.080000000000000000e+02,1.687431300000000078e+02
1.090000000000000000e+02,1.692930299999999875e+02
1.100000000000000000e+02,1.698427599999999984e+02
1.110000000000000000e+02,1.703843500000000120e+02
1.120000000000000000e+02,1.709195899999999995e+02
1.130000000000000000e+02,1.714554400000000101e+02
1.140000000000000000e+02,1.719824500000000000e+02
1.150000000000000000e+02,1.725032999999999959e+02
1.160000000000000000e+02,1.730254999999999939e+02
1.170000000000000000e+02,1.735381800000000112e+02
1.180000000000000000e+02,1.740445400000000120e+02
1.190000000000000000e+02,1.745532800000000009e+02
1.200000000000000000e+02,1.750517900000000111e+02
1.210000000000000000e+02,1.755437599999999918e+02
1.220000000000000000e+02,1.760392500000000098e+02
1.230000000000000000e+02,1.765234100000000126e+02
1.240000000000000000e+02,1.770011100000000113e+02
1.250000000000000000e+02,1.774834400000000016e+02
1.260000000000000000e+02,1.779540599999999984e+02
1.270000000000000000e+02,1.784173000000000116e+02
1.280000000000000000e+02,1.788864000000000090e+02
1.290000000000000000e+02,1.793431099999999958e+02
1.300000000000000000e+02,1.797923999999999864e+02
1.310000000000000000e+02,1.802489600000000110e+02
1.320000000000000000e+02,1.806917400000000100e+02
1.330000000000000000e+02,1.811270299999999907e+02
1.340000000000000000e+02,1.815709699999999884e+02
1.350000000000000000e+02,1.820002100000000098e+02
1.360000000000000000e+02,1.824218400000000031e+02
1.370000000000000000e+02,1.828536499999999876e+02
1.380000000000000000e+02,1.832695300000000032e+02
1.390000000000000000e+02,1.836774699999999996e+02
1.400000000000000000e+02,1.840974099999999964e+02
1.410000000000000000e+02,1.845006300000000010e+02
1.420000000000000000e+02,1.848955100000000016e+02
1.430000000000000000e+02,1.853041100000000085e+02
1.440000000000000000e+02,1.856947299999999927e+02
1.450000000000000000e+02,1.860768400000000042e+02
1.460000000000000000e+02,1.864744900000000030e+02
1.470000000000000000e+02,1.868529200000000117e+02
1.480000000000000000e+02,1.872226400000000126e+02
1.490000000000000000e+02,1.876099499999999978e+02
1.500000000000000000e+02,1.879768100000000004e+02
1.510000000000000000e+02,1.883347200000000043e+02
1.520000000000000000e+02,1.887123300000000086e+02
1.530000000000000000e+02,1.890683699999999874e+02
1.540000000000000000e+02,1.894150699999999858e+02
1.550000000000000000e+02,1.897836599999999976e+02
1.560000000000000000e+02,1.901290300000000002e+02
1.570000000000000000e+02,1.904651499999999942e+02
1.580000000000000000e+02,1.908253300000000081e+02
1.590000000000000000e+02,1.911609200000000044e+02
1.600000000000000000e+02,1.914871200000000044e+02
1.610000000000000000e+02,1.918401800000000037e+02
1.620000000000000000e+02,1.921666999999999916e+02
1.630000000000000000e+02,1.924837200000000053e+02
1.640000000000000000e+02,1.928293600000000083e+02
1.650000000000000000e+02,1.931474599999999953e+02
1.660000000000000000e+02,1.934559199999999919e+02
1.670000000000000000e+02,1.937957000000000107e+02
1.680000000000000000e+02,1.941061599999999885e+02
1.690000000000000000e+02,1.944071500000000015e+02
1.700000000000000000e+02,1.947412600000000111e+02
1.710000000000000000e+02,1.950447100000000091e+02
1.720000000000000000e+02,1.953385800000000074e+02
1.730000000000000000e+02,1.956678499999999872e+02
1.740000000000000000e+02,1.959652900000000102e+02
1.750000000000000000e+02,1.962526200000000074e+02
1.760000000000000000e+02,1.965783099999999877e+02
1.770000000000000000e+02,1.968698100000000011e+02
1.780000000000000000e+02,1.971513699999999858e+02
1.790000000000000000e+02,1.974736000000000047e+02
1.800000000000000000e+02,1.977605599999999981e+02
1.810000000000000000e+02,1.980370900000000063e+02
1.820000000000000000e+02,1.983564000000000078e+02
1.830000000000000000e+02,1.986386099999999999e+02
1.840000000000000000e+02,1.989113600000000019e+02
1.850000000000000000e+02,1.992283600000000092e+02
1.860000000000000000e+02,1.995069000000000017e+02
1.870000000000000000e+02,1.997752700000000061e+02
1.880000000000000000e+02,2.000914199999999994e+02
1.890000000000000000e+02,2.003665900000000022e+02
1.900000000000000000e+02,2.006316500000000076e+02
1.910000000000000000e+02,2.009467199999999991e+02
1.920000000000000000e+02,2.012192499999999882e+02
1.930000000000000000e+02,2.014815700000000049e+02
1.940000000000000000e+02,2.017955599999999947e+02
1.950000000000000000e+02,2.020661200000000122e+02
1.960000000000000000e+02,2.023262000000000000e+02
1.970000000000000000e+02,2.026395300000000077e+02
1.980000000000000000e+02,2.029082799999999907e+02
1.990000000000000000e+02,2.031666999999999916e+02
2.000000000000000000e+02,2.034802400000000091e+02
2.010000000000000000e+02,2.037475399999999865e+02
2.020000000000000000e+02,2.040044100000000071e+02
2.030000000000000000e+02,2.043183099999999968e+02
2.040000000000000000e+02,2.045841800000000035e+02
2.050000000000000000e+02,2.048400900000000036e+02
2.060000000000000000e+02,2.051547099999999944e+02
2.070000000000000000e+02,2.054197699999999998e+02
2.080000000000000000e+02,2.056749700000000018e+02
2.090000000000000000e+02,2.059904799999999909e+02
2.100000000000000000e+02,2.062548999999999921e+02
2.110000000000000000e+02,2.065095499999999902e+02
2.120000000000000000e+02,2.068256700000000023e+02
2.130000000000000000e+02,2.070902100000000132e+02
2.140000000000000000e+02,2.073446199999999919e+02
2.150000000000000000e+02,2.076618799999999965e+02
2.160000000000000000e+02,2.079263599999999883e+02
2.170000000000000000e+02,2.081806500000000142e+02
2.180000000000000000e+02,2.084991499999999860e+02
2.190000000000000000e+02,2.087638200000000097e+02
2.200000000000000000e+02,2.090177199999999971e+02
2.210000000000000000e+02,2.093382100000000037e+02
2.220000000000000000e+02,2.096023600000000044e+02
2.230000000000000000e+02,2.098571000000000026e+02
2.240000000000000000e+02,2.101788799999999924e+02
2.250000000000000000e+02,2.104433600000000126e+02
2.260000000000000000e+02,2.106986200000000053e+02
2.270000000000000000e+02,2.110218000000000131e+02
2.280000000000000000e+02,2.112867699999999900e+02
2.290000000000000000e+02,2.115420100000000048e+02
2.300000000000000000e+02,2.118671099999999967e+02
2.310000000000000000e+02,2.121326400000000092e+02
2.320000000000000000e+02,2.123885300000000029e+02
2.330000000000000000e+02,2.127142900000000054e+02
2.340000000000000000e+02,2.129812000000000012e+02
2.350000000000000000e+02,2.132375499999999988e+02
2.360000000000000000e+02,2.135647700000000100e+02
2.370000000000000000e+02,2.138316499999999962e+02
2.380000000000000000e+02,2.140897199999999998e+02
2.390000000000000000e+02,2.144171299999999860e+02
2.400000000000000000e+02,2.146853900000000124e+02
2.410000000000000000e+02,2.149441500000000076e+02
2.420000000000000000e+02,2.152726900000000114e+02
2.430000000000000000e+02,2.155418200000000013e+02
2.440000000000000000e+02,2.158014499999999884e+02
2.450000000000000000e+02,2.161309799999999939e+02
2.460000000000000000e+02,2.164001499999999965e+02
2.470000000000000000e+02,2.166605800000000102e+02
2.480000000000000000e+02,2.169919999999999902e+02
2.490000000000000000e+02,2.172615700000000061e+02
2.500000000000000000e+02,2.175229799999999898e+02
2.510000000000000000e+02,2.178549700000000087e+02
2.520000000000000000e+02,2.181252599999999973e+02
2.530000000000000000e+02,2.183868699999999876e+02
2.540000000000000000e+02,2.187193800000000010e+02
2.550000000000000000e+02,2.189915200000000084e+02
2.560000000000000000e+02,2.192536599999999964e+02
2.570000000000000000e+02,2.195867800000000045e+02
2.580000000000000000e+02,2.198584700000000112e+02
2.590000000000000000e+02,2.201226699999999994e+02
2.600000000000000000e+02,2.204549599999999998e+02
2.610000000000000000e+02,2.204234600000000057e+02
2.620000000000000000e+02,2.196292300000000068e+02
2.630000000000000000e+02,2.196116299999999910e+02
2.640000000000000000e+02,2.196602300000000128e+02
2.650000000000000000e+02,2.197920699999999954e+02
2.660000000000000000e+02,2.200258900000000040e+02
2.670000000000000000e+02,2.202389200000000073e+02
2.680000000000000000e+02,2.204538300000000106e+02
2.690000000000000000e+02,2.207436800000000119e+02
2.700000000000000000e+02,2.209947500000000105e+02
2.710000000000000000e+02,2.212379799999999932e+02
2.720000000000000000e+02,2.215483399999999961e+02
2.730000000000000000e+02,2.218143000000000029e+02
2.740000000000000000e+02,2.220702400000000125e+02
2.750000000000000000e+02,2.223888399999999876e+02
2.760000000000000000e+02,2.226634799999999927e+02
2.770000000000000000e+02,2.229257399999999905e+02
2.780000000000000000e+02,2.232489500000000078e+02
2.790000000000000000e+02,2.235278500000000008e+02
2.800000000000000000e+02,2.237939000000000078e+02
2.810000000000000000e+02,2.241186399999999992e+02
2.820000000000000000e+02,2.243998899999999992e+02
2.830000000000000000e+02,2.246694300000000055e+02
2.840000000000000000e+02,2.249950100000000077e+02
2.850000000000000000e+02,2.252778900000000135e+02
2.860000000000000000e+02,2.255482599999999991e+02
2.870000000000000000e+02,2.258754000000000133e+02
2.880000000000000000e+02,2.261581400000000031e+02
2.890000000000000000e+02,2.264304400000000044e+02
2.900000000000000000e+02,2.267577100000000030e+02
2.910000000000000000e+02,2.270411200000000065e+02
2.920000000000000000e+02,2.273132799999999918e+02
2.930000000000000000e+02,2.276400800000000118e+02
2.940000000000000000e+02,2.279249299999999891e+02
2.950000000000000000e+02,2.281973999999999876e+02
2.960000000000000000e+02,2.285239100000000008e+02
2.970000000000000000e+02,2.288079500000000053e+02
2.980000000000000000e+02,2.290820600000000127e+02
2.990000000000000000e+02,2.294065400000000068e+02
3.000000000000000000e+02,2.296915300000000002e+02
3.010000000000000000e+02,2.299647400000000061e+02
3.020000000000000000e+02,2.302895200000000102e+02
3.030000000000000000e+02,2.305732299999999952e+02
3.040000000000000000e+02,2.308475200000000029e+02
3.050000000000000000e+02,2.311713399999999865e+02
3.060000000000000000e+02,2.314549299999999903e+02
3.070000000000000000e+02,2.317282099999999900e+02
3.080000000000000000e+02,2.320504799999999932e+02
3.090000000000000000e+02,2.323351099999999860e+02
3.100000000000000000e+02,2.326082800000000077e+02
3.110000000000000000e+02,2.329282499999999914e+02
3.120000000000000000e+02,2.332123599999999897e+02
3.130000000000000000e+02,2.334868600000000072e+02
3.140000000000000000e+02,2.338051800000000071e+02
3.150000000000000000e+02,2.340874900000000025e+02
3.160000000000000000e+02,2.343615900000000067e+02
3.170000000000000000e+02,2.346801499999999976e+02
3.180000000000000000e+02,2.349616399999999885e+02
3.190000000000000000e+02,2.352353500000000111e+02
3.200000000000000000e+02,2.355523499999999899e+02
3.210000000000000000e+02,2.358334499999999991e+02
3.220000000000000000e+02,2.361055499999999938e+02
3.230000000000000000e+02,2.364207800000000077e+02
3.240000000000000000e+02,2.367026799999999866e+02
3.250000000000000000e+02,2.369740899999999897e+02
3.260000000000000000e+02,2.372862199999999859e+02
3.270000000000000000e+02,2.375684100000000001e+02
3.280000000000000000e+02,2.378396799999999871e+02
3.290000000000000000e+02,2.381501800000000060e+02
3.300000000000000000e+02,2.384290499999999895e+02
3.310000000000000000e+02,2.387024199999999894e+02
3.320000000000000000e+02,2.390108600000000081e+02
3.330000000000000000e+02,2.392886699999999962e+02
3.340000000000000000e+02,2.395613299999999981e+02
3.350000000000000000e+02,2.398683000000000050e+02
3.360000000000000000e+02,2.401452600000000075e+02
3.370000000000000000e+02,2.404142799999999909e+02
3.380000000000000000e+02,2.407221399999999960e+02
3.390000000000000000e+02,2.407552499999999895e+02
3.400000000000000000e+02,2.404711900000000071e+02
3.410000000000000000e+02,2.405972099999999898e+02
3.420000000000000000e+02,2.407488700000000108e+02
3.430000000000000000e+02,2.409382600000000139e+02
3.440000000000000000e+02,2.411828299999999956e+02
3.450000000000000000e+02,2.414145800000000008e+02
3.460000000000000000e+02,2.416500100000000089e+02
3.470000000000000000e+02,2.419241499999999974e+02
3.480000000000000000e+02,2.421785700000000077e+02
3.490000000000000000e+02,2.424312299999999993e+02
3.500000000000000000e+02,2.427171199999999942e+02
3.510000000000000000e+02,2.429813399999999888e+02
3.520000000000000000e+02,2.432419299999999964e+02
3.530000000000000000e+02,2.435327900000000056e+02
3.540000000000000000e+02,2.438015599999999949e+02
3.550000000000000000e+02,2.440659599999999898e+02
3.560000000000000000e+02,2.443583700000000078e+02
3.570000000000000000e+02,2.446290099999999939e+02
3.580000000000000000e+02,2.448939100000000053e+02
3.590000000000000000e+02,2.451875900000000001e+02
3.600000000000000000e+02,2.454590599999999938e+02
3.610000000000000000e+02,2.457246199999999874e+02
3.620000000000000000e+02,2.460176500000000033e+02
3.630000000000000000e+02,2.462889700000000062e+02
3.640000000000000000e+02,2.465544600000000059e+02
3.650000000000000000e+02,2.468447899999999890e+02
3.660000000000000000e+02,2.471162600000000111e+02
3.670000000000000000e+02,2.473800200000000018e+02
3.680000000000000000e+02,2.476705200000000104e+02
3.690000000000000000e+02,2.479408899999999960e+02
3.700000000000000000e+02,2.482039800000000014e+02
3.710000000000000000e+02,2.484926800000000071e+02
3.720000000000000000e+02,2.487619599999999878e+02
3.730000000000000000e+02,2.490238200000000006e+02
3.740000000000000000e+02,2.493105600000000095e+02
3.750000000000000000e+02,2.495772699999999986e+02
3.760000000000000000e+02,2.498392599999999959e+02
3.770000000000000000e+02,2.501243399999999895e+02
3.780000000000000000e+02,2.503898499999999956e+02
3.790000000000000000e+02,2.506507900000000006e+02
3.800000000000000000e+02,2.509336099999999874e+02
3.810000000000000000e+02,2.511976200000000006e+02
3.820000000000000000e+02,2.514560099999999920e+02
3.830000000000000000e+02,2.517379799999999932e+02
3.840000000000000000e+02,2.520006700000000137e+02
3.850000000000000000e+02,2.522579700000000003e+02
3.860000000000000000e+02,2.525380600000000015e+02
3.870000000000000000e+02,2.527989699999999971e+02
3.880000000000000000e+02,2.530548900000000003e+02
3.890000000000000000e+02,2.533332800000000020e+02
3.900000000000000000e+02,2.535927700000000016e+02
3.910000000000000000e+02,2.538474600000000123e+02
3.920000000000000000e+02,2.541238999999999919e+02
3.930000000000000000e+02,2.543819000000000017e+02
3.940000000000000000e+02,2.546352699999999913e+02
3.950000000000000000e+02,2.549097399999999993e+02
3.960000000000000000e+02,2.551661499999999876e+02
3.970000000000000000e+02,2.554176500000000090e+02
3.980000000000000000e+02,2.556900300000000072e+02
3.990000000000000000e+02,2.559453100000000063e+02
