# Time [s], Temperature [C]
1.000000000000000000e+00,2.499997099999999861e+01
2.000000000000000000e+00,6.716511500000000012e+01
3.000000000000000000e+00,9.114702599999999677e+01
4.000000000000000000e+00,1.104467599999999976e+02
5.000000000000000000e+00,1.265089799999999940e+02
6.000000000000000000e+00,1.405369100000000060e+02
7.000000000000000000e+00,1.530443999999999960e+02
8.000000000000000000e+00,1.643867500000000064e+02
9.000000000000000000e+00,1.747920200000000079e+02
1.000000000000000000e+01,1.844229100000000017e+02
1.100000000000000000e+01,1.933995400000000018e+02
1.200000000000000000e+01,2.018162100000000123e+02
1.300000000000000000e+01,2.097431899999999985e+02
1.400000000000000000e+01,2.172421300000000031e+02
1.500000000000000000e+01,2.243618299999999977e+02
1.600000000000000000e+01,2.311456000000000017e+02
1.700000000000000000e+01,2.376352699999999913e+02
1.800000000000000000e+01,2.438663200000000018e+02
1.900000000000000000e+01,2.498699799999999982e+02
2.000000000000000000e+01,2.556748399999999890e+02
2.100000000000000000e+01,2.612928800000000251e+02
2.200000000000000000e+01,2.667281199999999899e+02
2.300000000000000000e+01,2.719742100000000278e+02
2.400000000000000000e+01,2.770152600000000120e+02
2.500000000000000000e+01,2.818469499999999925e+02
2.600000000000000000e+01,2.864698799999999892e+02
2.700000000000000000e+01,2.908881799999999771e+02
2.800000000000000000e+01,2.951097700000000259e+02
2.900000000000000000e+01,2.991447800000000257e+02
3.000000000000000000e+01,3.029966699999999946e+02
3.100000000000000000e+01,3.066709299999999985e+02
3.200000000000000000e+01,3.101733399999999961e+02
3.300000000000000000e+01,3.135015000000000214e+02
3.400000000000000000e+01,3.166580500000000029e+02
3.500000000000000000e+01,3.196474900000000048e+02
3.600000000000000000e+01,3.224653900000000135e+02
3.700000000000000000e+01,3.251189299999999776e+02
3.800000000000000000e+01,3.276175799999999754e+02
3.900000000000000000e+01,3.299580700000000206e+02
4.000000000000000000e+01,3.321525300000000129e+02
4.100000000000000000e+01,3.342182900000000245e+02
4.200000000000000000e+01,3.361508799999999724e+02
4.300000000000000000e+01,3.379702500000000214e+02
4.400000000000000000e+01,3.396951900000000251e+02
4.500000000000000000e+01,3.413215299999999957e+02
4.600000000000000000e+01,3.428675200000000132e+02
4.700000000000000000e+01,3.443548599999999738e+02
4.800000000000000000e+01,3.457733200000000124e+02
4.900000000000000000e+01,3.471403799999999933e+02
5.000000000000000000e+01,3.484782999999999902e+02
5.100000000000000000e+01,3.497676999999999907e+02
5.200000000000000000e+01,3.510269200000000183e+02
5.300000000000000000e+01,3.522776200000000131e+02
5.400000000000000000e+01,3.534901100000000156e+02
5.500000000000000000e+01,3.546879599999999755e+02
5.600000000000000000e+01,3.558914500000000203e+02
5.700000000000000000e+01,3.570619800000000055e+02
5.800000000000000000e+01,3.582264999999999873e+02
5.900000000000000000e+01,3.594021900000000187e+02
6.000000000000000000e+01,3.605496200000000044e+02
6.100000000000000000e+01,3.616926900000000273e+02
6.200000000000000000e+01,3.628535800000000222e+02
6.300000000000000000e+01,3.639836399999999799e+02
6.400000000000000000e+01,3.651136799999999880e+02
6.500000000000000000e+01,3.662606200000000172e+02
6.600000000000000000e+01,3.673738999999999919e+02
6.700000000000000000e+01,3.684868799999999851e+02
6.800000000000000000e+01,3.696182299999999827e+02
6.900000000000000000e+01,3.707141700000000242e+02
7.000000000000000000e+01,3.718066699999999969e+02
7.100000000000000000e+01,3.729185200000000009e+02
7.200000000000000000e+01,3.739907200000000103e+02
7.300000000000000000e+01,3.750626800000000003e+02
7.400000000000000000e+01,3.761498100000000022e+02
7.500000000000000000e+01,3.771985799999999927e+02
7.600000000000000000e+01,3.782464299999999753e+02
7.700000000000000000e+01,3.793108799999999974e+02
7.800000000000000000e+01,3.803375899999999774e+02
7.900000000000000000e+01,3.813612699999999904e+02
8.000000000000000000e+01,3.824039300000000026e+02
8.100000000000000000e+01,3.834104899999999816e+02
8.200000000000000000e+01,3.844155900000000088e+02
8.300000000000000000e+01,3.854424399999999764e+02
8.400000000000000000e+01,3.864302700000000073e+02
8.500000000000000000e+01,3.874243500000000040e+02
8.600000000000000000e+01,3.884313000000000216e+02
8.700000000000000000e+01,3.894138199999999870e+02
8.800000000000000000e+01,3.903916300000000206e+02
8.900000000000000000e+01,3.913915700000000015e+02
9.000000000000000000e+01,3.923586099999999988e+02
9.100000000000000000e+01,3.933348700000000235e+02
9.200000000000000000e+01,3.943188200000000165e+02
9.300000000000000000e+01,3.952839700000000107e+02
9.400000000000000000e+01,3.962478300000000218e+02
9.500000000000000000e+01,3.972238800000000083e+02
9.600000000000000000e+01,3.981786799999999857e+02
9.700000000000000000e+01,3.991336999999999762e+02
9.800000000000000000e+01,4.001007700000000114e+02
9.900000000000000000e+01,4.010450099999999907e+02
1.000000000000000000e+02,4.019904500000000098e+02
1.010000000000000000e+02,4.029453100000000063e+02
1.020000000000000000e+02,4.038783000000000243e+02
1.030000000000000000e+02,4.048158300000000054e+02
1.040000000000000000e+02,4.057554299999999898e+02
1.050000000000000000e+02,4.081399799999999800e+02
1.060000000000000000e+02,3.981712600000000180e+02
1.070000000000000000e+02,4.009700300000000084e+02
1.080000000000000000e+02,4.005560300000000211e+02
1.090000000000000000e+02,4.020181900000000041e+02
1.100000000000000000e+02,4.027124900000000025e+02
1.110000000000000000e+02,4.038771399999999971e+02
1.120000000000000000e+02,4.048039600000000178e+02
1.130000000000000000e+02,4.058890400000000227e+02
1.140000000000000000e+02,4.068759499999999889e+02
1.150000000000000000e+02,4.079098200000000247e+02
1.160000000000000000e+02,4.089180600000000254e+02
1.170000000000000000e+02,4.099276699999999778e+02
1.180000000000000000e+02,4.109164999999999850e+02
1.190000000000000000e+02,4.119155600000000277e+02
1.200000000000000000e+02,4.128927899999999909e+02
1.210000000000000000e+02,4.138658399999999915e+02
1.220000000000000000e+02,4.148323700000000258e+02
1.230000000000000000e+02,4.157891799999999876e+02
1.240000000000000000e+02,4.167355299999999829e+02
1.250000000000000000e+02,4.176811799999999835e+02
1.260000000000000000e+02,4.186145300000000020e+02
1.270000000000000000e+02,4.195380900000000111e+02
1.280000000000000000e+02,4.204611499999999751e+02
1.290000000000000000e+02,4.213741099999999733e+02
1.300000000000000000e+02,4.222780500000000075e+02
1.310000000000000000e+02,4.231837800000000129e+02
1.320000000000000000e+02,4.240769999999999982e+02
1.330000000000000000e+02,4.249680799999999863e+02
1.340000000000000000e+02,4.258521400000000199e+02
1.350000000000000000e+02,4.267334299999999985e+02
1.360000000000000000e+02,4.276068099999999959e+02
1.370000000000000000e+02,4.284802599999999870e+02
1.380000000000000000e+02,4.293423199999999724e+02
1.390000000000000000e+02,4.302056299999999851e+02
1.400000000000000000e+02,4.310627400000000193e+02
1.410000000000000000e+02,4.319164999999999850e+02
1.420000000000000000e+02,4.327631799999999771e+02
1.430000000000000000e+02,4.336092800000000125e+02
1.440000000000000000e+02,4.344477800000000229e+02
1.450000000000000000e+02,4.352824400000000082e+02
1.460000000000000000e+02,4.361152599999999779e+02
1.470000000000000000e+02,4.369426000000000272e+02
1.480000000000000000e+02,4.377631499999999960e+02
1.490000000000000000e+02,4.385833700000000022e+02
1.500000000000000000e+02,4.393969999999999914e+02
1.510000000000000000e+02,4.402049900000000093e+02
1.520000000000000000e+02,4.410116300000000251e+02
1.530000000000000000e+02,4.412916599999999789e+02
1.540000000000000000e+02,4.410008900000000267e+02
1.550000000000000000e+02,4.414053599999999733e+02
1.560000000000000000e+02,4.420109600000000114e+02
1.570000000000000000e+02,4.427046799999999962e+02
1.580000000000000000e+02,4.434679300000000239e+02
1.590000000000000000e+02,4.442502099999999814e+02
1.600000000000000000e+02,4.450518500000000017e+02
1.610000000000000000e+02,4.458593399999999747e+02
1.620000000000000000e+02,4.466698299999999904e+02
1.630000000000000000e+02,4.474751600000000167e+02
1.640000000000000000e+02,4.482814000000000192e+02
1.650000000000000000e+02,4.490809899999999857e+02
1.660000000000000000e+02,4.498740500000000111e+02
1.670000000000000000e+02,4.506638800000000060e+02
1.680000000000000000e+02,4.514472700000000032e+02
1.690000000000000000e+02,4.522246099999999842e+02
1.700000000000000000e+02,4.529955100000000243e+02
1.710000000000000000e+02,4.537614100000000121e+02
1.720000000000000000e+02,4.545217299999999909e+02
1.730000000000000000e+02,4.552774699999999939e+02
1.740000000000000000e+02,4.560271900000000187e+02
1.750000000000000000e+02,4.567694999999999936e+02
1.760000000000000000e+02,4.575120800000000258e+02
1.770000000000000000e+02,4.582454200000000242e+02
1.780000000000000000e+02,4.589755599999999731e+02
1.790000000000000000e+02,4.597018400000000042e+02
1.800000000000000000e+02,4.604223299999999881e+02
1.810000000000000000e+02,4.611382399999999961e+02
1.820000000000000000e+02,4.618526899999999955e+02
1.830000000000000000e+02,4.625588700000000131e+02
1.840000000000000000e+02,4.632601300000000037e+02
1.850000000000000000e+02,4.639600199999999859e+02
1.860000000000000000e+02,4.646540499999999838e+02
1.870000000000000000e+02,4.653453099999999836e+02
1.880000000000000000e+02,4.660318899999999758e+02
1.890000000000000000e+02,4.667143199999999865e+02
1.900000000000000000e+02,4.673920899999999961e+02
1.910000000000000000e+02,4.680678100000000086e+02
1.920000000000000000e+02,4.687359000000000151e+02
1.930000000000000000e+02,4.694037500000000023e+02
1.940000000000000000e+02,4.695910900000000083e+02
1.950000000000000000e+02,4.700793499999999767e+02
1.960000000000000000e+02,4.706188999999999965e+02
1.970000000000000000e+02,4.711099199999999882e+02
1.980000000000000000e+02,4.717029699999999934e+02
1.990000000000000000e+02,4.722825000000000273e+02
2.000000000000000000e+02,4.729037500000000023e+02
2.010000000000000000e+02,4.735213899999999967e+02
2.020000000000000000e+02,4.741532900000000268e+02
2.030000000000000000e+02,4.747853700000000003e+02
2.040000000000000000e+02,4.754211099999999988e+02
2.050000000000000000e+02,4.760555400000000077e+02
2.060000000000000000e+02,4.766878699999999753e+02
2.070000000000000000e+02,4.773178399999999897e+02
2.080000000000000000e+02,4.779462599999999952e+02
2.090000000000000000e+02,4.785697299999999927e+02
2.100000000000000000e+02,4.791930199999999900e+02
2.110000000000000000e+02,4.798080400000000054e+02
2.120000000000000000e+02,4.804216000000000122e+02
2.130000000000000000e+02,4.810307300000000055e+02
2.140000000000000000e+02,4.816338799999999765e+02
2.150000000000000000e+02,4.822380099999999743e+02
2.160000000000000000e+02,4.828327300000000264e+02
2.170000000000000000e+02,4.834263900000000262e+02
2.180000000000000000e+02,4.840137300000000096e+02
2.190000000000000000e+02,4.846004899999999793e+02
2.200000000000000000e+02,4.851784700000000043e+02
2.210000000000000000e+02,4.857565000000000168e+02
2.220000000000000000e+02,4.863283400000000256e+02
2.230000000000000000e+02,4.868974600000000237e+02
2.240000000000000000e+02,4.874619099999999889e+02
2.250000000000000000e+02,4.880225500000000238e+02
2.260000000000000000e+02,4.885791899999999828e+02
2.270000000000000000e+02,4.891310700000000224e+02
2.280000000000000000e+02,4.895775100000000180e+02
2.290000000000000000e+02,4.899486999999999739e+02
2.300000000000000000e+02,4.904124800000000164e+02
2.310000000000000000e+02,4.908630099999999743e+02
2.320000000000000000e+02,4.913276399999999740e+02
2.330000000000000000e+02,4.918105499999999779e+02
2.340000000000000000e+02,4.922978499999999826e+02
2.350000000000000000e+02,4.927972700000000259e+02
2.360000000000000000e+02,4.932970599999999877e+02
2.370000000000000000e+02,4.938016999999999825e+02
2.380000000000000000e+02,4.943071600000000103e+02
2.390000000000000000e+02,4.948158599999999865e+02
2.400000000000000000e+02,4.953207400000000007e+02
2.410000000000000000e+02,4.958265700000000038e+02
2.420000000000000000e+02,4.963317299999999932e+02
2.430000000000000000e+02,4.968344999999999914e+02
2.440000000000000000e+02,4.973342599999999720e+02
2.450000000000000000e+02,4.978328200000000265e+02
2.460000000000000000e+02,4.983277899999999931e+02
2.470000000000000000e+02,4.988213200000000143e+02
2.480000000000000000e+02,4.993102700000000027e+02
2.490000000000000000e+02,4.997988599999999906e+02
2.500000000000000000e+02,5.002841199999999731e+02
2.510000000000000000e+02,5.007658999999999878e+02
2.520000000000000000e+02,5.012447799999999916e+02
2.530000000000000000e+02,5.017185699999999997e+02
2.540000000000000000e+02,5.021939699999999789e+02
2.550000000000000000e+02,5.026645199999999818e+02
2.560000000000000000e+02,5.031312599999999975e+02
2.570000000000000000e+02,5.035967099999999732e+02
2.580000000000000000e+02,5.040578899999999862e+02
2.590000000000000000e+02,5.045162000000000262e+02
2.600000000000000000e+02,5.049436299999999846e+02
2.610000000000000000e+02,5.052925399999999740e+02
2.620000000000000000e+02,5.056758399999999938e+02
2.630000000000000000e+02,5.060698899999999867e+02
2.640000000000000000e+02,5.064627100000000155e+02
2.650000000000000000e+02,5.068651399999999967e+02
2.660000000000000000e+02,5.072727399999999989e+02
2.670000000000000000e+02,5.076835599999999999e+02
2.680000000000000000e+02,5.080990899999999897e+02
2.690000000000000000e+02,5.085147699999999986e+02
2.700000000000000000e+02,5.089338099999999940e+02
2.710000000000000000e+02,5.093535499999999843e+02
2.720000000000000000e+02,5.097746300000000019e+02
2.730000000000000000e+02,5.101942700000000173e+02
2.740000000000000000e+02,5.106148099999999772e+02
2.750000000000000000e+02,5.110353999999999814e+02
2.760000000000000000e+02,5.114547699999999963e+02
2.770000000000000000e+02,5.118729200000000219e+02
2.780000000000000000e+02,5.122894900000000007e+02
2.790000000000000000e+02,5.127056300000000419e+02
2.800000000000000000e+02,5.131197499999999536e+02
2.810000000000000000e+02,5.135348500000000058e+02
2.820000000000000000e+02,5.139454299999999876e+02
2.830000000000000000e+02,5.143565700000000334e+02
2.840000000000000000e+02,5.147661100000000260e+02
2.850000000000000000e+02,5.151745600000000422e+02
2.860000000000000000e+02,5.155809900000000425e+02
2.870000000000000000e+02,5.159851099999999633e+02
2.880000000000000000e+02,5.163892799999999852e+02
2.890000000000000000e+02,5.167913200000000415e+02
2.900000000000000000e+02,5.171929900000000089e+02
2.910000000000000000e+02,5.175930799999999863e+02
2.920000000000000000e+02,5.179899900000000343e+02
2.930000000000000000e+02,5.183879399999999578e+02
2.940000000000000000e+02,5.187839999999999918e+02
2.950000000000000000e+02,5.191693099999999959e+02
2.960000000000000000e+02,5.195211199999999963e+02
2.970000000000000000e+02,5.198680399999999509e+02
2.980000000000000000e+02,5.202199699999999893e+02
2.990000000000000000e+02,5.205777600000000120e+02
3.000000000000000000e+02,5.209330400000000054e+02
3.010000000000000000e+02,5.212943099999999959e+02
3.020000000000000000e+02,5.216581999999999653e+02
3.030000000000000000e+02,5.220252100000000155e+02
3.040000000000000000e+02,5.223928799999999910e+02
3.050000000000000000e+02,5.227655600000000504e+02
3.060000000000000000e+02,5.231395300000000361e+02
3.070000000000000000e+02,5.235154400000000123e+02
3.080000000000000000e+02,5.238931300000000419e+02
3.090000000000000000e+02,5.242714200000000346e+02
3.100000000000000000e+02,5.246516699999999673e+02
3.110000000000000000e+02,5.250329600000000028e+02
3.120000000000000000e+02,5.254146700000000010e+02
3.130000000000000000e+02,5.257965100000000120e+02
3.140000000000000000e+02,5.261811500000000024e+02
3.150000000000000000e+02,5.265653099999999540e+02
3.160000000000000000e+02,5.269515999999999849e+02
3.170000000000000000e+02,5.273378300000000536e+02
3.180000000000000000e+02,5.277249799999999595e+02
3.190000000000000000e+02,5.281126699999999801e+02
3.200000000000000000e+02,5.285028099999999540e+02
3.210000000000000000e+02,5.288911100000000260e+02
3.220000000000000000e+02,5.292822300000000268e+02
3.230000000000000000e+02,5.296751100000000179e+02
3.240000000000000000e+02,5.300682399999999461e+02
3.250000000000000000e+02,5.304627699999999777e+02
3.260000000000000000e+02,5.308599900000000389e+02
3.270000000000000000e+02,5.312562299999999595e+02
3.280000000000000000e+02,5.316556399999999485e+02
3.290000000000000000e+02,5.320576800000000048e+02
3.300000000000000000e+02,5.324605699999999615e+02
3.310000000000000000e+02,5.328654800000000478e+02
3.320000000000000000e+02,5.332719100000000481e+02
3.330000000000000000e+02,5.336814000000000533e+02
3.340000000000000000e+02,5.340936900000000378e+02
3.350000000000000000e+02,5.345089699999999766e+02
3.360000000000000000e+02,5.349257199999999557e+02
3.370000000000000000e+02,5.353472900000000436e+02
3.380000000000000000e+02,5.357671500000000151e+02
3.390000000000000000e+02,5.361754200000000310e+02
3.400000000000000000e+02,5.365838599999999587e+02
3.410000000000000000e+02,5.369972500000000082e+02
3.420000000000000000e+02,5.374157699999999522e+02
3.430000000000000000e+02,5.378396000000000186e+02
3.440000000000000000e+02,5.382717900000000100e+02
3.450000000000000000e+02,5.387084399999999960e+02
3.460000000000000000e+02,5.391543599999999969e+02
3.470000000000000000e+02,5.396080899999999474e+02
3.480000000000000000e+02,5.400681799999999839e+02
3.490000000000000000e+02,5.405363200000000461e+02
3.500000000000000000e+02,5.410154999999999745e+02
3.510000000000000000e+02,5.414995099999999866e+02
3.520000000000000000e+02,5.419948100000000295e+02
3.530000000000000000e+02,5.424981099999999969e+02
3.540000000000000000e+02,5.430103100000000040e+02
3.550000000000000000e+02,5.435327800000000025e+02
3.560000000000000000e+02,5.440668299999999817e+02
3.570000000000000000e+02,5.446089500000000498e+02
3.580000000000000000e+02,5.451647900000000391e+02
3.590000000000000000e+02,5.457309599999999818e+02
3.600000000000000000e+02,5.463083500000000186e+02
3.610000000000000000e+02,5.469000899999999774e+02
3.620000000000000000e+02,5.475050700000000461e+02
3.630000000000000000e+02,5.481248199999999997e+02
3.640000000000000000e+02,5.487578099999999495e+02
3.650000000000000000e+02,5.494098500000000058e+02
3.660000000000000000e+02,5.500753200000000334e+02
3.670000000000000000e+02,5.507606799999999794e+02
3.680000000000000000e+02,5.514654500000000326e+02
3.690000000000000000e+02,5.521885999999999513e+02
3.700000000000000000e+02,5.529335899999999810e+02
3.710000000000000000e+02,5.537014199999999846e+02
3.720000000000000000e+02,5.544913299999999481e+02
3.730000000000000000e+02,5.553065199999999777e+02
3.740000000000000000e+02,5.561485599999999749e+02
3.750000000000000000e+02,5.570158099999999877e+02
3.760000000000000000e+02,5.579115600000000086e+02
3.770000000000000000e+02,5.588372200000000021e+02
3.780000000000000000e+02,5.597921099999999797e+02
3.790000000000000000e+02,5.607753900000000158e+02
3.800000000000000000e+02,5.617892500000000382e+02
3.810000000000000000e+02,5.628316700000000310e+02
3.820000000000000000e+02,5.638997799999999643e+02
3.830000000000000000e+02,5.649957299999999805e+02
3.840000000000000000e+02,5.661119999999999663e+02
3.850000000000000000e+02,5.672481099999999969e+02
3.860000000000000000e+02,5.684026499999999942e+02
3.870000000000000000e+02,5.695680499999999711e+02
3.880000000000000000e+02,5.707440800000000536e+02
3.890000000000000000e+02,5.719266400000000203e+02
3.900000000000000000e+02,5.731115700000000288e+02
3.910000000000000000e+02,5.742950399999999718e+02
3.920000000000000000e+02,5.754776000000000522e+02
3.930000000000000000e+02,5.766519200000000183e+02
3.940000000000000000e+02,5.778193400000000111e+02
3.950000000000000000e+02,5.789780299999999897e+02
3.960000000000000000e+02,5.801239600000000110e+02
3.970000000000000000e+02,5.812564700000000357e+02
3.980000000000000000e+02,5.823784799999999677e+02
3.990000000000000000e+02,5.834816899999999578e+02
