# Time [s], Convective Heat Transfer Coefficient [W/m2K]
1.000000000000000000e+00,0.000000000000000000e+00
2.000000000000000000e+00,0.000000000000000000e+00
3.000000000000000000e+00,0.000000000000000000e+00
4.000000000000000000e+00,0.000000000000000000e+00
5.000000000000000000e+00,1.915079995362458862e-02
6.000000000000000000e+00,3.274740728807139234e-02
7.000000000000000000e+00,5.110202618333640340e-02
8.000000000000000000e+00,7.778189519290648613e-02
9.000000000000000000e+00,1.120878086904836812e-01
1.000000000000000000e+01,1.545412758317519786e-01
1.100000000000000000e+01,2.049947650774812391e-01
1.200000000000000000e+01,2.629986431230989519e-01
1.300000000000000000e+01,3.279318962311540964e-01
1.400000000000000000e+01,3.989566816161768115e-01
1.500000000000000000e+01,4.752459100024563621e-01
1.600000000000000000e+01,5.559759880595002146e-01
1.700000000000000000e+01,6.403757385306125816e-01
1.800000000000000000e+01,7.277281880247619128e-01
1.900000000000000000e+01,8.174064737787647417e-01
2.000000000000000000e+01,9.088534526848919270e-01
2.100000000000000000e+01,1.001585281182242104e+00
2.200000000000000000e+01,1.095189142767498902e+00
2.300000000000000000e+01,1.189315061625937364e+00
2.400000000000000000e+01,1.283657958691572398e+00
2.500000000000000000e+01,1.377964866709998626e+00
2.600000000000000000e+01,1.472021957454442642e+00
2.700000000000000000e+01,1.565653009799045758e+00
2.800000000000000000e+01,1.658708302533640433e+00
2.900000000000000000e+01,1.751062598248735336e+00
3.000000000000000000e+01,1.842615151300491361e+00
3.100000000000000000e+01,1.933285090103139980e+00
3.200000000000000000e+01,2.023000247233567084e+00
3.300000000000000000e+01,2.111709058445883525e+00
3.400000000000000000e+01,2.199371123850021537e+00
3.500000000000000000e+01,2.285951184740339315e+00
3.600000000000000000e+01,2.371426496006411977e+00
3.700000000000000000e+01,2.455778981833314223e+00
3.800000000000000000e+01,2.538997925289584678e+00
3.900000000000000000e+01,2.621077118319886434e+00
4.000000000000000000e+01,2.702015292198156171e+00
4.100000000000000000e+01,2.781816332821902105e+00
4.200000000000000000e+01,2.860481498135249545e+00
4.300000000000000000e+01,2.938018801823425452e+00
4.400000000000000000e+01,3.014441108405569558e+00
4.500000000000000000e+01,3.089755782571604659e+00
4.600000000000000000e+01,3.163977661643322836e+00
4.700000000000000000e+01,3.237121952531595515e+00
4.800000000000000000e+01,3.309199579300510230e+00
4.900000000000000000e+01,3.380228559831196300e+00
5.000000000000000000e+01,3.450226641655274484e+00
5.100000000000000000e+01,3.519207341971708036e+00
5.200000000000000000e+01,3.587189629386853262e+00
5.300000000000000000e+01,3.654189912336412771e+00
5.400000000000000000e+01,3.720226459378266348e+00
5.500000000000000000e+01,3.785316067541374618e+00
5.600000000000000000e+01,3.849475742823355251e+00
5.700000000000000000e+01,3.912723456138196720e+00
5.800000000000000000e+01,3.975076098770810695e+00
5.900000000000000000e+01,4.036550617249049289e+00
6.000000000000000000e+01,4.097163630768281273e+00
6.100000000000000000e+01,4.156932339748373728e+00
6.200000000000000000e+01,4.215874630244884180e+00
6.300000000000000000e+01,4.274003591553287684e+00
6.400000000000000000e+01,4.331335695406219877e+00
6.500000000000000000e+01,4.387887446947057235e+00
6.600000000000000000e+01,4.443675565248689452e+00
6.700000000000000000e+01,4.498712282779393057e+00
6.800000000000000000e+01,4.553014305206909640e+00
6.900000000000000000e+01,4.606594255749014266e+00
7.000000000000000000e+01,4.659466762842753518e+00
7.100000000000000000e+01,4.711647204942549294e+00
7.200000000000000000e+01,4.763147009246308627e+00
7.300000000000000000e+01,4.813980759696431910e+00
7.400000000000000000e+01,4.864160703023763688e+00
7.500000000000000000e+01,4.913700501943134569e+00
7.600000000000000000e+01,4.962611179102692560e+00
7.700000000000000000e+01,5.010905549386568403e+00
7.800000000000000000e+01,5.058594329964565262e+00
7.900000000000000000e+01,5.105690585215400645e+00
8.000000000000000000e+01,5.152204827954695254e+00
8.100000000000000000e+01,5.198147399465064211e+00
8.200000000000000000e+01,5.243529878460051918e+00
8.300000000000000000e+01,5.288363292595483323e+00
8.400000000000000000e+01,5.332655850917995544e+00
8.500000000000000000e+01,5.376418915691787426e+00
8.600000000000000000e+01,5.419662758411671000e+00
8.700000000000000000e+01,5.462395227139262843e+00
8.800000000000000000e+01,5.504627064666108183e+00
8.900000000000000000e+01,5.546366966921109309e+00
9.000000000000000000e+01,5.587624092093099293e+00
9.100000000000000000e+01,5.628405953765918568e+00
9.200000000000000000e+01,5.668721666962815320e+00
9.300000000000000000e+01,5.708580791178103020e+00
9.400000000000000000e+01,5.747990675762896018e+00
9.500000000000000000e+01,5.786957550351575996e+00
9.600000000000000000e+01,5.825490321448345554e+00
9.700000000000000000e+01,5.863597638323851946e+00
9.800000000000000000e+01,5.901286227741627144e+00
9.900000000000000000e+01,5.938562274794424667e+00
1.000000000000000000e+02,5.975433454477165895e+00
1.010000000000000000e+02,6.011906767088513348e+00
1.020000000000000000e+02,6.047989441892488216e+00
1.030000000000000000e+02,6.083687689527939924e+00
1.040000000000000000e+02,6.119007104195165248e+00
1.050000000000000000e+02,6.153954583374384946e+00
1.060000000000000000e+02,6.188536389843387830e+00
1.070000000000000000e+02,6.222759244577366289e+00
1.080000000000000000e+02,6.256628477717414150e+00
1.090000000000000000e+02,6.290148931140932653e+00
1.100000000000000000e+02,6.323327296500409034e+00
1.110000000000000000e+02,6.356168368615623621e+00
1.120000000000000000e+02,6.388678125127740692e+00
1.130000000000000000e+02,6.420861594366307656e+00
1.140000000000000000e+02,6.452724280144715330e+00
1.150000000000000000e+02,6.484270078512633262e+00
1.160000000000000000e+02,6.515504719177479309e+00
1.170000000000000000e+02,6.546432892663619718e+00
1.180000000000000000e+02,6.577059922923566226e+00
1.190000000000000000e+02,6.607389861646061568e+00
1.200000000000000000e+02,6.637426609156054091e+00
1.210000000000000000e+02,6.667175237966741719e+00
1.220000000000000000e+02,6.696639853134477960e+00
1.230000000000000000e+02,6.725825704996441168e+00
1.240000000000000000e+02,6.754735805235436708e+00
1.250000000000000000e+02,6.783374074838065759e+00
1.260000000000000000e+02,6.811744549354207479e+00
1.270000000000000000e+02,6.839851874981571100e+00
1.280000000000000000e+02,6.867699050570212904e+00
1.290000000000000000e+02,6.895290448650474247e+00
1.300000000000000000e+02,6.922629074420830086e+00
1.310000000000000000e+02,6.949718558565351145e+00
1.320000000000000000e+02,6.976562411871191749e+00
1.330000000000000000e+02,7.003164507579031195e+00
1.340000000000000000e+02,7.029527883756035322e+00
1.350000000000000000e+02,7.055655245040656887e+00
1.360000000000000000e+02,7.081550375667078789e+00
1.370000000000000000e+02,7.107216478518470382e+00
1.380000000000000000e+02,7.132656886724328515e+00
1.390000000000000000e+02,7.157873688637456766e+00
1.400000000000000000e+02,7.182870040450051619e+00
1.410000000000000000e+02,7.207649453598295786e+00
1.420000000000000000e+02,7.232214440348307072e+00
1.430000000000000000e+02,7.256567437081123728e+00
1.440000000000000000e+02,7.280711248723833684e+00
1.450000000000000000e+02,7.304648817549640683e+00
1.460000000000000000e+02,7.328382347250187223e+00
1.470000000000000000e+02,7.351914843009518030e+00
1.480000000000000000e+02,7.375248795153138026e+00
1.490000000000000000e+02,7.398386195711442959e+00
1.500000000000000000e+02,7.421329404298143473e+00
1.510000000000000000e+02,7.444081137067708909e+00
1.520000000000000000e+02,7.466643826350765956e+00
1.530000000000000000e+02,7.489019212113359636e+00
1.540000000000000000e+02,7.511209607645411346e+00
1.550000000000000000e+02,7.533217057869472377e+00
1.560000000000000000e+02,7.555043757578522090e+00
1.570000000000000000e+02,7.576692251324674388e+00
1.580000000000000000e+02,7.598164207263558900e+00
1.590000000000000000e+02,7.619461651825783832e+00
1.600000000000000000e+02,7.640586157905713272e+00
1.610000000000000000e+02,7.661540054062862204e+00
1.620000000000000000e+02,7.682325214171018324e+00
1.630000000000000000e+02,7.702943464513198890e+00
1.640000000000000000e+02,7.723396389040877885e+00
1.650000000000000000e+02,7.743686116811222320e+00
1.660000000000000000e+02,7.763813754409040868e+00
1.670000000000000000e+02,7.783781730983565517e+00
1.680000000000000000e+02,7.803591458011406523e+00
1.690000000000000000e+02,7.823244120306814153e+00
1.700000000000000000e+02,7.842742014000203099e+00
1.710000000000000000e+02,7.862086246757212571e+00
1.720000000000000000e+02,7.881278274741656098e+00
1.730000000000000000e+02,7.900319706750911664e+00
1.740000000000000000e+02,7.919212860723560787e+00
1.750000000000000000e+02,7.937957774796012167e+00
1.760000000000000000e+02,7.956557068578140601e+00
1.770000000000000000e+02,7.975011465994317206e+00
1.780000000000000000e+02,7.993322587324011685e+00
1.790000000000000000e+02,8.011491652223824644e+00
1.800000000000000000e+02,8.029520396764034729e+00
1.810000000000000000e+02,8.047409616031941937e+00
1.820000000000000000e+02,8.065160624786990695e+00
1.830000000000000000e+02,8.082774887824793808e+00
1.840000000000000000e+02,8.100254016907362242e+00
1.850000000000000000e+02,8.117598524309245889e+00
1.860000000000000000e+02,8.134809615240332192e+00
1.870000000000000000e+02,8.151889349478475211e+00
1.880000000000000000e+02,8.168837992444011320e+00
1.890000000000000000e+02,8.185657546452576483e+00
1.900000000000000000e+02,8.202347887483325550e+00
1.910000000000000000e+02,8.218910967350842256e+00
1.920000000000000000e+02,8.235348010536485575e+00
1.930000000000000000e+02,8.251659356953583213e+00
1.940000000000000000e+02,8.267846876876060236e+00
1.950000000000000000e+02,8.283911041325101365e+00
1.960000000000000000e+02,8.299852818447810421e+00
1.970000000000000000e+02,8.315674002633818063e+00
1.980000000000000000e+02,8.331374332084886092e+00
1.990000000000000000e+02,8.346955559858354690e+00
2.000000000000000000e+02,8.362418738153076347e+00
2.010000000000000000e+02,8.377764564981610818e+00
2.020000000000000000e+02,8.392993556901059193e+00
2.030000000000000000e+02,8.408107376985229919e+00
2.040000000000000000e+02,8.423107164520509116e+00
2.050000000000000000e+02,8.437992886853324492e+00
2.060000000000000000e+02,8.452765326049785699e+00
2.070000000000000000e+02,8.467426227985457743e+00
2.080000000000000000e+02,8.481976007961900876e+00
2.090000000000000000e+02,8.496415557312868572e+00
2.100000000000000000e+02,8.510745750568654344e+00
2.110000000000000000e+02,8.524967123694805693e+00
2.120000000000000000e+02,8.539080682493780827e+00
2.130000000000000000e+02,8.553087094873955465e+00
2.140000000000000000e+02,8.566987493943956977e+00
2.150000000000000000e+02,8.580782357710914354e+00
2.160000000000000000e+02,8.594472312056259611e+00
2.170000000000000000e+02,8.608057970454849439e+00
2.180000000000000000e+02,8.621540879139338642e+00
2.190000000000000000e+02,8.634920990755471593e+00
2.200000000000000000e+02,8.648199506328673181e+00
2.210000000000000000e+02,8.661376827702804704e+00
2.220000000000000000e+02,8.674453658736219097e+00
2.230000000000000000e+02,8.687430845709638305e+00
2.240000000000000000e+02,8.700308911357668151e+00
2.250000000000000000e+02,8.713088522294528460e+00
2.260000000000000000e+02,8.725770333224806663e+00
2.270000000000000000e+02,8.738355140489963091e+00
2.280000000000000000e+02,8.750843727253519333e+00
2.290000000000000000e+02,8.763236101615964557e+00
2.300000000000000000e+02,8.775533483648246147e+00
2.310000000000000000e+02,8.787736166345386124e+00
2.320000000000000000e+02,8.799844737888760093e+00
2.330000000000000000e+02,8.811859926877399829e+00
2.340000000000000000e+02,8.823782450144660672e+00
2.350000000000000000e+02,8.835612563162314359e+00
2.360000000000000000e+02,8.847351113083663066e+00
2.370000000000000000e+02,8.858998486884290813e+00
2.380000000000000000e+02,8.870555212530085498e+00
2.390000000000000000e+02,8.882022105570875681e+00
2.400000000000000000e+02,8.893399081483783775e+00
2.410000000000000000e+02,8.904686938727614631e+00
2.420000000000000000e+02,8.915886611317741739e+00
2.430000000000000000e+02,8.926998138993964105e+00
2.440000000000000000e+02,8.938022290195561936e+00
2.450000000000000000e+02,8.948959383758811725e+00
2.460000000000000000e+02,8.959809877726026883e+00
2.470000000000000000e+02,8.970573931291902170e+00
2.480000000000000000e+02,8.981252569381513950e+00
2.490000000000000000e+02,8.991846079861716134e+00
2.500000000000000000e+02,9.002354888935593991e+00
2.510000000000000000e+02,9.012779127233347509e+00
2.520000000000000000e+02,9.023119352133990745e+00
2.530000000000000000e+02,9.033375969104822545e+00
2.540000000000000000e+02,9.043549805992473267e+00
2.550000000000000000e+02,9.053640823052784725e+00
2.560000000000000000e+02,9.063649120103978163e+00
2.570000000000000000e+02,9.073575788077029358e+00
2.580000000000000000e+02,9.083420770122199173e+00
2.590000000000000000e+02,9.093184431364555564e+00
2.600000000000000000e+02,9.102867271843342323e+00
2.610000000000000000e+02,9.112469220257047198e+00
2.620000000000000000e+02,9.121991187450728233e+00
2.630000000000000000e+02,9.131693082948196150e+00
2.640000000000000000e+02,9.141161194900103482e+00
2.650000000000000000e+02,9.150510753875552794e+00
2.660000000000000000e+02,9.159768974464824964e+00
2.670000000000000000e+02,9.168939871379986783e+00
2.680000000000000000e+02,9.178026589429618909e+00
2.690000000000000000e+02,9.187031273988349511e+00
2.700000000000000000e+02,9.195954804322193255e+00
2.710000000000000000e+02,9.204799431094578210e+00
2.720000000000000000e+02,9.213565178125971755e+00
2.730000000000000000e+02,9.222253442248618427e+00
2.740000000000000000e+02,9.230864919783867251e+00
2.750000000000000000e+02,9.239400298833391645e+00
2.760000000000000000e+02,9.247859985687657769e+00
2.770000000000000000e+02,9.256244653973254799e+00
2.780000000000000000e+02,9.264554014850988395e+00
2.790000000000000000e+02,9.272788050909102964e+00
2.800000000000000000e+02,9.280946877817942919e+00
2.810000000000000000e+02,9.289030200492398137e+00
2.820000000000000000e+02,9.297038264651140693e+00
2.830000000000000000e+02,9.304970635341085483e+00
2.840000000000000000e+02,9.312827282480762747e+00
2.850000000000000000e+02,9.320608307906674384e+00
2.860000000000000000e+02,9.328313540688883521e+00
2.870000000000000000e+02,9.335943210885433885e+00
2.880000000000000000e+02,9.343496739467326506e+00
2.890000000000000000e+02,9.350975154534618028e+00
2.900000000000000000e+02,9.358377469630452694e+00
2.910000000000000000e+02,9.365704703225855354e+00
2.920000000000000000e+02,9.372956531886568854e+00
2.930000000000000000e+02,9.380133429358121333e+00
2.940000000000000000e+02,9.387234933534447379e+00
2.950000000000000000e+02,9.394261775798945280e+00
2.960000000000000000e+02,9.401214150311115958e+00
2.970000000000000000e+02,9.408091850280241530e+00
2.980000000000000000e+02,9.414895723561379270e+00
2.990000000000000000e+02,9.421625027609827896e+00
3.000000000000000000e+02,9.428280733002884162e+00
3.010000000000000000e+02,9.434863407310873029e+00
3.020000000000000000e+02,9.441372298746028235e+00
3.030000000000000000e+02,9.447808099234881851e+00
3.040000000000000000e+02,9.454170970075910674e+00
3.050000000000000000e+02,9.460461330313867379e+00
3.060000000000000000e+02,9.466679593816726523e+00
3.070000000000000000e+02,9.472825517098941717e+00
3.080000000000000000e+02,9.478900027567755515e+00
3.090000000000000000e+02,9.484902353431955646e+00
3.100000000000000000e+02,9.490833543287292784e+00
3.110000000000000000e+02,9.496693988624206995e+00
3.120000000000000000e+02,9.502483946524060698e+00
3.130000000000000000e+02,9.508203281546915520e+00
3.140000000000000000e+02,9.513852502721976023e+00
3.150000000000000000e+02,9.519432113854861655e+00
3.160000000000000000e+02,9.524941968478435328e+00
3.170000000000000000e+02,9.530383077958772375e+00
3.180000000000000000e+02,9.535755416436803245e+00
3.190000000000000000e+02,9.541058955464745139e+00
3.200000000000000000e+02,9.546295076977095562e+00
3.210000000000000000e+02,9.551463229518976306e+00
3.220000000000000000e+02,9.556564014960786224e+00
3.230000000000000000e+02,9.561597901937499699e+00
3.240000000000000000e+02,9.566565738245309092e+00
3.250000000000000000e+02,9.571467087855481282e+00
3.260000000000000000e+02,9.576302662811411182e+00
3.270000000000000000e+02,9.581073424803770777e+00
3.280000000000000000e+02,9.585779182679527111e+00
3.290000000000000000e+02,9.590421016313795732e+00
3.300000000000000000e+02,9.594998854648098430e+00
3.310000000000000000e+02,9.599513005610695870e+00
3.320000000000000000e+02,9.603964915827591042e+00
3.330000000000000000e+02,9.608354249107483369e+00
3.340000000000000000e+02,9.612681935047671544e+00
3.350000000000000000e+02,9.616948138233677668e+00
3.360000000000000000e+02,9.621153905679515006e+00
3.370000000000000000e+02,9.625298888713240686e+00
3.380000000000000000e+02,9.629384883865016675e+00
3.390000000000000000e+02,9.633411535131433112e+00
3.400000000000000000e+02,9.637379872028667194e+00
3.410000000000000000e+02,9.641290666800648168e+00
3.420000000000000000e+02,9.645143806401032194e+00
3.430000000000000000e+02,9.648940559259914451e+00
3.440000000000000000e+02,9.652681057198163828e+00
3.450000000000000000e+02,9.656366559623275947e+00
3.460000000000000000e+02,9.659997065837046648e+00
3.470000000000000000e+02,9.663611557928971862e+00
3.480000000000000000e+02,9.667154205181056170e+00
3.490000000000000000e+02,9.670640685530795366e+00
3.500000000000000000e+02,9.674075122047378628e+00
3.510000000000000000e+02,9.677458624572928159e+00
3.520000000000000000e+02,9.680792797923043480e+00
3.530000000000000000e+02,9.684078242447526463e+00
3.540000000000000000e+02,9.687316553367576688e+00
3.550000000000000000e+02,9.690508323045309069e+00
3.560000000000000000e+02,9.693654140993677615e+00
3.570000000000000000e+02,9.696754967427681393e+00
3.580000000000000000e+02,9.699811758894874458e+00
3.590000000000000000e+02,9.702824349305041451e+00
3.600000000000000000e+02,9.705793441680247824e+00
3.610000000000000000e+02,9.708719115243354736e+00
3.620000000000000000e+02,9.711601696140986562e+00
3.630000000000000000e+02,9.714441260553263291e+00
3.640000000000000000e+02,9.717237883383816666e+00
3.650000000000000000e+02,9.719992877286520283e+00
3.660000000000000000e+02,9.722705569568084627e+00
3.670000000000000000e+02,9.725377391983135666e+00
3.680000000000000000e+02,9.728008040357936537e+00
3.690000000000000000e+02,9.730598941019469095e+00
3.700000000000000000e+02,9.733150280625860518e+00
3.710000000000000000e+02,9.735663356039598426e+00
3.720000000000000000e+02,9.738137855829608114e+00
3.730000000000000000e+02,9.740575689133963877e+00
3.740000000000000000e+02,9.742976540720009737e+00
3.750000000000000000e+02,9.745342313812056290e+00
3.760000000000000000e+02,9.747672812796229991e+00
3.770000000000000000e+02,9.749969811952290399e+00
3.780000000000000000e+02,9.752233112183301245e+00
3.790000000000000000e+02,9.754464236475532957e+00
3.800000000000000000e+02,9.756663474672306435e+00
3.810000000000000000e+02,9.758831730073440625e+00
3.820000000000000000e+02,9.760970149518781724e+00
3.830000000000000000e+02,9.763078772000373107e+00
3.840000000000000000e+02,9.765158740738964838e+00
3.850000000000000000e+02,9.767210951093048266e+00
3.860000000000000000e+02,9.769235683169270601e+00
3.870000000000000000e+02,9.771234074397879610e+00
3.880000000000000000e+02,9.773206647143300785e+00
3.890000000000000000e+02,9.775153800017841732e+00
3.900000000000000000e+02,9.777076175529137103e+00
3.910000000000000000e+02,9.778975026861695952e+00
3.920000000000000000e+02,9.780850381266295912e+00
3.930000000000000000e+02,9.782702999534102162e+00
3.940000000000000000e+02,9.784534007808035838e+00
3.950000000000000000e+02,9.786343430212287586e+00
3.960000000000000000e+02,9.788131657106875494e+00
3.970000000000000000e+02,9.789899810843333938e+00
3.980000000000000000e+02,9.791648401429110748e+00
