# Time [s], Temperature [C]
1.000000000000000000e+00,2.499997099999999861e+01
2.000000000000000000e+00,5.828707899999999853e+01
3.000000000000000000e+00,7.703688800000000469e+01
4.000000000000000000e+00,9.213452100000000655e+01
5.000000000000000000e+00,1.046890599999999978e+02
6.000000000000000000e+00,1.156583700000000050e+02
7.000000000000000000e+00,1.254462900000000047e+02
8.000000000000000000e+00,1.343293799999999862e+02
9.000000000000000000e+00,1.424892700000000048e+02
1.000000000000000000e+01,1.500497000000000014e+02
1.100000000000000000e+01,1.571087300000000084e+02
1.200000000000000000e+01,1.637345599999999877e+02
1.300000000000000000e+01,1.699843600000000094e+02
1.400000000000000000e+01,1.759058200000000056e+02
1.500000000000000000e+01,1.815298899999999946e+02
1.600000000000000000e+01,1.868913400000000138e+02
1.700000000000000000e+01,1.920134700000000123e+02
1.800000000000000000e+01,1.969188800000000015e+02
1.900000000000000000e+01,2.016271999999999878e+02
2.000000000000000000e+01,2.061521799999999871e+02
2.100000000000000000e+01,2.105093400000000088e+02
2.200000000000000000e+01,2.147101299999999924e+02
2.300000000000000000e+01,2.187699700000000007e+02
2.400000000000000000e+01,2.226936200000000099e+02
2.500000000000000000e+01,2.264921300000000031e+02
2.600000000000000000e+01,2.301745799999999917e+02
2.700000000000000000e+01,2.337478299999999933e+02
2.800000000000000000e+01,2.372192200000000071e+02
2.900000000000000000e+01,2.405963399999999979e+02
3.000000000000000000e+01,2.438834799999999916e+02
3.100000000000000000e+01,2.470891100000000051e+02
3.200000000000000000e+01,2.502163199999999961e+02
3.300000000000000000e+01,2.532695300000000032e+02
3.400000000000000000e+01,2.562532699999999863e+02
3.500000000000000000e+01,2.591708100000000172e+02
3.600000000000000000e+01,2.620217599999999720e+02
3.700000000000000000e+01,2.648078899999999862e+02
3.800000000000000000e+01,2.675325300000000084e+02
3.900000000000000000e+01,2.701929900000000089e+02
4.000000000000000000e+01,2.727884799999999927e+02
4.100000000000000000e+01,2.753233599999999797e+02
4.200000000000000000e+01,2.777949199999999905e+02
4.300000000000000000e+01,2.802052299999999718e+02
4.400000000000000000e+01,2.825555400000000077e+02
4.500000000000000000e+01,2.848473500000000058e+02
4.600000000000000000e+01,2.870821199999999749e+02
4.700000000000000000e+01,2.892637599999999907e+02
4.800000000000000000e+01,2.913915700000000015e+02
4.900000000000000000e+01,2.934664900000000216e+02
5.000000000000000000e+01,2.954944499999999721e+02
5.100000000000000000e+01,2.974721099999999865e+02
5.200000000000000000e+01,2.994028599999999756e+02
5.300000000000000000e+01,3.012884799999999927e+02
5.400000000000000000e+01,3.031287199999999871e+02
5.500000000000000000e+01,3.049251399999999990e+02
5.600000000000000000e+01,3.066774300000000153e+02
5.700000000000000000e+01,3.083876599999999826e+02
5.800000000000000000e+01,3.100565500000000156e+02
5.900000000000000000e+01,3.116827099999999859e+02
6.000000000000000000e+01,3.132694099999999935e+02
6.100000000000000000e+01,3.148138999999999896e+02
6.200000000000000000e+01,3.163187899999999786e+02
6.300000000000000000e+01,3.177847899999999868e+02
6.400000000000000000e+01,3.192104499999999803e+02
6.500000000000000000e+01,3.205968300000000113e+02
6.600000000000000000e+01,3.219453700000000254e+02
6.700000000000000000e+01,3.232550400000000081e+02
6.800000000000000000e+01,3.245270699999999806e+02
6.900000000000000000e+01,3.257632800000000088e+02
7.000000000000000000e+01,3.269622800000000211e+02
7.100000000000000000e+01,3.281246300000000247e+02
7.200000000000000000e+01,3.292520799999999781e+02
7.300000000000000000e+01,3.303460699999999974e+02
7.400000000000000000e+01,3.314042999999999779e+02
7.500000000000000000e+01,3.324320700000000102e+02
7.600000000000000000e+01,3.334271200000000022e+02
7.700000000000000000e+01,3.343896500000000174e+02
7.800000000000000000e+01,3.353231799999999794e+02
7.900000000000000000e+01,3.362293099999999981e+02
8.000000000000000000e+01,3.371051899999999932e+02
8.100000000000000000e+01,3.379554099999999721e+02
8.200000000000000000e+01,3.387815200000000004e+02
8.300000000000000000e+01,3.395798300000000154e+02
8.400000000000000000e+01,3.403582499999999982e+02
8.500000000000000000e+01,3.411142300000000205e+02
8.600000000000000000e+01,3.418451499999999896e+02
8.700000000000000000e+01,3.425608199999999783e+02
8.800000000000000000e+01,3.432563799999999787e+02
8.900000000000000000e+01,3.439297199999999748e+02
9.000000000000000000e+01,3.445910600000000272e+02
9.100000000000000000e+01,3.452382799999999747e+02
9.200000000000000000e+01,3.458627900000000182e+02
9.300000000000000000e+01,3.464805299999999875e+02
9.400000000000000000e+01,3.470844999999999914e+02
9.500000000000000000e+01,3.476705900000000042e+02
9.600000000000000000e+01,3.482512800000000084e+02
9.700000000000000000e+01,3.488227499999999850e+02
9.800000000000000000e+01,3.493750600000000190e+02
9.900000000000000000e+01,3.499265700000000265e+02
1.000000000000000000e+02,3.504709799999999973e+02
1.010000000000000000e+02,3.509970999999999890e+02
1.020000000000000000e+02,3.515250500000000216e+02
1.030000000000000000e+02,3.520477900000000204e+02
1.040000000000000000e+02,3.525531599999999912e+02
1.050000000000000000e+02,3.530625600000000190e+02
1.060000000000000000e+02,3.535682699999999841e+02
1.070000000000000000e+02,3.540585300000000188e+02
1.080000000000000000e+02,3.545533100000000104e+02
1.090000000000000000e+02,3.550460499999999797e+02
1.100000000000000000e+02,3.555254499999999780e+02
1.110000000000000000e+02,3.560098600000000033e+02
1.120000000000000000e+02,3.564934999999999832e+02
1.130000000000000000e+02,3.569628299999999967e+02
1.140000000000000000e+02,3.574397299999999973e+02
1.150000000000000000e+02,3.579172399999999925e+02
1.160000000000000000e+02,3.583801900000000273e+02
1.170000000000000000e+02,3.588532400000000280e+02
1.180000000000000000e+02,3.593244300000000067e+02
1.190000000000000000e+02,3.597845500000000243e+02
1.200000000000000000e+02,3.602529599999999732e+02
1.210000000000000000e+02,3.607223799999999869e+02
1.220000000000000000e+02,3.611800200000000132e+02
1.230000000000000000e+02,3.616470600000000104e+02
1.240000000000000000e+02,3.621161799999999857e+02
1.250000000000000000e+02,3.625732100000000173e+02
1.260000000000000000e+02,3.630395500000000197e+02
1.270000000000000000e+02,3.635085799999999949e+02
1.280000000000000000e+02,3.639642600000000243e+02
1.290000000000000000e+02,3.644322500000000105e+02
1.300000000000000000e+02,3.649019499999999994e+02
1.310000000000000000e+02,3.653603499999999826e+02
1.320000000000000000e+02,3.658285500000000070e+02
1.330000000000000000e+02,3.662997399999999857e+02
1.340000000000000000e+02,3.667598300000000222e+02
1.350000000000000000e+02,3.672276899999999955e+02
1.360000000000000000e+02,3.677011699999999905e+02
1.370000000000000000e+02,3.681628099999999790e+02
1.380000000000000000e+02,3.686339100000000144e+02
1.390000000000000000e+02,3.691078200000000038e+02
1.400000000000000000e+02,3.695717500000000086e+02
1.410000000000000000e+02,3.700439499999999953e+02
1.420000000000000000e+02,3.705172999999999774e+02
1.430000000000000000e+02,3.709837999999999738e+02
1.440000000000000000e+02,3.714567299999999932e+02
1.450000000000000000e+02,3.719328300000000240e+02
1.460000000000000000e+02,3.723995100000000207e+02
1.470000000000000000e+02,3.728746600000000058e+02
1.480000000000000000e+02,3.733473200000000247e+02
1.490000000000000000e+02,3.738159200000000055e+02
1.500000000000000000e+02,3.742904700000000275e+02
1.510000000000000000e+02,3.747641300000000228e+02
1.520000000000000000e+02,3.752316000000000145e+02
1.530000000000000000e+02,3.757053199999999720e+02
1.540000000000000000e+02,3.761752000000000180e+02
1.550000000000000000e+02,3.766431299999999851e+02
1.560000000000000000e+02,3.771146899999999960e+02
1.570000000000000000e+02,3.775851700000000051e+02
1.580000000000000000e+02,3.780505099999999743e+02
1.590000000000000000e+02,3.785199000000000069e+02
1.600000000000000000e+02,3.789868500000000040e+02
1.610000000000000000e+02,3.794490999999999872e+02
1.620000000000000000e+02,3.799156500000000278e+02
1.630000000000000000e+02,3.803814399999999978e+02
1.640000000000000000e+02,3.784284700000000043e+02
1.650000000000000000e+02,3.762665700000000015e+02
1.660000000000000000e+02,3.761904900000000112e+02
1.670000000000000000e+02,3.762968399999999747e+02
1.680000000000000000e+02,3.766079399999999850e+02
1.690000000000000000e+02,3.769927999999999884e+02
1.700000000000000000e+02,3.774301500000000260e+02
1.710000000000000000e+02,3.779049099999999726e+02
1.720000000000000000e+02,3.784046599999999785e+02
1.730000000000000000e+02,3.789139700000000062e+02
1.740000000000000000e+02,3.794345099999999888e+02
1.750000000000000000e+02,3.799652399999999943e+02
1.760000000000000000e+02,3.804939299999999776e+02
1.770000000000000000e+02,3.810288699999999835e+02
1.780000000000000000e+02,3.815640900000000215e+02
1.790000000000000000e+02,3.820953400000000215e+02
1.800000000000000000e+02,3.826280499999999734e+02
1.810000000000000000e+02,3.831564000000000192e+02
1.820000000000000000e+02,3.836816099999999778e+02
1.830000000000000000e+02,3.842052299999999718e+02
1.840000000000000000e+02,3.847227199999999812e+02
1.850000000000000000e+02,3.852366599999999721e+02
1.860000000000000000e+02,3.857459699999999998e+02
1.870000000000000000e+02,3.862511900000000082e+02
1.880000000000000000e+02,3.867524999999999977e+02
1.890000000000000000e+02,3.872482600000000161e+02
1.900000000000000000e+02,3.877412400000000048e+02
1.910000000000000000e+02,3.882258600000000115e+02
1.920000000000000000e+02,3.887098399999999856e+02
1.930000000000000000e+02,3.891903100000000109e+02
1.940000000000000000e+02,3.896645500000000197e+02
1.950000000000000000e+02,3.901368100000000254e+02
1.960000000000000000e+02,3.906047100000000114e+02
1.970000000000000000e+02,3.910689100000000167e+02
1.980000000000000000e+02,3.915316799999999944e+02
1.990000000000000000e+02,3.919920299999999997e+02
2.000000000000000000e+02,3.924479699999999980e+02
2.010000000000000000e+02,3.929030799999999886e+02
2.020000000000000000e+02,3.933563500000000204e+02
2.030000000000000000e+02,3.938047799999999938e+02
2.040000000000000000e+02,3.942541499999999814e+02
2.050000000000000000e+02,3.947017799999999852e+02
2.060000000000000000e+02,3.951486199999999940e+02
2.070000000000000000e+02,3.955917999999999779e+02
2.080000000000000000e+02,3.960347899999999868e+02
2.090000000000000000e+02,3.964773299999999949e+02
2.100000000000000000e+02,3.969182999999999879e+02
2.110000000000000000e+02,3.973543999999999983e+02
2.120000000000000000e+02,3.977926899999999932e+02
2.130000000000000000e+02,3.982292800000000170e+02
2.140000000000000000e+02,3.986645199999999818e+02
2.150000000000000000e+02,3.990971099999999865e+02
2.160000000000000000e+02,3.995291700000000219e+02
2.170000000000000000e+02,3.999598700000000235e+02
2.180000000000000000e+02,4.003898300000000177e+02
2.190000000000000000e+02,4.008157699999999863e+02
2.200000000000000000e+02,4.012412100000000237e+02
2.210000000000000000e+02,4.016660200000000032e+02
2.220000000000000000e+02,4.020877699999999777e+02
2.230000000000000000e+02,4.016971700000000283e+02
2.240000000000000000e+02,4.017017200000000230e+02
2.250000000000000000e+02,4.018517200000000003e+02
2.260000000000000000e+02,4.020810200000000236e+02
2.270000000000000000e+02,4.023677999999999884e+02
2.280000000000000000e+02,4.026909499999999866e+02
2.290000000000000000e+02,4.030424800000000118e+02
2.300000000000000000e+02,4.034132399999999734e+02
2.310000000000000000e+02,4.038018799999999828e+02
2.320000000000000000e+02,4.042013200000000097e+02
2.330000000000000000e+02,4.046103200000000015e+02
2.340000000000000000e+02,4.050258200000000102e+02
2.350000000000000000e+02,4.054444300000000112e+02
2.360000000000000000e+02,4.058649599999999964e+02
2.370000000000000000e+02,4.062885099999999738e+02
2.380000000000000000e+02,4.067130999999999972e+02
2.390000000000000000e+02,4.071377899999999954e+02
2.400000000000000000e+02,4.075598800000000210e+02
2.410000000000000000e+02,4.079821800000000280e+02
2.420000000000000000e+02,4.084032300000000077e+02
2.430000000000000000e+02,4.088222400000000221e+02
2.440000000000000000e+02,4.092394100000000208e+02
2.450000000000000000e+02,4.096542699999999968e+02
2.460000000000000000e+02,4.100644199999999842e+02
2.470000000000000000e+02,4.104735400000000141e+02
2.480000000000000000e+02,4.108808000000000220e+02
2.490000000000000000e+02,4.112853400000000192e+02
2.500000000000000000e+02,4.116871899999999869e+02
2.510000000000000000e+02,4.120870400000000018e+02
2.520000000000000000e+02,4.124845300000000066e+02
2.530000000000000000e+02,4.128773499999999785e+02
2.540000000000000000e+02,4.132690400000000182e+02
2.550000000000000000e+02,4.136590299999999729e+02
2.560000000000000000e+02,4.140470599999999877e+02
2.570000000000000000e+02,4.144329799999999864e+02
2.580000000000000000e+02,4.148166200000000003e+02
2.590000000000000000e+02,4.151985500000000116e+02
2.600000000000000000e+02,4.155788000000000011e+02
2.610000000000000000e+02,4.159570899999999938e+02
2.620000000000000000e+02,4.163331000000000017e+02
2.630000000000000000e+02,4.167071799999999939e+02
2.640000000000000000e+02,4.170794099999999958e+02
2.650000000000000000e+02,4.174478500000000167e+02
2.660000000000000000e+02,4.178160399999999868e+02
2.670000000000000000e+02,4.181827099999999859e+02
2.680000000000000000e+02,4.185471800000000258e+02
2.690000000000000000e+02,4.187122800000000211e+02
2.700000000000000000e+02,4.189521199999999794e+02
2.710000000000000000e+02,4.192206400000000031e+02
2.720000000000000000e+02,4.194887400000000071e+02
2.730000000000000000e+02,4.197662000000000262e+02
2.740000000000000000e+02,4.200541699999999992e+02
2.750000000000000000e+02,4.203533300000000281e+02
2.760000000000000000e+02,4.206599400000000060e+02
2.770000000000000000e+02,4.209740600000000086e+02
2.780000000000000000e+02,4.212945300000000088e+02
2.790000000000000000e+02,4.216228300000000218e+02
2.800000000000000000e+02,4.219529099999999744e+02
2.810000000000000000e+02,4.222860400000000141e+02
2.820000000000000000e+02,4.226211900000000128e+02
2.830000000000000000e+02,4.229576999999999884e+02
2.840000000000000000e+02,4.232953800000000228e+02
2.850000000000000000e+02,4.236345499999999902e+02
2.860000000000000000e+02,4.239724400000000060e+02
2.870000000000000000e+02,4.243101199999999835e+02
2.880000000000000000e+02,4.246474299999999857e+02
2.890000000000000000e+02,4.249840399999999931e+02
2.900000000000000000e+02,4.253198899999999867e+02
2.910000000000000000e+02,4.256545100000000161e+02
2.920000000000000000e+02,4.259889200000000073e+02
2.930000000000000000e+02,4.263212599999999952e+02
2.940000000000000000e+02,4.266522800000000188e+02
2.950000000000000000e+02,4.269816900000000146e+02
2.960000000000000000e+02,4.273095999999999890e+02
2.970000000000000000e+02,4.276357100000000173e+02
2.980000000000000000e+02,4.279630700000000161e+02
2.990000000000000000e+02,4.282869299999999839e+02
3.000000000000000000e+02,4.286089200000000119e+02
3.010000000000000000e+02,4.289291099999999801e+02
3.020000000000000000e+02,4.292477999999999838e+02
3.030000000000000000e+02,4.295656399999999735e+02
3.040000000000000000e+02,4.298808599999999842e+02
3.050000000000000000e+02,4.301947599999999738e+02
3.060000000000000000e+02,4.305067099999999982e+02
3.070000000000000000e+02,4.308169899999999757e+02
3.080000000000000000e+02,4.311286600000000249e+02
3.090000000000000000e+02,4.314366800000000239e+02
3.100000000000000000e+02,4.317429500000000075e+02
3.110000000000000000e+02,4.320118100000000254e+02
3.120000000000000000e+02,4.322506399999999758e+02
3.130000000000000000e+02,4.324955400000000054e+02
3.140000000000000000e+02,4.327441400000000158e+02
3.150000000000000000e+02,4.329941699999999969e+02
3.160000000000000000e+02,4.332477400000000216e+02
3.170000000000000000e+02,4.335036299999999869e+02
3.180000000000000000e+02,4.337636100000000283e+02
3.190000000000000000e+02,4.340258799999999724e+02
3.200000000000000000e+02,4.342934900000000198e+02
3.210000000000000000e+02,4.345611299999999915e+02
3.220000000000000000e+02,4.348305100000000039e+02
3.230000000000000000e+02,4.351023599999999760e+02
3.240000000000000000e+02,4.353762500000000273e+02
3.250000000000000000e+02,4.356506299999999783e+02
3.260000000000000000e+02,4.359259599999999750e+02
3.270000000000000000e+02,4.362021799999999985e+02
3.280000000000000000e+02,4.364793700000000172e+02
3.290000000000000000e+02,4.367559200000000033e+02
3.300000000000000000e+02,4.370327100000000087e+02
3.310000000000000000e+02,4.373081999999999994e+02
3.320000000000000000e+02,4.375836499999999774e+02
3.330000000000000000e+02,4.378610499999999774e+02
3.340000000000000000e+02,4.381362599999999929e+02
3.350000000000000000e+02,4.384111599999999953e+02
3.360000000000000000e+02,4.386855499999999779e+02
3.370000000000000000e+02,4.389580100000000016e+02
3.380000000000000000e+02,4.392316599999999767e+02
3.390000000000000000e+02,4.395031999999999925e+02
3.400000000000000000e+02,4.397742000000000075e+02
3.410000000000000000e+02,4.400437600000000202e+02
3.420000000000000000e+02,4.403144199999999842e+02
3.430000000000000000e+02,4.405834699999999771e+02
3.440000000000000000e+02,4.408503400000000170e+02
3.450000000000000000e+02,4.411160600000000045e+02
3.460000000000000000e+02,4.413831500000000005e+02
3.470000000000000000e+02,4.416478900000000181e+02
3.480000000000000000e+02,4.419117400000000089e+02
3.490000000000000000e+02,4.421747700000000236e+02
3.500000000000000000e+02,4.424375600000000190e+02
3.510000000000000000e+02,4.426981799999999794e+02
3.520000000000000000e+02,4.429580399999999827e+02
3.530000000000000000e+02,4.432163100000000213e+02
3.540000000000000000e+02,4.434755200000000173e+02
3.550000000000000000e+02,4.437264700000000062e+02
3.560000000000000000e+02,4.439617299999999886e+02
3.570000000000000000e+02,4.441897900000000163e+02
3.580000000000000000e+02,4.444141799999999876e+02
3.590000000000000000e+02,4.446379999999999768e+02
3.600000000000000000e+02,4.448639800000000264e+02
3.610000000000000000e+02,4.450886499999999728e+02
3.620000000000000000e+02,4.453143900000000031e+02
3.630000000000000000e+02,4.455415600000000040e+02
3.640000000000000000e+02,4.457695299999999747e+02
3.650000000000000000e+02,4.459986000000000104e+02
3.660000000000000000e+02,4.462273599999999760e+02
3.670000000000000000e+02,4.464575500000000261e+02
3.680000000000000000e+02,4.466895799999999781e+02
3.690000000000000000e+02,4.469216599999999744e+02
3.700000000000000000e+02,4.471528599999999756e+02
3.710000000000000000e+02,4.473872999999999820e+02
3.720000000000000000e+02,4.476204200000000242e+02
3.730000000000000000e+02,4.478533899999999903e+02
3.740000000000000000e+02,4.480885599999999727e+02
3.750000000000000000e+02,4.483220200000000091e+02
3.760000000000000000e+02,4.485562100000000214e+02
3.770000000000000000e+02,4.487907999999999902e+02
3.780000000000000000e+02,4.490243500000000267e+02
3.790000000000000000e+02,4.492583300000000008e+02
3.800000000000000000e+02,4.494930699999999888e+02
3.810000000000000000e+02,4.497270199999999818e+02
3.820000000000000000e+02,4.499596300000000042e+02
3.830000000000000000e+02,4.501939399999999978e+02
3.840000000000000000e+02,4.504271899999999960e+02
3.850000000000000000e+02,4.506587200000000166e+02
3.860000000000000000e+02,4.508924900000000093e+02
3.870000000000000000e+02,4.511239299999999730e+02
3.880000000000000000e+02,4.513551600000000121e+02
3.890000000000000000e+02,4.515867000000000075e+02
3.900000000000000000e+02,4.518172299999999950e+02
3.910000000000000000e+02,4.520477000000000203e+02
3.920000000000000000e+02,4.522780799999999886e+02
3.930000000000000000e+02,4.525075400000000059e+02
3.940000000000000000e+02,4.527356599999999958e+02
3.950000000000000000e+02,4.529659100000000080e+02
3.960000000000000000e+02,4.531933300000000031e+02
3.970000000000000000e+02,4.534218099999999936e+02
3.980000000000000000e+02,4.536496900000000210e+02
3.990000000000000000e+02,4.538756399999999758e+02
