# Time [s], Convective Heat Transfer Coefficient [W/m2K]
1.000000000000000000e+00,0.000000000000000000e+00
2.000000000000000000e+00,0.000000000000000000e+00
3.000000000000000000e+00,0.000000000000000000e+00
4.000000000000000000e+00,0.000000000000000000e+00
5.000000000000000000e+00,0.000000000000000000e+00
6.000000000000000000e+00,0.000000000000000000e+00
7.000000000000000000e+00,1.915079995362458862e-02
8.000000000000000000e+00,2.762023300960968902e-02
9.000000000000000000e+00,4.055970506183135399e-02
1.000000000000000000e+01,5.780487740346602205e-02
1.100000000000000000e+01,7.948568728293858854e-02
1.200000000000000000e+01,1.060888871131543953e-01
1.300000000000000000e+01,1.372364660384002011e-01
1.400000000000000000e+01,1.728679488147215892e-01
1.500000000000000000e+01,2.126706697140571811e-01
1.600000000000000000e+01,2.564925283603387562e-01
1.700000000000000000e+01,3.038986328701306361e-01
1.800000000000000000e+01,3.545670287002479215e-01
1.900000000000000000e+01,4.081145944929965297e-01
2.000000000000000000e+01,4.641677894957910167e-01
2.100000000000000000e+01,5.224018054590952032e-01
2.200000000000000000e+01,5.824986871368579289e-01
2.300000000000000000e+01,6.441697676215333290e-01
2.400000000000000000e+01,7.071428251723675951e-01
2.500000000000000000e+01,7.711918193837362656e-01
2.600000000000000000e+01,8.360921110628845021e-01
2.700000000000000000e+01,9.016626788292687600e-01
2.800000000000000000e+01,9.677292130583652341e-01
2.900000000000000000e+01,1.034143197753710108e+00
3.000000000000000000e+01,1.100774323359983153e+00
3.100000000000000000e+01,1.167507017074200792e+00
3.200000000000000000e+01,1.234232831944911624e+00
3.300000000000000000e+01,1.300864093846928693e+00
3.400000000000000000e+01,1.367325362826687707e+00
3.500000000000000000e+01,1.433550387579431540e+00
3.600000000000000000e+01,1.499472560373364516e+00
3.700000000000000000e+01,1.565044375052895287e+00
3.800000000000000000e+01,1.630222980424905765e+00
3.900000000000000000e+01,1.694967941691886582e+00
4.000000000000000000e+01,1.759245417738817041e+00
4.100000000000000000e+01,1.823031893666146708e+00
4.200000000000000000e+01,1.886299102183657483e+00
4.300000000000000000e+01,1.949029968511452715e+00
4.400000000000000000e+01,2.011207388604474566e+00
4.500000000000000000e+01,2.072818968991161803e+00
4.600000000000000000e+01,2.133851662812593197e+00
4.700000000000000000e+01,2.194299250540566515e+00
4.800000000000000000e+01,2.254157330612930998e+00
4.900000000000000000e+01,2.313414923656002653e+00
5.000000000000000000e+01,2.372073062242804120e+00
5.100000000000000000e+01,2.430131617066541683e+00
5.200000000000000000e+01,2.487586426681652085e+00
5.300000000000000000e+01,2.544441302713987607e+00
5.400000000000000000e+01,2.600696041497406519e+00
5.500000000000000000e+01,2.656353123755902601e+00
5.600000000000000000e+01,2.711416456319528656e+00
5.700000000000000000e+01,2.765887334053689806e+00
5.800000000000000000e+01,2.819773386314857078e+00
5.900000000000000000e+01,2.873078830377663984e+00
6.000000000000000000e+01,2.925808412934920444e+00
6.100000000000000000e+01,2.977968038455636179e+00
6.200000000000000000e+01,3.029562974946399478e+00
6.300000000000000000e+01,3.080599372670519642e+00
6.400000000000000000e+01,3.131083107459569526e+00
6.500000000000000000e+01,3.181021038258213807e+00
6.600000000000000000e+01,3.230419458512681086e+00
6.700000000000000000e+01,3.279288591918553930e+00
6.800000000000000000e+01,3.327631407325827517e+00
6.900000000000000000e+01,3.375452605632620617e+00
7.000000000000000000e+01,3.422761542380752253e+00
7.100000000000000000e+01,3.469565246915140122e+00
7.200000000000000000e+01,3.515871909146093710e+00
7.300000000000000000e+01,3.561688483561908036e+00
7.400000000000000000e+01,3.607018472948405385e+00
7.500000000000000000e+01,3.651869957942443179e+00
7.600000000000000000e+01,3.696250741632917336e+00
7.700000000000000000e+01,3.740168775355127817e+00
7.800000000000000000e+01,3.783627703146445587e+00
7.900000000000000000e+01,3.826636115402398897e+00
8.000000000000000000e+01,3.869202218980750008e+00
8.100000000000000000e+01,3.911329651328505186e+00
8.200000000000000000e+01,3.953024759896184293e+00
8.300000000000000000e+01,3.994296161398288803e+00
8.400000000000000000e+01,4.035148819084268368e+00
8.500000000000000000e+01,4.075589886951657803e+00
8.600000000000000000e+01,4.115624062144821238e+00
8.700000000000000000e+01,4.155257399907417160e+00
8.800000000000000000e+01,4.194498240806641576e+00
8.900000000000000000e+01,4.233349414923088361e+00
9.000000000000000000e+01,4.271819503780585059e+00
9.100000000000000000e+01,4.309911738001583004e+00
9.200000000000000000e+01,4.347633865445896362e+00
9.300000000000000000e+01,4.384989845824035726e+00
9.400000000000000000e+01,4.421986266098780760e+00
9.500000000000000000e+01,4.458626936859020340e+00
9.600000000000000000e+01,4.494919309311352862e+00
9.700000000000000000e+01,4.530867909250616776e+00
9.800000000000000000e+01,4.566475682455567231e+00
9.900000000000000000e+01,4.601749472563339438e+00
1.000000000000000000e+02,4.636693570693166677e+00
1.010000000000000000e+02,4.671313548203945842e+00
1.020000000000000000e+02,4.705614415186842869e+00
1.030000000000000000e+02,4.739598312287929716e+00
1.040000000000000000e+02,4.773272004924173473e+00
1.050000000000000000e+02,4.806638250186179739e+00
1.060000000000000000e+02,4.839702914464370842e+00
1.070000000000000000e+02,4.872470866659037725e+00
1.080000000000000000e+02,4.904943852477624766e+00
1.090000000000000000e+02,4.937127850910281168e+00
1.100000000000000000e+02,4.969026779473259658e+00
1.110000000000000000e+02,5.000643418568984089e+00
1.120000000000000000e+02,5.031982254092066675e+00
1.130000000000000000e+02,5.063047498787506484e+00
1.140000000000000000e+02,5.093841979477319093e+00
1.150000000000000000e+02,5.124370071109063396e+00
1.160000000000000000e+02,5.154634828915330758e+00
1.170000000000000000e+02,5.184640850650248822e+00
1.180000000000000000e+02,5.214389107269305157e+00
1.190000000000000000e+02,5.243884893363627953e+00
1.200000000000000000e+02,5.273132197560928880e+00
1.210000000000000000e+02,5.302131649819529891e+00
1.220000000000000000e+02,5.330888363150484643e+00
1.230000000000000000e+02,5.359404969585963130e+00
1.240000000000000000e+02,5.387685298794624877e+00
1.250000000000000000e+02,5.415730883021930175e+00
1.260000000000000000e+02,5.443545340277605504e+00
1.270000000000000000e+02,5.471131218039053223e+00
1.280000000000000000e+02,5.498492214321416327e+00
1.290000000000000000e+02,5.525629823516929662e+00
1.300000000000000000e+02,5.552546859957982583e+00
1.310000000000000000e+02,5.579246491534304297e+00
1.320000000000000000e+02,5.605731924657409770e+00
1.330000000000000000e+02,5.632005184406814635e+00
1.340000000000000000e+02,5.658067388071804871e+00
1.350000000000000000e+02,5.683922083155308336e+00
1.360000000000000000e+02,5.709572157297296613e+00
1.370000000000000000e+02,5.735019903158222299e+00
1.380000000000000000e+02,5.760266374039235693e+00
1.390000000000000000e+02,5.785314829750371146e+00
1.400000000000000000e+02,5.810166758113735064e+00
1.410000000000000000e+02,5.834825732028754430e+00
1.420000000000000000e+02,5.859293366925164115e+00
1.430000000000000000e+02,5.883570483762402326e+00
1.440000000000000000e+02,5.907659623120987469e+00
1.450000000000000000e+02,5.931563278704280684e+00
1.460000000000000000e+02,5.955283866230187684e+00
1.470000000000000000e+02,5.978822744114028254e+00
1.480000000000000000e+02,6.002181456823862504e+00
1.490000000000000000e+02,6.025361953197965192e+00
1.500000000000000000e+02,6.048366186939465372e+00
1.510000000000000000e+02,6.071196497502709732e+00
1.520000000000000000e+02,6.093853735914793290e+00
1.530000000000000000e+02,6.116340417366218141e+00
1.540000000000000000e+02,6.138657709410794361e+00
1.550000000000000000e+02,6.160807577737828389e+00
1.560000000000000000e+02,6.182792298335466619e+00
1.570000000000000000e+02,6.204612257325976543e+00
1.580000000000000000e+02,6.226269670505710785e+00
1.590000000000000000e+02,6.247766031082750082e+00
1.600000000000000000e+02,6.269103444944028602e+00
1.610000000000000000e+02,6.290283012466931112e+00
1.620000000000000000e+02,6.311305684987216225e+00
1.630000000000000000e+02,6.332173408199456510e+00
1.640000000000000000e+02,6.352887900473488614e+00
1.650000000000000000e+02,6.373451034957684058e+00
1.660000000000000000e+02,6.393862887628763758e+00
1.670000000000000000e+02,6.414125777604751555e+00
1.680000000000000000e+02,6.434240945098784970e+00
1.690000000000000000e+02,6.454210046284901914e+00
1.700000000000000000e+02,6.474034554074048486e+00
1.710000000000000000e+02,6.493714514572030083e+00
1.720000000000000000e+02,6.513252177110105734e+00
1.730000000000000000e+02,6.532649185620800658e+00
1.740000000000000000e+02,6.551906869389753751e+00
1.750000000000000000e+02,6.571025439016734637e+00
1.760000000000000000e+02,6.590006714154113432e+00
1.770000000000000000e+02,6.608852469408140529e+00
1.780000000000000000e+02,6.627563902807440677e+00
1.790000000000000000e+02,6.646141122064943119e+00
1.800000000000000000e+02,6.664586337375274283e+00
1.810000000000000000e+02,6.682900658391744741e+00
1.820000000000000000e+02,6.701085688485768799e+00
1.830000000000000000e+02,6.719141177963756206e+00
1.840000000000000000e+02,6.737069200043565687e+00
1.850000000000000000e+02,6.754871780496580769e+00
1.860000000000000000e+02,6.772548602246362570e+00
1.870000000000000000e+02,6.790101382381090289e+00
1.880000000000000000e+02,6.807531293906206038e+00
1.890000000000000000e+02,6.824840236335681709e+00
1.900000000000000000e+02,6.842027316756979616e+00
1.910000000000000000e+02,6.859095139857370071e+00
1.920000000000000000e+02,6.876045017260493886e+00
1.930000000000000000e+02,6.892877492248340232e+00
1.940000000000000000e+02,6.909593339229590292e+00
1.950000000000000000e+02,6.926194046215133682e+00
1.960000000000000000e+02,6.942680826482237499e+00
1.970000000000000000e+02,6.959053658341465720e+00
1.980000000000000000e+02,6.975314682312314218e+00
1.990000000000000000e+02,6.991465037835729035e+00
2.000000000000000000e+02,7.007504409710972659e+00
2.010000000000000000e+02,7.023435095385501370e+00
2.020000000000000000e+02,7.039797936108079135e+00
2.030000000000000000e+02,7.055719438902134044e+00
2.040000000000000000e+02,7.071450490837080771e+00
2.050000000000000000e+02,7.087048701996727651e+00
2.060000000000000000e+02,7.102524716612149014e+00
2.070000000000000000e+02,7.117883905156399571e+00
2.080000000000000000e+02,7.133131540752220445e+00
2.090000000000000000e+02,7.148270282326710579e+00
2.100000000000000000e+02,7.163302511738093514e+00
2.110000000000000000e+02,7.178231021533175493e+00
2.120000000000000000e+02,7.193056065671210142e+00
2.130000000000000000e+02,7.207779918261930874e+00
2.140000000000000000e+02,7.222404364135463162e+00
2.150000000000000000e+02,7.236929591447334609e+00
2.160000000000000000e+02,7.251358008271548528e+00
2.170000000000000000e+02,7.265690650876694967e+00
2.180000000000000000e+02,7.279928094415167195e+00
2.190000000000000000e+02,7.294072222161294583e+00
2.200000000000000000e+02,7.308123131920508442e+00
2.210000000000000000e+02,7.322082227112288066e+00
2.220000000000000000e+02,7.335950451912908399e+00
2.230000000000000000e+02,7.349728733445624052e+00
2.240000000000000000e+02,7.363417550400443545e+00
2.250000000000000000e+02,7.377018016910715126e+00
2.260000000000000000e+02,7.390530370743370270e+00
2.270000000000000000e+02,7.403956124719241139e+00
2.280000000000000000e+02,7.417295277726439373e+00
2.290000000000000000e+02,7.430549522130226237e+00
2.300000000000000000e+02,7.443718199732082930e+00
2.310000000000000000e+02,7.456803606336258383e+00
2.320000000000000000e+02,7.469805485603910888e+00
2.330000000000000000e+02,7.482724209436857343e+00
2.340000000000000000e+02,7.495560975492460365e+00
2.350000000000000000e+02,7.508316339655589644e+00
2.360000000000000000e+02,7.520990847829919446e+00
2.370000000000000000e+02,7.533585242403377791e+00
2.380000000000000000e+02,7.546099842317604889e+00
2.390000000000000000e+02,7.558536189272366812e+00
2.400000000000000000e+02,7.570893555915954920e+00
2.410000000000000000e+02,7.583173868363917158e+00
2.420000000000000000e+02,7.595376793530174808e+00
2.430000000000000000e+02,7.607503213901848582e+00
2.440000000000000000e+02,7.619553998476391143e+00
2.450000000000000000e+02,7.631529199085644422e+00
2.460000000000000000e+02,7.643429666162279368e+00
2.470000000000000000e+02,7.655256437130848468e+00
2.480000000000000000e+02,7.667008941377259745e+00
2.490000000000000000e+02,7.678688995490230873e+00
2.500000000000000000e+02,7.690296016695751469e+00
2.510000000000000000e+02,7.701831203193514774e+00
2.520000000000000000e+02,7.713295146513894807e+00
2.530000000000000000e+02,7.724688036773780020e+00
2.540000000000000000e+02,7.736010255409506264e+00
2.550000000000000000e+02,7.747262372398050267e+00
2.560000000000000000e+02,7.758445338039638095e+00
2.570000000000000000e+02,7.769558732315705818e+00
2.580000000000000000e+02,7.780604071673204558e+00
2.590000000000000000e+02,7.791580925224419474e+00
2.600000000000000000e+02,7.802490403244463302e+00
2.610000000000000000e+02,7.813332451208675700e+00
2.620000000000000000e+02,7.824107395729198444e+00
2.630000000000000000e+02,7.834815939318188427e+00
2.640000000000000000e+02,7.845458584761360932e+00
2.650000000000000000e+02,7.856035637874233757e+00
2.660000000000000000e+02,7.866547588505793165e+00
2.670000000000000000e+02,7.876994164798370335e+00
2.680000000000000000e+02,7.887376601257813036e+00
2.690000000000000000e+02,7.897694616213775554e+00
2.700000000000000000e+02,7.907948490690142940e+00
2.710000000000000000e+02,7.918139247820003668e+00
2.720000000000000000e+02,7.928266408610612714e+00
2.730000000000000000e+02,7.938331168997228460e+00
2.740000000000000000e+02,7.948332858146490487e+00
2.750000000000000000e+02,7.958272103993811797e+00
2.760000000000000000e+02,7.968149710820714660e+00
2.770000000000000000e+02,7.977965001880662044e+00
2.780000000000000000e+02,7.987718956537038117e+00
2.790000000000000000e+02,7.997411993801602392e+00
2.800000000000000000e+02,8.007043614004325960e+00
2.810000000000000000e+02,8.016614049133091058e+00
2.820000000000000000e+02,8.026124617527289118e+00
2.830000000000000000e+02,8.035574266597389936e+00
2.840000000000000000e+02,8.044963760585590151e+00
2.850000000000000000e+02,8.054293133102067515e+00
2.860000000000000000e+02,8.063563315906394635e+00
2.870000000000000000e+02,8.072773075049640923e+00
2.880000000000000000e+02,8.081923515912352585e+00
2.890000000000000000e+02,8.091014659288291000e+00
2.900000000000000000e+02,8.100046345671518822e+00
2.910000000000000000e+02,8.109018593281565046e+00
2.920000000000000000e+02,8.117932306603171000e+00
2.930000000000000000e+02,8.126787317038045799e+00
2.940000000000000000e+02,8.135583278900735849e+00
2.950000000000000000e+02,8.144320200728481396e+00
2.960000000000000000e+02,8.152998793669642197e+00
2.970000000000000000e+02,8.161619058178757768e+00
2.980000000000000000e+02,8.170180817631447212e+00
2.990000000000000000e+02,8.178684070155124886e+00
3.000000000000000000e+02,8.187128637510930673e+00
3.010000000000000000e+02,8.195515386870821928e+00
3.020000000000000000e+02,8.203843611224245436e+00
3.030000000000000000e+02,8.212113822594851342e+00
3.040000000000000000e+02,8.220325834203878301e+00
3.050000000000000000e+02,8.228479631891865154e+00
3.060000000000000000e+02,8.236575372387870075e+00
3.070000000000000000e+02,8.244613381630383486e+00
3.080000000000000000e+02,8.252594153138792521e+00
3.090000000000000000e+02,8.260516974020610803e+00
3.100000000000000000e+02,8.268382504872409555e+00
3.110000000000000000e+02,8.276190715899847561e+00
3.120000000000000000e+02,8.283942087522643050e+00
3.130000000000000000e+02,8.291636413762509150e+00
3.140000000000000000e+02,8.299274168228922832e+00
3.150000000000000000e+02,8.306854801453333437e+00
3.160000000000000000e+02,8.314378612887777464e+00
3.170000000000000000e+02,8.321845559987064433e+00
3.180000000000000000e+02,8.329255261275434918e+00
3.190000000000000000e+02,8.336608178359664834e+00
3.200000000000000000e+02,8.343903590824526262e+00
3.210000000000000000e+02,8.351141788551375456e+00
3.220000000000000000e+02,8.358322554900979640e+00
3.230000000000000000e+02,8.365445505600250797e+00
3.240000000000000000e+02,8.372510591098315302e+00
3.250000000000000000e+02,8.379517260142167245e+00
3.260000000000000000e+02,8.386465628979033582e+00
3.270000000000000000e+02,8.393355312648580480e+00
3.280000000000000000e+02,8.400186756216697859e+00
3.290000000000000000e+02,8.406958743625214225e+00
3.300000000000000000e+02,8.413672048973404927e+00
3.310000000000000000e+02,8.420325953495519045e+00
3.320000000000000000e+02,8.426920235449538055e+00
3.330000000000000000e+02,8.433455166165156669e+00
3.340000000000000000e+02,8.439930684545620565e+00
3.350000000000000000e+02,8.446346399617187473e+00
3.360000000000000000e+02,8.452702412188239478e+00
3.370000000000000000e+02,8.458998983938702310e+00
3.380000000000000000e+02,8.465235556111151638e+00
3.390000000000000000e+02,8.471412549796868419e+00
3.400000000000000000e+02,8.477530055736659520e+00
3.410000000000000000e+02,8.483587999373089161e+00
3.420000000000000000e+02,8.489586304439610487e+00
3.430000000000000000e+02,8.495524892953875806e+00
3.440000000000000000e+02,8.501404333081289622e+00
3.450000000000000000e+02,8.507224055490409498e+00
3.460000000000000000e+02,8.512984460967059519e+00
3.470000000000000000e+02,8.518685462041329259e+00
3.480000000000000000e+02,8.524326969554728350e+00
3.490000000000000000e+02,8.529909214425362762e+00
3.500000000000000000e+02,8.535432906236398054e+00
3.510000000000000000e+02,8.540897946410749952e+00
3.520000000000000000e+02,8.546304234756577856e+00
3.530000000000000000e+02,8.551651989596596337e+00
3.540000000000000000e+02,8.556941266163347493e+00
3.550000000000000000e+02,8.562172117292584872e+00
3.560000000000000000e+02,8.567345231373282743e+00
3.570000000000000000e+02,8.572460972793949807e+00
3.580000000000000000e+02,8.577519065721370239e+00
3.590000000000000000e+02,8.582519710312579875e+00
3.600000000000000000e+02,8.587463262458721047e+00
3.610000000000000000e+02,8.592350232918230191e+00
3.620000000000000000e+02,8.597180811348341223e+00
3.630000000000000000e+02,8.601955342753647926e+00
3.640000000000000000e+02,8.606673536503329558e+00
3.650000000000000000e+02,8.611336521971077573e+00
3.660000000000000000e+02,8.615944633243911355e+00
3.670000000000000000e+02,8.620497570976768387e+00
3.680000000000000000e+02,8.624995979320699391e+00
3.690000000000000000e+02,8.629440497841613933e+00
3.700000000000000000e+02,8.633831447541302495e+00
3.710000000000000000e+02,8.638209934754948804e+00
3.720000000000000000e+02,8.642514560599703799e+00
3.730000000000000000e+02,8.646762922460345280e+00
3.740000000000000000e+02,8.650958937933042492e+00
3.750000000000000000e+02,8.655103694798176761e+00
3.760000000000000000e+02,8.659198587209452569e+00
3.770000000000000000e+02,8.663243910627748789e+00
3.780000000000000000e+02,8.667239646179085710e+00
3.790000000000000000e+02,8.671187330357813750e+00
3.800000000000000000e+02,8.675086314901891527e+00
3.810000000000000000e+02,8.678937195645646696e+00
3.820000000000000000e+02,8.682740564815320639e+00
3.830000000000000000e+02,8.686496545688196846e+00
3.840000000000000000e+02,8.690206189709329010e+00
3.850000000000000000e+02,8.693869149455810685e+00
3.860000000000000000e+02,8.697486315255629208e+00
3.870000000000000000e+02,8.701058109250983108e+00
3.880000000000000000e+02,8.704584950865649873e+00
3.890000000000000000e+02,8.708068028710657771e+00
3.900000000000000000e+02,8.711507138098387060e+00
3.910000000000000000e+02,8.714903615034481632e+00
3.920000000000000000e+02,8.718257712093416600e+00
3.930000000000000000e+02,8.721569679909793038e+00
3.940000000000000000e+02,8.724840997431865475e+00
3.950000000000000000e+02,8.728071755104744867e+00
3.960000000000000000e+02,8.731263270457947812e+00
3.970000000000000000e+02,8.734415321743789207e+00
3.980000000000000000e+02,8.737529373501825347e+00
