# Time [s], Mass [Kg]
1.000000000000000000e+00,1.000000000000000000e+00
2.000000000000000000e+00,1.000000000000000000e+00
3.000000000000000000e+00,1.000000000000000000e+00
4.000000000000000000e+00,1.000000000000000000e+00
5.000000000000000000e+00,1.000000000000000000e+00
6.000000000000000000e+00,1.000000000000000000e+00
7.000000000000000000e+00,1.000000000000000000e+00
8.000000000000000000e+00,9.999999400000000316e-01
9.000000000000000000e+00,9.999998799999999521e-01
1.000000000000000000e+01,9.999995799999999990e-01
1.100000000000000000e+01,9.999989900000000320e-01
1.200000000000000000e+01,9.999974999999999836e-01
1.300000000000000000e+01,9.999942800000000132e-01
1.400000000000000000e+01,9.999877200000000244e-01
1.500000000000000000e+01,9.999750299999999870e-01
1.600000000000000000e+01,9.999520200000000525e-01
1.700000000000000000e+01,9.999125599999999503e-01
1.800000000000000000e+01,9.998482499999999940e-01
1.900000000000000000e+01,9.997483499999999523e-01
2.000000000000000000e+01,9.996001100000000417e-01
2.100000000000000000e+01,9.993888699999999847e-01
2.200000000000000000e+01,9.991014000000000284e-01
2.300000000000000000e+01,9.987268999999999730e-01
2.400000000000000000e+01,9.982549499999999743e-01
2.500000000000000000e+01,9.976867400000000163e-01
2.600000000000000000e+01,9.970262600000000530e-01
2.700000000000000000e+01,9.962673199999999563e-01
2.800000000000000000e+01,9.954295800000000360e-01
2.900000000000000000e+01,9.945228099999999793e-01
3.000000000000000000e+01,9.935300900000000324e-01
3.100000000000000000e+01,9.924849900000000114e-01
3.200000000000000000e+01,9.913933900000000410e-01
3.300000000000000000e+01,9.902252000000000276e-01
3.400000000000000000e+01,9.890232100000000415e-01
3.500000000000000000e+01,9.877892700000000525e-01
3.600000000000000000e+01,9.864843500000000098e-01
3.700000000000000000e+01,9.851545699999999517e-01
3.800000000000000000e+01,9.838009500000000074e-01
3.900000000000000000e+01,9.823809300000000411e-01
4.000000000000000000e+01,9.809376600000000446e-01
4.100000000000000000e+01,9.794751400000000219e-01
4.200000000000000000e+01,9.779525399999999813e-01
4.300000000000000000e+01,9.758409900000000192e-01
4.400000000000000000e+01,9.742365499999999789e-01
4.500000000000000000e+01,9.726337200000000349e-01
4.600000000000000000e+01,9.710316700000000134e-01
4.700000000000000000e+01,9.694308000000000369e-01
4.800000000000000000e+01,9.677882799999999452e-01
4.900000000000000000e+01,9.661287100000000017e-01
5.000000000000000000e+01,9.644587000000000021e-01
5.100000000000000000e+01,9.627553800000000495e-01
5.200000000000000000e+01,9.610334600000000060e-01
5.300000000000000000e+01,9.593036200000000235e-01
5.400000000000000000e+01,9.575492100000000395e-01
5.500000000000000000e+01,9.557799099999999548e-01
5.600000000000000000e+01,9.540049400000000235e-01
5.700000000000000000e+01,9.522127500000000522e-01
5.800000000000000000e+01,9.504085199999999789e-01
5.900000000000000000e+01,9.485995200000000294e-01
6.000000000000000000e+01,9.467778799999999606e-01
6.100000000000000000e+01,9.449464100000000144e-01
6.200000000000000000e+01,9.431106999999999685e-01
6.300000000000000000e+01,9.412660600000000155e-01
6.400000000000000000e+01,9.394141999999999770e-01
6.500000000000000000e+01,9.375596600000000169e-01
6.600000000000000000e+01,9.356999400000000078e-01
6.700000000000000000e+01,9.338357400000000252e-01
6.800000000000000000e+01,9.319705999999999824e-01
6.900000000000000000e+01,9.301025299999999829e-01
7.000000000000000000e+01,9.282320099999999963e-01
7.100000000000000000e+01,9.263610199999999795e-01
7.200000000000000000e+01,9.244884300000000277e-01
7.300000000000000000e+01,9.226139799999999447e-01
7.400000000000000000e+01,9.207387000000000210e-01
7.500000000000000000e+01,9.188625200000000159e-01
7.600000000000000000e+01,9.169851500000000266e-01
7.700000000000000000e+01,9.151076099999999602e-01
7.800000000000000000e+01,9.130850999999999829e-01
7.900000000000000000e+01,9.110738600000000131e-01
8.000000000000000000e+01,9.091047599999999562e-01
8.100000000000000000e+01,9.071697600000000472e-01
8.200000000000000000e+01,9.052550799999999898e-01
8.300000000000000000e+01,9.033559599999999579e-01
8.400000000000000000e+01,9.014660700000000082e-01
8.500000000000000000e+01,8.995825100000000019e-01
8.600000000000000000e+01,8.977032900000000426e-01
8.700000000000000000e+01,8.958266400000000074e-01
8.800000000000000000e+01,8.939517099999999550e-01
8.900000000000000000e+01,8.920782800000000012e-01
9.000000000000000000e+01,8.902058600000000155e-01
9.100000000000000000e+01,8.883343900000000293e-01
9.200000000000000000e+01,8.864638200000000134e-01
9.300000000000000000e+01,8.845941400000000288e-01
9.400000000000000000e+01,8.827254199999999829e-01
9.500000000000000000e+01,8.808572900000000150e-01
9.600000000000000000e+01,8.789899899999999988e-01
9.700000000000000000e+01,8.771233000000000501e-01
9.800000000000000000e+01,8.752571300000000498e-01
9.900000000000000000e+01,8.733912700000000529e-01
1.000000000000000000e+02,8.715257600000000382e-01
1.010000000000000000e+02,8.696606799999999637e-01
1.020000000000000000e+02,8.677958300000000458e-01
1.030000000000000000e+02,8.659313299999999991e-01
1.040000000000000000e+02,8.640672600000000037e-01
1.050000000000000000e+02,8.622033000000000058e-01
1.060000000000000000e+02,8.603397000000000405e-01
1.070000000000000000e+02,8.584764000000000284e-01
1.080000000000000000e+02,8.566133400000000009e-01
1.090000000000000000e+02,8.547502200000000050e-01
1.100000000000000000e+02,8.528870899999999589e-01
1.110000000000000000e+02,8.510240300000000424e-01
1.120000000000000000e+02,8.490930199999999761e-01
1.130000000000000000e+02,8.471894899999999895e-01
1.140000000000000000e+02,8.452980500000000230e-01
1.150000000000000000e+02,8.434138300000000310e-01
1.160000000000000000e+02,8.415345499999999923e-01
1.170000000000000000e+02,8.396584400000000059e-01
1.180000000000000000e+02,8.377842300000000186e-01
1.190000000000000000e+02,8.359114500000000003e-01
1.200000000000000000e+02,8.340391499999999514e-01
1.210000000000000000e+02,8.321670300000000298e-01
1.220000000000000000e+02,8.302944300000000277e-01
1.230000000000000000e+02,8.284210600000000424e-01
1.240000000000000000e+02,8.265467300000000073e-01
1.250000000000000000e+02,8.246710900000000510e-01
1.260000000000000000e+02,8.227940200000000148e-01
1.270000000000000000e+02,8.209152199999999455e-01
1.280000000000000000e+02,8.190344600000000197e-01
1.290000000000000000e+02,8.171518399999999627e-01
1.300000000000000000e+02,8.152669700000000352e-01
1.310000000000000000e+02,8.133797000000000388e-01
1.320000000000000000e+02,8.114902400000000293e-01
1.330000000000000000e+02,8.095982699999999532e-01
1.340000000000000000e+02,8.077036699999999847e-01
1.350000000000000000e+02,8.058064000000000338e-01
1.360000000000000000e+02,8.039061400000000468e-01
1.370000000000000000e+02,8.020029100000000133e-01
1.380000000000000000e+02,8.000965700000000069e-01
1.390000000000000000e+02,7.981870800000000488e-01
1.400000000000000000e+02,7.962739500000000081e-01
1.410000000000000000e+02,7.943571200000000276e-01
1.420000000000000000e+02,7.924366600000000149e-01
1.430000000000000000e+02,7.905121999999999982e-01
1.440000000000000000e+02,7.885838200000000464e-01
1.450000000000000000e+02,7.866512500000000241e-01
1.460000000000000000e+02,7.846547400000000172e-01
1.470000000000000000e+02,7.826786599999999705e-01
1.480000000000000000e+02,7.807099800000000256e-01
1.490000000000000000e+02,7.787432100000000190e-01
1.500000000000000000e+02,7.767758399999999952e-01
1.510000000000000000e+02,7.748060799999999526e-01
1.520000000000000000e+02,7.728330500000000214e-01
1.530000000000000000e+02,7.708558399999999589e-01
1.540000000000000000e+02,7.688739900000000072e-01
1.550000000000000000e+02,7.668870100000000356e-01
1.560000000000000000e+02,7.648944300000000140e-01
1.570000000000000000e+02,7.628958799999999707e-01
1.580000000000000000e+02,7.608910199999999735e-01
1.590000000000000000e+02,7.588795400000000191e-01
1.600000000000000000e+02,7.568611499999999825e-01
1.610000000000000000e+02,7.548357799999999562e-01
1.620000000000000000e+02,7.528030300000000397e-01
1.630000000000000000e+02,7.507625799999999572e-01
1.640000000000000000e+02,7.487141499999999672e-01
1.650000000000000000e+02,7.466573699999999869e-01
1.660000000000000000e+02,7.445921300000000187e-01
1.670000000000000000e+02,7.425180700000000300e-01
1.680000000000000000e+02,7.404349399999999859e-01
1.690000000000000000e+02,7.383425799999999706e-01
1.700000000000000000e+02,7.362406299999999515e-01
1.710000000000000000e+02,7.341288299999999545e-01
1.720000000000000000e+02,7.320069099999999551e-01
1.730000000000000000e+02,7.298744900000000424e-01
1.740000000000000000e+02,7.277313499999999991e-01
1.750000000000000000e+02,7.255771800000000438e-01
1.760000000000000000e+02,7.234116800000000014e-01
1.770000000000000000e+02,7.211784700000000159e-01
1.780000000000000000e+02,7.189547400000000366e-01
1.790000000000000000e+02,7.167301200000000261e-01
1.800000000000000000e+02,7.144997100000000101e-01
1.810000000000000000e+02,7.122610200000000225e-01
1.820000000000000000e+02,7.100125600000000148e-01
1.830000000000000000e+02,7.077533000000000296e-01
1.840000000000000000e+02,7.054825399999999913e-01
1.850000000000000000e+02,7.031996299999999644e-01
1.860000000000000000e+02,7.009043099999999749e-01
1.870000000000000000e+02,6.985962999999999479e-01
1.880000000000000000e+02,6.962753499999999596e-01
1.890000000000000000e+02,6.939413500000000123e-01
1.900000000000000000e+02,6.915943599999999636e-01
1.910000000000000000e+02,6.892343800000000353e-01
1.920000000000000000e+02,6.868616300000000008e-01
1.930000000000000000e+02,6.844761999999999791e-01
1.940000000000000000e+02,6.820784800000000425e-01
1.950000000000000000e+02,6.796686600000000356e-01
1.960000000000000000e+02,6.772471700000000094e-01
1.970000000000000000e+02,6.748143399999999570e-01
1.980000000000000000e+02,6.723707899999999960e-01
1.990000000000000000e+02,6.699169299999999660e-01
2.000000000000000000e+02,6.674534100000000247e-01
2.010000000000000000e+02,6.649808299999999672e-01
2.020000000000000000e+02,6.624999000000000304e-01
2.030000000000000000e+02,6.600111699999999804e-01
2.040000000000000000e+02,6.574642099999999934e-01
2.050000000000000000e+02,6.549279700000000259e-01
2.060000000000000000e+02,6.523956100000000147e-01
2.070000000000000000e+02,6.498644900000000169e-01
2.080000000000000000e+02,6.473334400000000377e-01
2.090000000000000000e+02,6.448018599999999489e-01
2.100000000000000000e+02,6.422697299999999831e-01
2.110000000000000000e+02,6.397371299999999872e-01
2.120000000000000000e+02,6.372045299999999912e-01
2.130000000000000000e+02,6.346722799999999776e-01
2.140000000000000000e+02,6.321408200000000477e-01
2.150000000000000000e+02,6.296106000000000202e-01
2.160000000000000000e+02,6.270821100000000259e-01
2.170000000000000000e+02,6.245557699999999546e-01
2.180000000000000000e+02,6.220319899999999791e-01
2.190000000000000000e+02,6.195113700000000057e-01
2.200000000000000000e+02,6.169942000000000482e-01
2.210000000000000000e+02,6.144808499999999674e-01
2.220000000000000000e+02,6.119719099999999523e-01
2.230000000000000000e+02,6.094675699999999585e-01
2.240000000000000000e+02,6.069681599999999788e-01
2.250000000000000000e+02,6.044740100000000060e-01
2.260000000000000000e+02,6.019853899999999536e-01
2.270000000000000000e+02,5.995025600000000177e-01
2.280000000000000000e+02,5.970258099999999901e-01
2.290000000000000000e+02,5.945109100000000035e-01
2.300000000000000000e+02,5.920153299999999508e-01
2.310000000000000000e+02,5.895342799999999661e-01
2.320000000000000000e+02,5.870653399999999911e-01
2.330000000000000000e+02,5.846071800000000040e-01
2.340000000000000000e+02,5.821590399999999610e-01
2.350000000000000000e+02,5.797205600000000514e-01
2.360000000000000000e+02,5.772913699999999704e-01
2.370000000000000000e+02,5.748714200000000218e-01
2.380000000000000000e+02,5.724606500000000153e-01
2.390000000000000000e+02,5.700591200000000303e-01
2.400000000000000000e+02,5.676669500000000035e-01
2.410000000000000000e+02,5.652841299999999958e-01
2.420000000000000000e+02,5.629108499999999626e-01
2.430000000000000000e+02,5.605473499999999998e-01
2.440000000000000000e+02,5.581937399999999938e-01
2.450000000000000000e+02,5.558502100000000112e-01
2.460000000000000000e+02,5.535170400000000157e-01
2.470000000000000000e+02,5.511945499999999498e-01
2.480000000000000000e+02,5.488830199999999992e-01
2.490000000000000000e+02,5.465828200000000248e-01
2.500000000000000000e+02,5.442942400000000402e-01
2.510000000000000000e+02,5.420177600000000151e-01
2.520000000000000000e+02,5.397536200000000450e-01
2.530000000000000000e+02,5.375023500000000176e-01
2.540000000000000000e+02,5.352644300000000133e-01
2.550000000000000000e+02,5.330403400000000014e-01
2.560000000000000000e+02,5.307976599999999490e-01
2.570000000000000000e+02,5.285792400000000058e-01
2.580000000000000000e+02,5.263823300000000094e-01
2.590000000000000000e+02,5.242059199999999919e-01
2.600000000000000000e+02,5.220495499999999733e-01
2.610000000000000000e+02,5.199133799999999805e-01
2.620000000000000000e+02,5.177974699999999819e-01
2.630000000000000000e+02,5.157023099999999971e-01
2.640000000000000000e+02,5.136284199999999744e-01
2.650000000000000000e+02,5.115765899999999977e-01
2.660000000000000000e+02,5.095475299999999708e-01
2.670000000000000000e+02,5.075422499999999726e-01
2.680000000000000000e+02,5.055615900000000051e-01
2.690000000000000000e+02,5.036066799999999732e-01
2.700000000000000000e+02,5.016785900000000353e-01
2.710000000000000000e+02,4.997785399999999933e-01
2.720000000000000000e+02,4.979076700000000244e-01
2.730000000000000000e+02,4.960671700000000017e-01
2.740000000000000000e+02,4.942583999999999866e-01
2.750000000000000000e+02,4.924826900000000007e-01
2.760000000000000000e+02,4.907413400000000259e-01
2.770000000000000000e+02,4.890357300000000018e-01
2.780000000000000000e+02,4.873671800000000109e-01
2.790000000000000000e+02,4.857370300000000141e-01
2.800000000000000000e+02,4.841465400000000141e-01
2.810000000000000000e+02,4.825968999999999953e-01
2.820000000000000000e+02,4.810893800000000109e-01
2.830000000000000000e+02,4.796249899999999733e-01
2.840000000000000000e+02,4.782047600000000065e-01
2.850000000000000000e+02,4.768295000000000172e-01
2.860000000000000000e+02,4.754999599999999993e-01
2.870000000000000000e+02,4.742167299999999752e-01
2.880000000000000000e+02,4.729801699999999776e-01
2.890000000000000000e+02,4.717905800000000149e-01
2.900000000000000000e+02,4.706479599999999763e-01
2.910000000000000000e+02,4.695545999999999887e-01
2.920000000000000000e+02,4.685069900000000120e-01
2.930000000000000000e+02,4.675051900000000149e-01
2.940000000000000000e+02,4.665485899999999853e-01
2.950000000000000000e+02,4.656364000000000058e-01
2.960000000000000000e+02,4.647677199999999953e-01
2.970000000000000000e+02,4.639414499999999775e-01
2.980000000000000000e+02,4.631564000000000236e-01
2.990000000000000000e+02,4.624112799999999801e-01
3.000000000000000000e+02,4.617047599999999918e-01
3.010000000000000000e+02,4.610353699999999999e-01
3.020000000000000000e+02,4.604016200000000114e-01
3.030000000000000000e+02,4.598020600000000124e-01
3.040000000000000000e+02,4.592350700000000230e-01
3.050000000000000000e+02,4.586991699999999894e-01
3.060000000000000000e+02,4.581928599999999796e-01
3.070000000000000000e+02,4.577145899999999767e-01
3.080000000000000000e+02,4.572629300000000119e-01
3.090000000000000000e+02,4.568364599999999998e-01
3.100000000000000000e+02,4.564337700000000164e-01
3.110000000000000000e+02,4.560535600000000245e-01
3.120000000000000000e+02,4.556945299999999865e-01
3.130000000000000000e+02,4.553554400000000002e-01
3.140000000000000000e+02,4.550351799999999836e-01
3.150000000000000000e+02,4.547325700000000026e-01
3.160000000000000000e+02,4.544466099999999731e-01
3.170000000000000000e+02,4.541762799999999878e-01
3.180000000000000000e+02,4.539206299999999916e-01
3.190000000000000000e+02,4.536788199999999827e-01
3.200000000000000000e+02,4.534499599999999853e-01
3.210000000000000000e+02,4.532333299999999898e-01
3.220000000000000000e+02,4.530281099999999839e-01
3.230000000000000000e+02,4.528336800000000162e-01
3.240000000000000000e+02,4.526493500000000059e-01
3.250000000000000000e+02,4.524745600000000256e-01
3.260000000000000000e+02,4.523086800000000185e-01
3.270000000000000000e+02,4.521512400000000098e-01
3.280000000000000000e+02,4.520016900000000115e-01
3.290000000000000000e+02,4.518595899999999776e-01
3.300000000000000000e+02,4.517244999999999733e-01
3.310000000000000000e+02,4.515959900000000027e-01
3.320000000000000000e+02,4.514737400000000123e-01
3.330000000000000000e+02,4.513573100000000116e-01
3.340000000000000000e+02,4.512464400000000264e-01
3.350000000000000000e+02,4.511407599999999740e-01
3.360000000000000000e+02,4.510400299999999807e-01
3.370000000000000000e+02,4.509439199999999981e-01
3.380000000000000000e+02,4.508522200000000257e-01
3.390000000000000000e+02,4.507646599999999837e-01
3.400000000000000000e+02,4.506810299999999825e-01
3.410000000000000000e+02,4.506011300000000164e-01
3.420000000000000000e+02,4.505247199999999896e-01
3.430000000000000000e+02,4.504516399999999865e-01
3.440000000000000000e+02,4.503817299999999801e-01
3.450000000000000000e+02,4.503147900000000203e-01
3.460000000000000000e+02,4.502506900000000090e-01
3.470000000000000000e+02,4.501892900000000197e-01
3.480000000000000000e+02,4.501304300000000258e-01
3.490000000000000000e+02,4.500740200000000191e-01
3.500000000000000000e+02,4.500198999999999727e-01
3.510000000000000000e+02,4.499679500000000054e-01
3.520000000000000000e+02,4.499181199999999770e-01
3.530000000000000000e+02,4.498702600000000218e-01
3.540000000000000000e+02,4.498242700000000260e-01
3.550000000000000000e+02,4.497800800000000265e-01
3.560000000000000000e+02,4.497376100000000099e-01
3.570000000000000000e+02,4.496967800000000182e-01
3.580000000000000000e+02,4.496574999999999878e-01
3.590000000000000000e+02,4.496196800000000215e-01
3.600000000000000000e+02,4.495833200000000085e-01
3.610000000000000000e+02,4.495482700000000276e-01
3.620000000000000000e+02,4.495145400000000180e-01
3.630000000000000000e+02,4.494820199999999821e-01
3.640000000000000000e+02,4.494506999999999808e-01
3.650000000000000000e+02,4.494205099999999953e-01
3.660000000000000000e+02,4.493913700000000122e-01
3.670000000000000000e+02,4.493632900000000263e-01
3.680000000000000000e+02,4.493361699999999792e-01
3.690000000000000000e+02,4.493099999999999872e-01
3.700000000000000000e+02,4.492847600000000052e-01
3.710000000000000000e+02,4.492603499999999750e-01
3.720000000000000000e+02,4.492368099999999864e-01
3.730000000000000000e+02,4.492140399999999811e-01
3.740000000000000000e+02,4.491920500000000094e-01
3.750000000000000000e+02,4.491707699999999970e-01
3.760000000000000000e+02,4.491501999999999994e-01
3.770000000000000000e+02,4.491303300000000220e-01
3.780000000000000000e+02,4.491110700000000011e-01
3.790000000000000000e+02,4.490924499999999764e-01
3.800000000000000000e+02,4.490744500000000139e-01
3.810000000000000000e+02,4.490569799999999945e-01
3.820000000000000000e+02,4.490400900000000028e-01
3.830000000000000000e+02,4.490237200000000151e-01
3.840000000000000000e+02,4.490078699999999756e-01
3.850000000000000000e+02,4.489925200000000061e-01
3.860000000000000000e+02,4.489776200000000217e-01
3.870000000000000000e+02,4.489632000000000067e-01
3.880000000000000000e+02,4.489492199999999822e-01
3.890000000000000000e+02,4.489356299999999744e-01
3.900000000000000000e+02,4.489224600000000232e-01
3.910000000000000000e+02,4.489097000000000226e-01
3.920000000000000000e+02,4.488972999999999991e-01
3.930000000000000000e+02,4.488852600000000082e-01
3.940000000000000000e+02,4.488735799999999943e-01
3.950000000000000000e+02,4.488622199999999784e-01
3.960000000000000000e+02,4.488512299999999899e-01
3.970000000000000000e+02,4.488404999999999756e-01
3.980000000000000000e+02,4.488301000000000096e-01
3.990000000000000000e+02,4.488199900000000020e-01
