# Time [s], Temperature [C]
1.000000000000000000e+00,2.499996900000000011e+01
2.000000000000000000e+00,7.024443100000000584e+01
3.000000000000000000e+00,9.528555299999999306e+01
4.000000000000000000e+00,1.153882799999999946e+02
5.000000000000000000e+00,1.320261399999999981e+02
6.000000000000000000e+00,1.465105000000000075e+02
7.000000000000000000e+00,1.593868600000000129e+02
8.000000000000000000e+00,1.710353200000000129e+02
9.000000000000000000e+00,1.816991399999999999e+02
1.000000000000000000e+01,1.915482599999999991e+02
1.100000000000000000e+01,2.007128899999999874e+02
1.200000000000000000e+01,2.092887399999999900e+02
1.300000000000000000e+01,2.173511799999999994e+02
1.400000000000000000e+01,2.249646099999999933e+02
1.500000000000000000e+01,2.321797500000000127e+02
1.600000000000000000e+01,2.390376699999999914e+02
1.700000000000000000e+01,2.455757900000000120e+02
1.800000000000000000e+01,2.518296100000000024e+02
1.900000000000000000e+01,2.578214699999999766e+02
2.000000000000000000e+01,2.635792799999999829e+02
2.100000000000000000e+01,2.691146899999999960e+02
2.200000000000000000e+01,2.744417399999999816e+02
2.300000000000000000e+01,2.795673499999999763e+02
2.400000000000000000e+01,2.844921899999999937e+02
2.500000000000000000e+01,2.892206400000000031e+02
2.600000000000000000e+01,2.937586099999999760e+02
2.700000000000000000e+01,2.981072100000000091e+02
2.800000000000000000e+01,3.022735900000000129e+02
2.900000000000000000e+01,3.062663600000000201e+02
3.000000000000000000e+01,3.100857500000000186e+02
3.100000000000000000e+01,3.137332799999999793e+02
3.200000000000000000e+01,3.172162799999999834e+02
3.300000000000000000e+01,3.205330500000000029e+02
3.400000000000000000e+01,3.236856700000000160e+02
3.500000000000000000e+01,3.266770599999999831e+02
3.600000000000000000e+01,3.295059200000000033e+02
3.700000000000000000e+01,3.321790500000000179e+02
3.800000000000000000e+01,3.347005599999999959e+02
3.900000000000000000e+01,3.370743100000000254e+02
4.000000000000000000e+01,3.393060600000000022e+02
4.100000000000000000e+01,3.414066199999999753e+02
4.200000000000000000e+01,3.433804900000000089e+02
4.300000000000000000e+01,3.452393799999999828e+02
4.400000000000000000e+01,3.469941699999999969e+02
4.500000000000000000e+01,3.486517000000000053e+02
4.600000000000000000e+01,3.502243000000000279e+02
4.700000000000000000e+01,3.517207900000000222e+02
4.800000000000000000e+01,3.531490200000000073e+02
4.900000000000000000e+01,3.545187700000000177e+02
5.000000000000000000e+01,3.558393599999999992e+02
5.100000000000000000e+01,3.571138900000000262e+02
5.200000000000000000e+01,3.583516799999999876e+02
5.300000000000000000e+01,3.595579200000000242e+02
5.400000000000000000e+01,3.607358399999999961e+02
5.500000000000000000e+01,3.618905300000000125e+02
5.600000000000000000e+01,3.630283200000000079e+02
5.700000000000000000e+01,3.641479199999999992e+02
5.800000000000000000e+01,3.652568699999999922e+02
5.900000000000000000e+01,3.663535499999999843e+02
6.000000000000000000e+01,3.674406399999999735e+02
6.100000000000000000e+01,3.685227699999999800e+02
6.200000000000000000e+01,3.695971700000000055e+02
6.300000000000000000e+01,3.706682099999999878e+02
6.400000000000000000e+01,3.717359900000000152e+02
6.500000000000000000e+01,3.727991000000000099e+02
6.600000000000000000e+01,3.738600799999999822e+02
6.700000000000000000e+01,3.749191900000000146e+02
6.800000000000000000e+01,3.759741500000000087e+02
6.900000000000000000e+01,3.770283800000000269e+02
7.000000000000000000e+01,3.780777299999999741e+02
7.100000000000000000e+01,3.791245400000000245e+02
7.200000000000000000e+01,3.801690399999999954e+02
7.300000000000000000e+01,3.812084699999999771e+02
7.400000000000000000e+01,3.822454500000000053e+02
7.500000000000000000e+01,3.832757599999999911e+02
7.600000000000000000e+01,3.843035300000000234e+02
7.700000000000000000e+01,3.853241899999999873e+02
7.800000000000000000e+01,3.863391700000000242e+02
7.900000000000000000e+01,3.873499100000000226e+02
8.000000000000000000e+01,3.883522600000000011e+02
8.100000000000000000e+01,3.893529100000000085e+02
8.200000000000000000e+01,3.903421599999999785e+02
8.300000000000000000e+01,3.913293499999999767e+02
8.400000000000000000e+01,3.923084400000000187e+02
8.500000000000000000e+01,3.932832300000000032e+02
8.600000000000000000e+01,3.942511600000000271e+02
8.700000000000000000e+01,3.952129499999999780e+02
8.800000000000000000e+01,3.961727300000000014e+02
8.900000000000000000e+01,3.971234400000000164e+02
9.000000000000000000e+01,3.980729699999999980e+02
9.100000000000000000e+01,3.990177899999999909e+02
9.200000000000000000e+01,3.999562399999999798e+02
9.300000000000000000e+01,4.008938299999999799e+02
9.400000000000000000e+01,4.018278500000000122e+02
9.500000000000000000e+01,4.027556500000000028e+02
9.600000000000000000e+01,4.036841999999999757e+02
9.700000000000000000e+01,4.046062000000000012e+02
9.800000000000000000e+01,4.055256699999999910e+02
9.900000000000000000e+01,4.064438499999999976e+02
1.000000000000000000e+02,4.073564099999999826e+02
1.010000000000000000e+02,4.082681900000000041e+02
1.020000000000000000e+02,4.091749899999999798e+02
1.030000000000000000e+02,4.100792500000000018e+02
1.040000000000000000e+02,4.109795799999999986e+02
1.050000000000000000e+02,4.125598800000000210e+02
1.060000000000000000e+02,4.038996599999999830e+02
1.070000000000000000e+02,4.059000199999999836e+02
1.080000000000000000e+02,4.057608599999999797e+02
1.090000000000000000e+02,4.069935600000000022e+02
1.100000000000000000e+02,4.077428899999999885e+02
1.110000000000000000e+02,4.088181200000000217e+02
1.120000000000000000e+02,4.097530199999999923e+02
1.130000000000000000e+02,4.107769799999999805e+02
1.140000000000000000e+02,4.117499700000000189e+02
1.150000000000000000e+02,4.127465199999999754e+02
1.160000000000000000e+02,4.137213699999999790e+02
1.170000000000000000e+02,4.146989699999999743e+02
1.180000000000000000e+02,4.156619600000000219e+02
1.190000000000000000e+02,4.166228600000000029e+02
1.200000000000000000e+02,4.175732100000000173e+02
1.210000000000000000e+02,4.185183700000000044e+02
1.220000000000000000e+02,4.194547400000000152e+02
1.230000000000000000e+02,4.203841199999999958e+02
1.240000000000000000e+02,4.213066999999999780e+02
1.250000000000000000e+02,4.222218599999999924e+02
1.260000000000000000e+02,4.231293900000000008e+02
1.270000000000000000e+02,4.240309399999999869e+02
1.280000000000000000e+02,4.249267899999999827e+02
1.290000000000000000e+02,4.258138099999999895e+02
1.300000000000000000e+02,4.266946100000000115e+02
1.310000000000000000e+02,4.275699799999999868e+02
1.320000000000000000e+02,4.284389600000000087e+02
1.330000000000000000e+02,4.293011799999999880e+02
1.340000000000000000e+02,4.301581400000000031e+02
1.350000000000000000e+02,4.310090299999999957e+02
1.360000000000000000e+02,4.318555299999999875e+02
1.370000000000000000e+02,4.326962899999999763e+02
1.380000000000000000e+02,4.335324100000000271e+02
1.390000000000000000e+02,4.343638000000000261e+02
1.400000000000000000e+02,4.351902200000000107e+02
1.410000000000000000e+02,4.360125400000000013e+02
1.420000000000000000e+02,4.368283099999999877e+02
1.430000000000000000e+02,4.376425199999999904e+02
1.440000000000000000e+02,4.384500400000000013e+02
1.450000000000000000e+02,4.392554000000000087e+02
1.460000000000000000e+02,4.400552700000000073e+02
1.470000000000000000e+02,4.408518399999999815e+02
1.480000000000000000e+02,4.416439500000000180e+02
1.490000000000000000e+02,4.424315799999999967e+02
1.500000000000000000e+02,4.432156699999999887e+02
1.510000000000000000e+02,4.439954500000000053e+02
1.520000000000000000e+02,4.447724000000000046e+02
1.530000000000000000e+02,4.448648400000000152e+02
1.540000000000000000e+02,4.447192999999999756e+02
1.550000000000000000e+02,4.450366500000000087e+02
1.560000000000000000e+02,4.455754400000000146e+02
1.570000000000000000e+02,4.462100199999999859e+02
1.580000000000000000e+02,4.469167199999999980e+02
1.590000000000000000e+02,4.476563699999999812e+02
1.600000000000000000e+02,4.484184000000000196e+02
1.610000000000000000e+02,4.491909800000000246e+02
1.620000000000000000e+02,4.499700900000000274e+02
1.630000000000000000e+02,4.507506700000000137e+02
1.640000000000000000e+02,4.515312799999999811e+02
1.650000000000000000e+02,4.523072199999999725e+02
1.660000000000000000e+02,4.530806000000000040e+02
1.670000000000000000e+02,4.538501899999999978e+02
1.680000000000000000e+02,4.546142300000000205e+02
1.690000000000000000e+02,4.553731399999999780e+02
1.700000000000000000e+02,4.561260100000000079e+02
1.710000000000000000e+02,4.568739600000000110e+02
1.720000000000000000e+02,4.576161200000000235e+02
1.730000000000000000e+02,4.583551600000000121e+02
1.740000000000000000e+02,4.590861199999999940e+02
1.750000000000000000e+02,4.598123499999999808e+02
1.760000000000000000e+02,4.605341500000000110e+02
1.770000000000000000e+02,4.612483799999999974e+02
1.780000000000000000e+02,4.619586800000000153e+02
1.790000000000000000e+02,4.626663199999999847e+02
1.800000000000000000e+02,4.633664899999999989e+02
1.810000000000000000e+02,4.640624099999999999e+02
1.820000000000000000e+02,4.647545200000000136e+02
1.830000000000000000e+02,4.654424999999999955e+02
1.840000000000000000e+02,4.661241499999999860e+02
1.850000000000000000e+02,4.668030699999999911e+02
1.860000000000000000e+02,4.674768100000000004e+02
1.870000000000000000e+02,4.681472499999999854e+02
1.880000000000000000e+02,4.688129299999999944e+02
1.890000000000000000e+02,4.694753999999999792e+02
1.900000000000000000e+02,4.701330300000000193e+02
1.910000000000000000e+02,4.707864400000000273e+02
1.920000000000000000e+02,4.714356999999999971e+02
1.930000000000000000e+02,4.720817299999999932e+02
1.940000000000000000e+02,4.722914700000000039e+02
1.950000000000000000e+02,4.727276600000000144e+02
1.960000000000000000e+02,4.732347700000000259e+02
1.970000000000000000e+02,4.736834400000000187e+02
1.980000000000000000e+02,4.742249499999999784e+02
1.990000000000000000e+02,4.747681600000000230e+02
2.000000000000000000e+02,4.753473799999999869e+02
2.010000000000000000e+02,4.759342300000000137e+02
2.020000000000000000e+02,4.765357399999999757e+02
2.030000000000000000e+02,4.771431000000000040e+02
2.040000000000000000e+02,4.777533300000000054e+02
2.050000000000000000e+02,4.783662699999999859e+02
2.060000000000000000e+02,4.789790600000000040e+02
2.070000000000000000e+02,4.795932000000000244e+02
2.080000000000000000e+02,4.802026999999999930e+02
2.090000000000000000e+02,4.808121600000000058e+02
2.100000000000000000e+02,4.814162600000000225e+02
2.110000000000000000e+02,4.820200800000000072e+02
2.120000000000000000e+02,4.826179200000000264e+02
2.130000000000000000e+02,4.832122200000000021e+02
2.140000000000000000e+02,4.838030099999999720e+02
2.150000000000000000e+02,4.843906600000000253e+02
2.160000000000000000e+02,4.849739400000000273e+02
2.170000000000000000e+02,4.855523999999999774e+02
2.180000000000000000e+02,4.861279900000000112e+02
2.190000000000000000e+02,4.866987300000000118e+02
2.200000000000000000e+02,4.872637599999999907e+02
2.210000000000000000e+02,4.878282500000000255e+02
2.220000000000000000e+02,4.883856200000000172e+02
2.230000000000000000e+02,4.889406399999999735e+02
2.240000000000000000e+02,4.894922500000000127e+02
2.250000000000000000e+02,4.900376899999999978e+02
2.260000000000000000e+02,4.905815099999999802e+02
2.270000000000000000e+02,4.911194800000000100e+02
2.280000000000000000e+02,4.916550300000000107e+02
2.290000000000000000e+02,4.921169699999999807e+02
2.300000000000000000e+02,4.924937400000000025e+02
2.310000000000000000e+02,4.929178499999999872e+02
2.320000000000000000e+02,4.933518100000000004e+02
2.330000000000000000e+02,4.937799699999999916e+02
2.340000000000000000e+02,4.942348900000000071e+02
2.350000000000000000e+02,4.946894199999999842e+02
2.360000000000000000e+02,4.951605799999999817e+02
2.370000000000000000e+02,4.956339399999999955e+02
2.380000000000000000e+02,4.961132499999999936e+02
2.390000000000000000e+02,4.965953099999999836e+02
2.400000000000000000e+02,4.970799299999999903e+02
2.410000000000000000e+02,4.975650600000000168e+02
2.420000000000000000e+02,4.980521200000000022e+02
2.430000000000000000e+02,4.985370500000000220e+02
2.440000000000000000e+02,4.990210000000000150e+02
2.450000000000000000e+02,4.995048199999999952e+02
2.460000000000000000e+02,4.999867600000000039e+02
2.470000000000000000e+02,5.004667999999999779e+02
2.480000000000000000e+02,5.009436600000000226e+02
2.490000000000000000e+02,5.014197100000000091e+02
2.500000000000000000e+02,5.018916899999999828e+02
2.510000000000000000e+02,5.023630400000000122e+02
2.520000000000000000e+02,5.028310200000000236e+02
2.530000000000000000e+02,5.032947700000000282e+02
2.540000000000000000e+02,5.037585799999999949e+02
2.550000000000000000e+02,5.042184399999999869e+02
2.560000000000000000e+02,5.046747700000000236e+02
2.570000000000000000e+02,5.051299399999999764e+02
2.580000000000000000e+02,5.055816300000000183e+02
2.590000000000000000e+02,5.060296599999999785e+02
2.600000000000000000e+02,5.064760099999999738e+02
2.610000000000000000e+02,5.069202599999999848e+02
2.620000000000000000e+02,5.073382599999999911e+02
2.630000000000000000e+02,5.077109100000000126e+02
2.640000000000000000e+02,5.080747099999999818e+02
2.650000000000000000e+02,5.084543499999999767e+02
2.660000000000000000e+02,5.088309300000000235e+02
2.670000000000000000e+02,5.092118500000000267e+02
2.680000000000000000e+02,5.095973200000000247e+02
2.690000000000000000e+02,5.099873000000000047e+02
2.700000000000000000e+02,5.103798199999999952e+02
2.710000000000000000e+02,5.107756299999999783e+02
2.720000000000000000e+02,5.111743500000000040e+02
2.730000000000000000e+02,5.115745499999999879e+02
2.740000000000000000e+02,5.119757999999999925e+02
2.750000000000000000e+02,5.123785400000000436e+02
2.760000000000000000e+02,5.127800899999999729e+02
2.770000000000000000e+02,5.131826800000000048e+02
2.780000000000000000e+02,5.135861800000000130e+02
2.790000000000000000e+02,5.139882800000000316e+02
2.800000000000000000e+02,5.143898900000000367e+02
2.810000000000000000e+02,5.147906500000000278e+02
2.820000000000000000e+02,5.151904899999999543e+02
2.830000000000000000e+02,5.155892300000000432e+02
2.840000000000000000e+02,5.159879799999999932e+02
2.850000000000000000e+02,5.163846999999999525e+02
2.860000000000000000e+02,5.167801500000000487e+02
2.870000000000000000e+02,5.171743199999999661e+02
2.880000000000000000e+02,5.175673199999999952e+02
2.890000000000000000e+02,5.179589799999999968e+02
2.900000000000000000e+02,5.183505900000000111e+02
2.910000000000000000e+02,5.187399299999999585e+02
2.920000000000000000e+02,5.191280500000000302e+02
2.930000000000000000e+02,5.195158699999999499e+02
2.940000000000000000e+02,5.199008800000000292e+02
2.950000000000000000e+02,5.202854599999999436e+02
2.960000000000000000e+02,5.206693099999999959e+02
2.970000000000000000e+02,5.210452900000000227e+02
2.980000000000000000e+02,5.213837899999999763e+02
2.990000000000000000e+02,5.217279700000000275e+02
3.000000000000000000e+02,5.220676300000000083e+02
3.010000000000000000e+02,5.224122300000000223e+02
3.020000000000000000e+02,5.227560399999999845e+02
3.030000000000000000e+02,5.231026000000000522e+02
3.040000000000000000e+02,5.234510500000000093e+02
3.050000000000000000e+02,5.238030400000000100e+02
3.060000000000000000e+02,5.241570400000000518e+02
3.070000000000000000e+02,5.245122099999999818e+02
3.080000000000000000e+02,5.248711499999999432e+02
3.090000000000000000e+02,5.252310199999999440e+02
3.100000000000000000e+02,5.255928300000000490e+02
3.110000000000000000e+02,5.259563000000000557e+02
3.120000000000000000e+02,5.263207999999999629e+02
3.130000000000000000e+02,5.266859100000000353e+02
3.140000000000000000e+02,5.270534699999999475e+02
3.150000000000000000e+02,5.274212599999999611e+02
3.160000000000000000e+02,5.277901000000000522e+02
3.170000000000000000e+02,5.281613800000000083e+02
3.180000000000000000e+02,5.285319200000000137e+02
3.190000000000000000e+02,5.289036899999999832e+02
3.200000000000000000e+02,5.292766699999999673e+02
3.210000000000000000e+02,5.296505100000000539e+02
3.220000000000000000e+02,5.300250899999999774e+02
3.230000000000000000e+02,5.304010600000000295e+02
3.240000000000000000e+02,5.307764300000000048e+02
3.250000000000000000e+02,5.311540499999999838e+02
3.260000000000000000e+02,5.315329600000000028e+02
3.270000000000000000e+02,5.319127200000000357e+02
3.280000000000000000e+02,5.322938799999999446e+02
3.290000000000000000e+02,5.326769399999999450e+02
3.300000000000000000e+02,5.330606699999999591e+02
3.310000000000000000e+02,5.334458600000000388e+02
3.320000000000000000e+02,5.338325800000000072e+02
3.330000000000000000e+02,5.342211300000000165e+02
3.340000000000000000e+02,5.346115099999999529e+02
3.350000000000000000e+02,5.350049400000000333e+02
3.360000000000000000e+02,5.353996600000000399e+02
3.370000000000000000e+02,5.357967499999999745e+02
3.380000000000000000e+02,5.361954299999999876e+02
3.390000000000000000e+02,5.365829499999999825e+02
3.400000000000000000e+02,5.369726600000000190e+02
3.410000000000000000e+02,5.373606600000000526e+02
3.420000000000000000e+02,5.377526900000000296e+02
3.430000000000000000e+02,5.381479500000000371e+02
3.440000000000000000e+02,5.385487100000000282e+02
3.450000000000000000e+02,5.389528800000000501e+02
3.460000000000000000e+02,5.393635900000000447e+02
3.470000000000000000e+02,5.397807599999999866e+02
3.480000000000000000e+02,5.402041000000000395e+02
3.490000000000000000e+02,5.406336099999999760e+02
3.500000000000000000e+02,5.410712899999999763e+02
3.510000000000000000e+02,5.415154999999999745e+02
3.520000000000000000e+02,5.419672199999999975e+02
3.530000000000000000e+02,5.424260900000000447e+02
3.540000000000000000e+02,5.428934900000000425e+02
3.550000000000000000e+02,5.433677999999999884e+02
3.560000000000000000e+02,5.438535200000000032e+02
3.570000000000000000e+02,5.443471100000000433e+02
3.580000000000000000e+02,5.448493700000000217e+02
3.590000000000000000e+02,5.453623700000000554e+02
3.600000000000000000e+02,5.458858000000000175e+02
3.610000000000000000e+02,5.464204700000000230e+02
3.620000000000000000e+02,5.469663699999999835e+02
3.630000000000000000e+02,5.475235599999999749e+02
3.640000000000000000e+02,5.480955199999999650e+02
3.650000000000000000e+02,5.486799899999999752e+02
3.660000000000000000e+02,5.492795999999999594e+02
3.670000000000000000e+02,5.498931900000000041e+02
3.680000000000000000e+02,5.505258199999999533e+02
3.690000000000000000e+02,5.511721800000000258e+02
3.700000000000000000e+02,5.518380100000000539e+02
3.710000000000000000e+02,5.525223399999999856e+02
3.720000000000000000e+02,5.532263199999999870e+02
3.730000000000000000e+02,5.539505599999999959e+02
3.740000000000000000e+02,5.546973299999999654e+02
3.750000000000000000e+02,5.554652099999999564e+02
3.760000000000000000e+02,5.562571400000000494e+02
3.770000000000000000e+02,5.570723299999999654e+02
3.780000000000000000e+02,5.579119299999999839e+02
3.790000000000000000e+02,5.587749599999999646e+02
3.800000000000000000e+02,5.596636399999999867e+02
3.810000000000000000e+02,5.605753799999999956e+02
3.820000000000000000e+02,5.615103100000000040e+02
3.830000000000000000e+02,5.624672199999999975e+02
3.840000000000000000e+02,5.634439099999999598e+02
3.850000000000000000e+02,5.644381100000000515e+02
3.860000000000000000e+02,5.654490399999999681e+02
3.870000000000000000e+02,5.664729599999999436e+02
3.880000000000000000e+02,5.675064700000000357e+02
3.890000000000000000e+02,5.685495600000000422e+02
3.900000000000000000e+02,5.695969199999999546e+02
3.910000000000000000e+02,5.706457500000000209e+02
3.920000000000000000e+02,5.716959200000000010e+02
3.930000000000000000e+02,5.727438399999999774e+02
3.940000000000000000e+02,5.737869899999999461e+02
3.950000000000000000e+02,5.748271499999999605e+02
3.960000000000000000e+02,5.758575399999999718e+02
3.970000000000000000e+02,5.768804900000000089e+02
3.980000000000000000e+02,5.778956899999999450e+02
3.990000000000000000e+02,5.788985000000000127e+02
