# Time [s], Convective Heat Transfer Coefficient [W/m2K]
1.000000000000000000e+00,0.000000000000000000e+00
2.000000000000000000e+00,0.000000000000000000e+00
3.000000000000000000e+00,0.000000000000000000e+00
4.000000000000000000e+00,0.000000000000000000e+00
5.000000000000000000e+00,1.915079995362458862e-02
6.000000000000000000e+00,3.040000000141642594e-02
7.000000000000000000e+00,4.924209937913938406e-02
8.000000000000000000e+00,7.497284705944008698e-02
9.000000000000000000e+00,1.081295564565561973e-01
1.000000000000000000e+01,1.487385185554946643e-01
1.100000000000000000e+01,1.967569606456167075e-01
1.200000000000000000e+01,2.517063016594451308e-01
1.300000000000000000e+01,3.130505441823109303e-01
1.400000000000000000e+01,3.799675705658596692e-01
1.500000000000000000e+01,4.516634834626817030e-01
1.600000000000000000e+01,5.273603622560489868e-01
1.700000000000000000e+01,6.063424854309924505e-01
1.800000000000000000e+01,6.879528815757155469e-01
1.900000000000000000e+01,7.716049347523725732e-01
2.000000000000000000e+01,8.567920929733958690e-01
2.100000000000000000e+01,9.430822669545448900e-01
2.200000000000000000e+01,1.030096035586312464e+00
2.300000000000000000e+01,1.117515624954503073e+00
2.400000000000000000e+01,1.205072087549884152e+00
2.500000000000000000e+01,1.292538350043825002e+00
2.600000000000000000e+01,1.379725191034111953e+00
2.700000000000000000e+01,1.466473951888257021e+00
2.800000000000000000e+01,1.552652473734246197e+00
2.900000000000000000e+01,1.638153744180466997e+00
3.000000000000000000e+01,1.722887260486043903e+00
3.100000000000000000e+01,1.806783393864551446e+00
3.200000000000000000e+01,1.889781653326953359e+00
3.300000000000000000e+01,1.971837771419405083e+00
3.400000000000000000e+01,2.052916455747418656e+00
3.500000000000000000e+01,2.132989814360214176e+00
3.600000000000000000e+01,2.212039471323409945e+00
3.700000000000000000e+01,2.290052467102212219e+00
3.800000000000000000e+01,2.367019337328480688e+00
3.900000000000000000e+01,2.442937094563732536e+00
4.000000000000000000e+01,2.517806109572634288e+00
4.100000000000000000e+01,2.591629345820556818e+00
4.200000000000000000e+01,2.664412629113609210e+00
4.300000000000000000e+01,2.736164500397377353e+00
4.400000000000000000e+01,2.806894015473913484e+00
4.500000000000000000e+01,2.876614259210228397e+00
4.600000000000000000e+01,2.945337743963316601e+00
4.700000000000000000e+01,3.013075860302008024e+00
4.800000000000000000e+01,3.079844038941481621e+00
4.900000000000000000e+01,3.145658785937835766e+00
5.000000000000000000e+01,3.210533380556579441e+00
5.100000000000000000e+01,3.274484187394572920e+00
5.200000000000000000e+01,3.337528531014123612e+00
5.300000000000000000e+01,3.399680907465629787e+00
5.400000000000000000e+01,3.460958112833872669e+00
5.500000000000000000e+01,3.521375881525581342e+00
5.600000000000000000e+01,3.580951763095323592e+00
5.700000000000000000e+01,3.639701535126871779e+00
5.800000000000000000e+01,3.697638944668580674e+00
5.900000000000000000e+01,3.754781566119290037e+00
6.000000000000000000e+01,3.811145560307324320e+00
6.100000000000000000e+01,3.866745484324308979e+00
6.200000000000000000e+01,3.921595280726648536e+00
6.300000000000000000e+01,3.975710740664243126e+00
6.400000000000000000e+01,4.029106534490670022e+00
6.500000000000000000e+01,4.081797005509829823e+00
6.600000000000000000e+01,4.133796300261140644e+00
6.700000000000000000e+01,4.185117747879733230e+00
6.800000000000000000e+01,4.235774505423586689e+00
6.900000000000000000e+01,4.285780753223704664e+00
7.000000000000000000e+01,4.335148868472966655e+00
7.100000000000000000e+01,4.383891544939823248e+00
7.200000000000000000e+01,4.432021017125459039e+00
7.300000000000000000e+01,4.479549201544844372e+00
7.400000000000000000e+01,4.526487936365698239e+00
7.500000000000000000e+01,4.572848297850846677e+00
7.600000000000000000e+01,4.618641700384067406e+00
7.700000000000000000e+01,4.663879632225521377e+00
7.800000000000000000e+01,4.708572208376047286e+00
7.900000000000000000e+01,4.752729891059751743e+00
8.000000000000000000e+01,4.796362987996338312e+00
8.100000000000000000e+01,4.839481205355968818e+00
8.200000000000000000e+01,4.882094377775935357e+00
8.300000000000000000e+01,4.924211772450676428e+00
8.400000000000000000e+01,4.965843315197066232e+00
8.500000000000000000e+01,5.006998128266859638e+00
8.600000000000000000e+01,5.047683945328556909e+00
8.700000000000000000e+01,5.087909521056282358e+00
8.800000000000000000e+01,5.127683477702950299e+00
8.900000000000000000e+01,5.167015055664042400e+00
9.000000000000000000e+01,5.205911039593742018e+00
9.100000000000000000e+01,5.244378828615249510e+00
9.200000000000000000e+01,5.282426765511139877e+00
9.300000000000000000e+01,5.320063115441683088e+00
9.400000000000000000e+01,5.357294151773873025e+00
9.500000000000000000e+01,5.394126220522430515e+00
9.600000000000000000e+01,5.430567717274295880e+00
9.700000000000000000e+01,5.466625228630993760e+00
9.800000000000000000e+01,5.502304111960053312e+00
9.900000000000000000e+01,5.537611205717999141e+00
1.000000000000000000e+02,5.572554282365905109e+00
1.010000000000000000e+02,5.607138415427540323e+00
1.020000000000000000e+02,5.641368974551259186e+00
1.030000000000000000e+02,5.675253205458320238e+00
1.040000000000000000e+02,5.708796455091698974e+00
1.050000000000000000e+02,5.742003736651714263e+00
1.060000000000000000e+02,5.774880870896399010e+00
1.070000000000000000e+02,5.807433919480995854e+00
1.080000000000000000e+02,5.839667180387559497e+00
1.090000000000000000e+02,5.871586033756810430e+00
1.100000000000000000e+02,5.903196446603143244e+00
1.110000000000000000e+02,5.934501551434807176e+00
1.120000000000000000e+02,5.965507681391752470e+00
1.130000000000000000e+02,5.996219647674356779e+00
1.140000000000000000e+02,6.026640881183781495e+00
1.150000000000000000e+02,6.056776277160619060e+00
1.160000000000000000e+02,6.086631143456759041e+00
1.170000000000000000e+02,6.116208395730001968e+00
1.180000000000000000e+02,6.145513661865350308e+00
1.190000000000000000e+02,6.174550026584719298e+00
1.200000000000000000e+02,6.203321648108294895e+00
1.210000000000000000e+02,6.231833196407928099e+00
1.220000000000000000e+02,6.260087380918436750e+00
1.230000000000000000e+02,6.288088768368743864e+00
1.240000000000000000e+02,6.315841177303485487e+00
1.250000000000000000e+02,6.343347594567095626e+00
1.260000000000000000e+02,6.370611797439925006e+00
1.270000000000000000e+02,6.397637862663591690e+00
1.280000000000000000e+02,6.424428140550796584e+00
1.290000000000000000e+02,6.450986926889337170e+00
1.300000000000000000e+02,6.477317091535793381e+00
1.310000000000000000e+02,6.503421353921963188e+00
1.320000000000000000e+02,6.529303167763038651e+00
1.330000000000000000e+02,6.554966147553241029e+00
1.340000000000000000e+02,6.580412170363137747e+00
1.350000000000000000e+02,6.605644930077581911e+00
1.360000000000000000e+02,6.630667472535430207e+00
1.370000000000000000e+02,6.655481427331751298e+00
1.380000000000000000e+02,6.680090732786980290e+00
1.390000000000000000e+02,6.704497385151572786e+00
1.400000000000000000e+02,6.728703577388744250e+00
1.410000000000000000e+02,6.752713232496365237e+00
1.420000000000000000e+02,6.776527864270104118e+00
1.430000000000000000e+02,6.800149952421047139e+00
1.440000000000000000e+02,6.823582155137708050e+00
1.450000000000000000e+02,6.846826803853091725e+00
1.460000000000000000e+02,6.869885666459338402e+00
1.470000000000000000e+02,6.892761690919328998e+00
1.480000000000000000e+02,6.915457008450348830e+00
1.490000000000000000e+02,6.937972960407507550e+00
1.500000000000000000e+02,6.960312540084994559e+00
1.510000000000000000e+02,6.982477459134044828e+00
1.520000000000000000e+02,7.004469142573024776e+00
1.530000000000000000e+02,7.026290160452341560e+00
1.540000000000000000e+02,7.047942778795579066e+00
1.550000000000000000e+02,7.069428500724274755e+00
1.560000000000000000e+02,7.090748555285323995e+00
1.570000000000000000e+02,7.111905294300212788e+00
1.580000000000000000e+02,7.132901239052784170e+00
1.590000000000000000e+02,7.153736788273971747e+00
1.600000000000000000e+02,7.174413690963052481e+00
1.610000000000000000e+02,7.194934781606147745e+00
1.620000000000000000e+02,7.215300801799694241e+00
1.630000000000000000e+02,7.235513142297458344e+00
1.640000000000000000e+02,7.255573380278008244e+00
1.650000000000000000e+02,7.275483716646986565e+00
1.660000000000000000e+02,7.295245199693367155e+00
1.670000000000000000e+02,7.314859068921421681e+00
1.680000000000000000e+02,7.334326532393458109e+00
1.690000000000000000e+02,7.353648984108650311e+00
1.700000000000000000e+02,7.372828645295043337e+00
1.710000000000000000e+02,7.391866400857464825e+00
1.720000000000000000e+02,7.410763112642623440e+00
1.730000000000000000e+02,7.429520044180618399e+00
1.740000000000000000e+02,7.448138850667023192e+00
1.750000000000000000e+02,7.466620939477328633e+00
1.760000000000000000e+02,7.484966849612968431e+00
1.770000000000000000e+02,7.503177728422979698e+00
1.780000000000000000e+02,7.521255110017899703e+00
1.790000000000000000e+02,7.539200082379464263e+00
1.800000000000000000e+02,7.557013503036466240e+00
1.810000000000000000e+02,7.574696616598517451e+00
1.820000000000000000e+02,7.592250233535158266e+00
1.830000000000000000e+02,7.609675750997268118e+00
1.840000000000000000e+02,7.626973529676825514e+00
1.850000000000000000e+02,7.644145321227928669e+00
1.860000000000000000e+02,7.661191644544600443e+00
1.870000000000000000e+02,7.678113997360631160e+00
1.880000000000000000e+02,7.694912264812820979e+00
1.890000000000000000e+02,7.711588100823512981e+00
1.900000000000000000e+02,7.728142342080819738e+00
1.910000000000000000e+02,7.744575611113801550e+00
1.920000000000000000e+02,7.760889098255643326e+00
1.930000000000000000e+02,7.777083388596488511e+00
1.940000000000000000e+02,7.793159438322843080e+00
1.950000000000000000e+02,7.809117991282974458e+00
1.960000000000000000e+02,7.824959774559083314e+00
1.970000000000000000e+02,7.840686070101199334e+00
1.980000000000000000e+02,7.856296996831395596e+00
1.990000000000000000e+02,7.871794178470834957e+00
2.000000000000000000e+02,7.887177703314335098e+00
2.010000000000000000e+02,7.902448590970531761e+00
2.020000000000000000e+02,7.917607467340097571e+00
2.030000000000000000e+02,7.932655316298690806e+00
2.040000000000000000e+02,7.947592731707636915e+00
2.050000000000000000e+02,7.962420294059288750e+00
2.060000000000000000e+02,7.977139122629193224e+00
2.070000000000000000e+02,7.991749399393904163e+00
2.080000000000000000e+02,8.006252029729393982e+00
2.090000000000000000e+02,8.020647719565490164e+00
2.100000000000000000e+02,8.034937160353312180e+00
2.110000000000000000e+02,8.049121210066463306e+00
2.120000000000000000e+02,8.063200170156898494e+00
2.130000000000000000e+02,8.077174692413297663e+00
2.140000000000000000e+02,8.091046130575879403e+00
2.150000000000000000e+02,8.104814568209970815e+00
2.160000000000000000e+02,8.118481149156068000e+00
2.170000000000000000e+02,8.132045935630117128e+00
2.180000000000000000e+02,8.145509514115326866e+00
2.190000000000000000e+02,8.158872810878817106e+00
2.200000000000000000e+02,8.172136210100214626e+00
2.210000000000000000e+02,8.185300436294372872e+00
2.220000000000000000e+02,8.198366548906014017e+00
2.230000000000000000e+02,8.211334548200319716e+00
2.240000000000000000e+02,8.224205468807578967e+00
2.250000000000000000e+02,8.236979465771092634e+00
2.260000000000000000e+02,8.249657548229190951e+00
2.270000000000000000e+02,8.262239851593145445e+00
2.280000000000000000e+02,8.274727531449981299e+00
2.290000000000000000e+02,8.287120532416084373e+00
2.300000000000000000e+02,8.299420155439317881e+00
2.310000000000000000e+02,8.311625987766198875e+00
2.320000000000000000e+02,8.324208639331747150e+00
2.330000000000000000e+02,8.336407399749356628e+00
2.340000000000000000e+02,8.348441573944402450e+00
2.350000000000000000e+02,8.360360932075407092e+00
2.360000000000000000e+02,8.372173418784209176e+00
2.370000000000000000e+02,8.383885384555732401e+00
2.380000000000000000e+02,8.395499782462771066e+00
2.390000000000000000e+02,8.407018865871174640e+00
2.400000000000000000e+02,8.418444859147072634e+00
2.410000000000000000e+02,8.429779134762767967e+00
2.420000000000000000e+02,8.441023046464252388e+00
2.430000000000000000e+02,8.452177929724028260e+00
2.440000000000000000e+02,8.463244611885778923e+00
2.450000000000000000e+02,8.474224396988319086e+00
2.460000000000000000e+02,8.485117759036791441e+00
2.470000000000000000e+02,8.495925650154488196e+00
2.480000000000000000e+02,8.506648362230812666e+00
2.490000000000000000e+02,8.517286503474100101e+00
2.500000000000000000e+02,8.527840672586266990e+00
2.510000000000000000e+02,8.538311298378591374e+00
2.520000000000000000e+02,8.548698481722656339e+00
2.530000000000000000e+02,8.559002638716707523e+00
2.540000000000000000e+02,8.569224337501017530e+00
2.550000000000000000e+02,8.579363660351619458e+00
2.560000000000000000e+02,8.589421320086854550e+00
2.570000000000000000e+02,8.599397228066891330e+00
2.580000000000000000e+02,8.609291924890650094e+00
2.590000000000000000e+02,8.619105942897554939e+00
2.600000000000000000e+02,8.628838863008059690e+00
2.610000000000000000e+02,8.638491835292775534e+00
2.620000000000000000e+02,8.648064744148499017e+00
2.630000000000000000e+02,8.657557940281249032e+00
2.640000000000000000e+02,8.666971923924345234e+00
2.650000000000000000e+02,8.676306721248941756e+00
2.660000000000000000e+02,8.685563130845702418e+00
2.670000000000000000e+02,8.694740857420992342e+00
2.680000000000000000e+02,8.703840686625010648e+00
2.690000000000000000e+02,8.712862623381694149e+00
2.700000000000000000e+02,8.721807131073036956e+00
2.710000000000000000e+02,8.730674359001197260e+00
2.720000000000000000e+02,8.739464758652630394e+00
2.730000000000000000e+02,8.748178162939851177e+00
2.740000000000000000e+02,8.756815318920633473e+00
2.750000000000000000e+02,8.765376202878380596e+00
2.760000000000000000e+02,8.773861244384422164e+00
2.770000000000000000e+02,8.782270411295955981e+00
2.780000000000000000e+02,8.790604274579063571e+00
2.790000000000000000e+02,8.798862793014212258e+00
2.800000000000000000e+02,8.807046526316975488e+00
2.810000000000000000e+02,8.815155273799540225e+00
2.820000000000000000e+02,8.823189585049053818e+00
2.830000000000000000e+02,8.831149402237844726e+00
2.840000000000000000e+02,8.839034964588320165e+00
2.850000000000000000e+02,8.846846805725620655e+00
2.860000000000000000e+02,8.854584556688955388e+00
2.870000000000000000e+02,8.862248742355557596e+00
2.880000000000000000e+02,8.869839583391296856e+00
2.890000000000000000e+02,8.877356998888858541e+00
2.900000000000000000e+02,8.884801350364885053e+00
2.910000000000000000e+02,8.892172845886490151e+00
2.920000000000000000e+02,8.899471393566074084e+00
2.930000000000000000e+02,8.906697489385406286e+00
2.940000000000000000e+02,8.913851181170933557e+00
2.950000000000000000e+02,8.920932660577364004e+00
2.960000000000000000e+02,8.927941674507522407e+00
2.970000000000000000e+02,8.934879141543396130e+00
2.980000000000000000e+02,8.941744653965141509e+00
2.990000000000000000e+02,8.948538680727068595e+00
3.000000000000000000e+02,8.955260955174781046e+00
3.010000000000000000e+02,8.961912229557173148e+00
3.020000000000000000e+02,8.968492084460489622e+00
3.030000000000000000e+02,8.975001117276686813e+00
3.040000000000000000e+02,8.981439193441813629e+00
3.050000000000000000e+02,8.987807045719023336e+00
3.060000000000000000e+02,8.994104242179130182e+00
3.070000000000000000e+02,9.000331072958157819e+00
3.080000000000000000e+02,9.006488112316214156e+00
3.090000000000000000e+02,9.012575063823467403e+00
3.100000000000000000e+02,9.018592349399520813e+00
3.110000000000000000e+02,9.024540385856889557e+00
3.120000000000000000e+02,9.030418867250308068e+00
3.130000000000000000e+02,9.036228633282220812e+00
3.140000000000000000e+02,9.041969371091214569e+00
3.150000000000000000e+02,9.047641624598492527e+00
3.160000000000000000e+02,9.053245646560130311e+00
3.170000000000000000e+02,9.058781685712672171e+00
3.180000000000000000e+02,9.064250129301200332e+00
3.190000000000000000e+02,9.069650933050041886e+00
3.200000000000000000e+02,9.074984476586589466e+00
3.210000000000000000e+02,9.080251135041391919e+00
3.220000000000000000e+02,9.085451137305369684e+00
3.230000000000000000e+02,9.090584991858474240e+00
3.240000000000000000e+02,9.095652919255067914e+00
3.250000000000000000e+02,9.100654995108124368e+00
3.260000000000000000e+02,9.105592280389284809e+00
3.270000000000000000e+02,9.110486137976756993e+00
3.280000000000000000e+02,9.115305287415946367e+00
3.290000000000000000e+02,9.120058266294410743e+00
3.300000000000000000e+02,9.124747668781289178e+00
3.310000000000000000e+02,9.129374249999431257e+00
3.320000000000000000e+02,9.133939320846288012e+00
3.330000000000000000e+02,9.138443483789107091e+00
3.340000000000000000e+02,9.142887336654629493e+00
3.350000000000000000e+02,9.147271472722211527e+00
3.360000000000000000e+02,9.151596341044470506e+00
3.370000000000000000e+02,9.155863085030002679e+00
3.380000000000000000e+02,9.160071446623366143e+00
3.390000000000000000e+02,9.164222142343218636e+00
3.400000000000000000e+02,9.168315187760526896e+00
3.410000000000000000e+02,9.172351013774248329e+00
3.420000000000000000e+02,9.176329769717339602e+00
3.430000000000000000e+02,9.180251324606576446e+00
3.440000000000000000e+02,9.184115962247865639e+00
3.450000000000000000e+02,9.187924240829755007e+00
3.460000000000000000e+02,9.191676021953002262e+00
3.470000000000000000e+02,9.195372134807479725e+00
3.480000000000000000e+02,9.199012988989355932e+00
3.490000000000000000e+02,9.202598576228798066e+00
3.500000000000000000e+02,9.206129853232246418e+00
3.510000000000000000e+02,9.209607357882186207e+00
3.520000000000000000e+02,9.213031624637224581e+00
3.530000000000000000e+02,9.216403460225659927e+00
3.540000000000000000e+02,9.219723529583916388e+00
3.550000000000000000e+02,9.222992218829581645e+00
3.560000000000000000e+02,9.226210736455263017e+00
3.570000000000000000e+02,9.229379461449422450e+00
3.580000000000000000e+02,9.232499456872551136e+00
3.590000000000000000e+02,9.235571369696398136e+00
3.600000000000000000e+02,9.238595569422511034e+00
3.610000000000000000e+02,9.241573382598774700e+00
3.620000000000000000e+02,9.244505446116638936e+00
3.630000000000000000e+02,9.247392393939286137e+00
3.640000000000000000e+02,9.250234993975364972e+00
3.650000000000000000e+02,9.253034284454846770e+00
3.660000000000000000e+02,9.255790753344923516e+00
3.670000000000000000e+02,9.258505432546165537e+00
3.680000000000000000e+02,9.261178804504956119e+00
3.690000000000000000e+02,9.263811895103033933e+00
3.700000000000000000e+02,9.266405181548625691e+00
3.710000000000000000e+02,9.268959820254449866e+00
3.720000000000000000e+02,9.271476283238236249e+00
3.730000000000000000e+02,9.273955312791089867e+00
3.740000000000000000e+02,9.276397648732624290e+00
3.750000000000000000e+02,9.278804436367842357e+00
3.760000000000000000e+02,9.281175866556816700e+00
3.770000000000000000e+02,9.283512808120443438e+00
3.780000000000000000e+02,9.285816263135854953e+00
3.790000000000000000e+02,9.288086688208039732e+00
3.800000000000000000e+02,9.290324809617946045e+00
3.810000000000000000e+02,9.292531487150016645e+00
3.820000000000000000e+02,9.294707442828716637e+00
3.830000000000000000e+02,9.296853125855056632e+00
3.840000000000000000e+02,9.298969390150242376e+00
3.850000000000000000e+02,9.301056952216711693e+00
3.860000000000000000e+02,9.303116256239258419e+00
3.870000000000000000e+02,9.305148285896231997e+00
3.880000000000000000e+02,9.307153346986051901e+00
3.890000000000000000e+02,9.309132554803658977e+00
3.900000000000000000e+02,9.311086347202675029e+00
3.910000000000000000e+02,9.313015025927565915e+00
3.920000000000000000e+02,9.315002131935267826e+00
3.930000000000000000e+02,9.316922986681872132e+00
3.940000000000000000e+02,9.318811371927575138e+00
3.950000000000000000e+02,9.320675681212778230e+00
3.960000000000000000e+02,9.322517424884559034e+00
3.970000000000000000e+02,9.324337841292786422e+00
3.980000000000000000e+02,9.326137493620784369e+00
