# Time [s], Temperature [C]
1.000000000000000000e+00,2.499997099999999861e+01
2.000000000000000000e+00,4.608254999999999768e+01
3.000000000000000000e+00,5.813422400000000323e+01
4.000000000000000000e+00,6.786994900000000541e+01
5.000000000000000000e+00,7.600972699999999804e+01
6.000000000000000000e+00,8.315010800000000302e+01
7.000000000000000000e+00,8.954557800000000611e+01
8.000000000000000000e+00,9.537303900000000567e+01
9.000000000000000000e+00,1.007441599999999937e+02
1.000000000000000000e+01,1.057399499999999932e+02
1.100000000000000000e+01,1.104201900000000052e+02
1.200000000000000000e+01,1.148287899999999979e+02
1.300000000000000000e+01,1.190019300000000015e+02
1.400000000000000000e+01,1.229676699999999983e+02
1.500000000000000000e+01,1.267487899999999996e+02
1.600000000000000000e+01,1.303644400000000019e+02
1.700000000000000000e+01,1.338309500000000014e+02
1.800000000000000000e+01,1.371612399999999923e+02
1.900000000000000000e+01,1.403674200000000098e+02
2.000000000000000000e+01,1.434600700000000018e+02
2.100000000000000000e+01,1.464472000000000094e+02
2.200000000000000000e+01,1.493360099999999875e+02
2.300000000000000000e+01,1.521349600000000066e+02
2.400000000000000000e+01,1.548486800000000017e+02
2.500000000000000000e+01,1.574828300000000070e+02
2.600000000000000000e+01,1.600428899999999999e+02
2.700000000000000000e+01,1.625326799999999992e+02
2.800000000000000000e+01,1.649560899999999890e+02
2.900000000000000000e+01,1.673179000000000087e+02
3.000000000000000000e+01,1.696201299999999890e+02
3.100000000000000000e+01,1.718663500000000113e+02
3.200000000000000000e+01,1.740591100000000040e+02
3.300000000000000000e+01,1.762006499999999960e+02
3.400000000000000000e+01,1.782943300000000022e+02
3.500000000000000000e+01,1.803419499999999971e+02
3.600000000000000000e+01,1.823449599999999862e+02
3.700000000000000000e+01,1.843060600000000022e+02
3.800000000000000000e+01,1.862270499999999913e+02
3.900000000000000000e+01,1.881091900000000123e+02
4.000000000000000000e+01,1.899536300000000040e+02
4.100000000000000000e+01,1.917627999999999986e+02
4.200000000000000000e+01,1.935375999999999976e+02
4.300000000000000000e+01,1.952791300000000092e+02
4.400000000000000000e+01,1.969892299999999921e+02
4.500000000000000000e+01,1.986684099999999944e+02
4.600000000000000000e+01,2.003179900000000089e+02
4.700000000000000000e+01,2.019396999999999878e+02
4.800000000000000000e+01,2.035339099999999917e+02
4.900000000000000000e+01,2.051016400000000033e+02
5.000000000000000000e+01,2.066442299999999932e+02
5.100000000000000000e+01,2.081617899999999963e+02
5.200000000000000000e+01,2.096554700000000082e+02
5.300000000000000000e+01,2.111265999999999963e+02
5.400000000000000000e+01,2.125755800000000022e+02
5.500000000000000000e+01,2.140026900000000012e+02
5.600000000000000000e+01,2.154098799999999869e+02
5.700000000000000000e+01,2.167969500000000096e+02
5.800000000000000000e+01,2.181642500000000098e+02
5.900000000000000000e+01,2.195137499999999875e+02
6.000000000000000000e+01,2.208447400000000016e+02
6.100000000000000000e+01,2.221582600000000127e+02
6.200000000000000000e+01,2.234551999999999907e+02
6.300000000000000000e+01,2.247358700000000056e+02
6.400000000000000000e+01,2.260000799999999970e+02
6.500000000000000000e+01,2.272500000000000000e+02
6.600000000000000000e+01,2.284849100000000135e+02
6.700000000000000000e+01,2.297055200000000070e+02
6.800000000000000000e+01,2.309125500000000102e+02
6.900000000000000000e+01,2.321054100000000062e+02
7.000000000000000000e+01,2.332853200000000129e+02
7.100000000000000000e+01,2.344528799999999933e+02
7.200000000000000000e+01,2.356077400000000068e+02
7.300000000000000000e+01,2.367503499999999974e+02
7.400000000000000000e+01,2.378813499999999976e+02
7.500000000000000000e+01,2.390003399999999942e+02
7.600000000000000000e+01,2.401081200000000138e+02
7.700000000000000000e+01,2.412048800000000028e+02
7.800000000000000000e+01,2.422899299999999982e+02
7.900000000000000000e+01,2.433639400000000137e+02
8.000000000000000000e+01,2.444274299999999869e+02
8.100000000000000000e+01,2.454806100000000129e+02
8.200000000000000000e+01,2.465225399999999922e+02
8.300000000000000000e+01,2.475544399999999996e+02
8.400000000000000000e+01,2.485764499999999941e+02
8.500000000000000000e+01,2.495874799999999993e+02
8.600000000000000000e+01,2.505889099999999985e+02
8.700000000000000000e+01,2.515801999999999907e+02
8.800000000000000000e+01,2.525616499999999860e+02
8.900000000000000000e+01,2.535336200000000133e+02
9.000000000000000000e+01,2.544958499999999901e+02
9.100000000000000000e+01,2.554485200000000020e+02
9.200000000000000000e+01,2.563921799999999962e+02
9.300000000000000000e+01,2.573267799999999852e+02
9.400000000000000000e+01,2.582516200000000026e+02
9.500000000000000000e+01,2.591686399999999821e+02
9.600000000000000000e+01,2.600767799999999852e+02
9.700000000000000000e+01,2.609757399999999734e+02
9.800000000000000000e+01,2.618673699999999940e+02
9.900000000000000000e+01,2.627504900000000134e+02
1.000000000000000000e+02,2.636251500000000192e+02
1.010000000000000000e+02,2.644922500000000127e+02
1.020000000000000000e+02,2.653516500000000065e+02
1.030000000000000000e+02,2.662031200000000126e+02
1.040000000000000000e+02,2.670476699999999823e+02
1.050000000000000000e+02,2.678846700000000283e+02
1.060000000000000000e+02,2.687145399999999995e+02
1.070000000000000000e+02,2.695373200000000224e+02
1.080000000000000000e+02,2.703528400000000147e+02
1.090000000000000000e+02,2.711617699999999900e+02
1.100000000000000000e+02,2.719643899999999803e+02
1.110000000000000000e+02,2.727601000000000226e+02
1.120000000000000000e+02,2.735493200000000229e+02
1.130000000000000000e+02,2.743325500000000261e+02
1.140000000000000000e+02,2.751092199999999934e+02
1.150000000000000000e+02,2.758794599999999946e+02
1.160000000000000000e+02,2.766438600000000179e+02
1.170000000000000000e+02,2.774016700000000242e+02
1.180000000000000000e+02,2.781538699999999835e+02
1.190000000000000000e+02,2.789002399999999966e+02
1.200000000000000000e+02,2.796404999999999745e+02
1.210000000000000000e+02,2.803747900000000186e+02
1.220000000000000000e+02,2.811035499999999843e+02
1.230000000000000000e+02,2.818266899999999850e+02
1.240000000000000000e+02,2.825437600000000202e+02
1.250000000000000000e+02,2.832558300000000031e+02
1.260000000000000000e+02,2.839616399999999885e+02
1.270000000000000000e+02,2.846618000000000279e+02
1.280000000000000000e+02,2.853567499999999768e+02
1.290000000000000000e+02,2.860460499999999797e+02
1.300000000000000000e+02,2.867293999999999983e+02
1.310000000000000000e+02,2.874076200000000085e+02
1.320000000000000000e+02,2.880803199999999720e+02
1.330000000000000000e+02,2.887474399999999832e+02
1.340000000000000000e+02,2.894091199999999731e+02
1.350000000000000000e+02,2.900649999999999977e+02
1.360000000000000000e+02,2.907155799999999886e+02
1.370000000000000000e+02,2.913611799999999903e+02
1.380000000000000000e+02,2.920006999999999948e+02
1.390000000000000000e+02,2.926347999999999843e+02
1.400000000000000000e+02,2.932635799999999904e+02
1.410000000000000000e+02,2.938870800000000258e+02
1.420000000000000000e+02,2.945044300000000135e+02
1.430000000000000000e+02,2.951168799999999806e+02
1.440000000000000000e+02,2.957239999999999895e+02
1.450000000000000000e+02,2.963248899999999821e+02
1.460000000000000000e+02,2.969210499999999797e+02
1.470000000000000000e+02,2.975112899999999740e+02
1.480000000000000000e+02,2.980960400000000163e+02
1.490000000000000000e+02,2.986754799999999932e+02
1.500000000000000000e+02,2.992495099999999866e+02
1.510000000000000000e+02,2.998175400000000081e+02
1.520000000000000000e+02,3.003807100000000219e+02
1.530000000000000000e+02,3.009380199999999945e+02
1.540000000000000000e+02,3.014892899999999827e+02
1.550000000000000000e+02,3.020363800000000083e+02
1.560000000000000000e+02,3.025771500000000174e+02
1.570000000000000000e+02,3.031122700000000236e+02
1.580000000000000000e+02,3.036426700000000096e+02
1.590000000000000000e+02,3.041670799999999986e+02
1.600000000000000000e+02,3.046862499999999727e+02
1.610000000000000000e+02,3.052003199999999765e+02
1.620000000000000000e+02,3.057085599999999772e+02
1.630000000000000000e+02,3.062108499999999935e+02
1.640000000000000000e+02,3.067090799999999717e+02
1.650000000000000000e+02,3.072009899999999902e+02
1.660000000000000000e+02,3.076877400000000193e+02
1.670000000000000000e+02,3.081697700000000282e+02
1.680000000000000000e+02,3.086458999999999833e+02
1.690000000000000000e+02,3.091168799999999806e+02
1.700000000000000000e+02,3.095836199999999963e+02
1.710000000000000000e+02,3.100442199999999957e+02
1.720000000000000000e+02,3.104995400000000245e+02
1.730000000000000000e+02,3.109510799999999904e+02
1.740000000000000000e+02,3.113969099999999912e+02
1.750000000000000000e+02,3.118372200000000021e+02
1.760000000000000000e+02,3.122738600000000133e+02
1.770000000000000000e+02,3.127049000000000092e+02
1.780000000000000000e+02,3.131309200000000033e+02
1.790000000000000000e+02,3.135530099999999720e+02
1.800000000000000000e+02,3.139697899999999890e+02
1.810000000000000000e+02,3.143817399999999793e+02
1.820000000000000000e+02,3.147903099999999768e+02
1.830000000000000000e+02,3.151934499999999844e+02
1.840000000000000000e+02,3.155919499999999971e+02
1.850000000000000000e+02,3.159870900000000233e+02
1.860000000000000000e+02,3.163772000000000162e+02
1.870000000000000000e+02,3.167628199999999765e+02
1.880000000000000000e+02,3.171455700000000206e+02
1.890000000000000000e+02,3.175232500000000186e+02
1.900000000000000000e+02,3.178967299999999909e+02
1.910000000000000000e+02,3.182675800000000095e+02
1.920000000000000000e+02,3.186333900000000199e+02
1.930000000000000000e+02,3.189951800000000048e+02
1.940000000000000000e+02,3.193546400000000176e+02
1.950000000000000000e+02,3.197093499999999722e+02
1.960000000000000000e+02,3.200602700000000027e+02
1.970000000000000000e+02,3.204090899999999920e+02
1.980000000000000000e+02,3.207534200000000055e+02
1.990000000000000000e+02,3.210938400000000001e+02
2.000000000000000000e+02,3.214327099999999859e+02
2.010000000000000000e+02,3.217669999999999959e+02
2.020000000000000000e+02,3.220979600000000005e+02
2.030000000000000000e+02,3.224275200000000154e+02
2.040000000000000000e+02,3.227529299999999921e+02
2.050000000000000000e+02,3.230747700000000009e+02
2.060000000000000000e+02,3.233955700000000206e+02
2.070000000000000000e+02,3.237120699999999829e+02
2.080000000000000000e+02,3.240256299999999783e+02
2.090000000000000000e+02,3.243385599999999727e+02
2.100000000000000000e+02,3.246469700000000103e+02
2.110000000000000000e+02,3.249530899999999747e+02
2.120000000000000000e+02,3.252581799999999816e+02
2.130000000000000000e+02,3.255592700000000264e+02
2.140000000000000000e+02,3.258579700000000230e+02
2.150000000000000000e+02,3.261559399999999869e+02
2.160000000000000000e+02,3.264501599999999826e+02
2.170000000000000000e+02,3.267421600000000126e+02
2.180000000000000000e+02,3.270339700000000107e+02
2.190000000000000000e+02,3.273218100000000277e+02
2.200000000000000000e+02,3.276073299999999904e+02
2.210000000000000000e+02,3.278931600000000230e+02
2.220000000000000000e+02,3.281748699999999985e+02
2.230000000000000000e+02,3.284549299999999903e+02
2.240000000000000000e+02,3.287352000000000203e+02
2.250000000000000000e+02,3.290115099999999870e+02
2.260000000000000000e+02,3.292859500000000139e+02
2.270000000000000000e+02,3.295610399999999913e+02
2.280000000000000000e+02,3.298324000000000069e+02
2.290000000000000000e+02,3.301017800000000193e+02
2.300000000000000000e+02,3.303720999999999890e+02
2.310000000000000000e+02,3.306383700000000090e+02
2.320000000000000000e+02,3.309035000000000082e+02
2.330000000000000000e+02,3.311694600000000150e+02
2.340000000000000000e+02,3.314313700000000154e+02
2.350000000000000000e+02,3.316918000000000006e+02
2.360000000000000000e+02,3.319538299999999822e+02
2.370000000000000000e+02,3.322115200000000073e+02
2.380000000000000000e+02,3.324680200000000241e+02
2.390000000000000000e+02,3.327262600000000248e+02
2.400000000000000000e+02,3.329801299999999742e+02
2.410000000000000000e+02,3.332328200000000038e+02
2.420000000000000000e+02,3.334870000000000232e+02
2.430000000000000000e+02,3.337376399999999990e+02
2.440000000000000000e+02,3.339870900000000233e+02
2.450000000000000000e+02,3.342373999999999796e+02
2.460000000000000000e+02,3.344847700000000259e+02
2.470000000000000000e+02,3.347307400000000257e+02
2.480000000000000000e+02,3.349779700000000275e+02
2.490000000000000000e+02,3.352222600000000057e+02
2.500000000000000000e+02,3.354651499999999942e+02
2.510000000000000000e+02,3.357092299999999909e+02
2.520000000000000000e+02,3.359504099999999767e+02
2.530000000000000000e+02,3.361901899999999728e+02
2.540000000000000000e+02,3.364316400000000158e+02
2.550000000000000000e+02,3.366698600000000283e+02
2.560000000000000000e+02,3.369068899999999758e+02
2.570000000000000000e+02,3.371460000000000150e+02
2.580000000000000000e+02,3.373811999999999784e+02
2.590000000000000000e+02,3.376157799999999725e+02
2.600000000000000000e+02,3.378516799999999876e+02
2.610000000000000000e+02,3.380845899999999915e+02
2.620000000000000000e+02,3.383164100000000190e+02
2.630000000000000000e+02,3.385498400000000174e+02
2.640000000000000000e+02,3.387807300000000055e+02
2.650000000000000000e+02,3.390094599999999900e+02
2.660000000000000000e+02,3.392411799999999857e+02
2.670000000000000000e+02,3.394688699999999812e+02
2.680000000000000000e+02,3.396956200000000194e+02
2.690000000000000000e+02,3.399248999999999796e+02
2.700000000000000000e+02,3.401503299999999967e+02
2.710000000000000000e+02,3.403750900000000001e+02
2.720000000000000000e+02,3.406018700000000194e+02
2.730000000000000000e+02,3.408253199999999765e+02
2.740000000000000000e+02,3.410470900000000256e+02
2.750000000000000000e+02,3.412721300000000042e+02
2.760000000000000000e+02,3.414932900000000018e+02
2.770000000000000000e+02,3.417133799999999724e+02
2.780000000000000000e+02,3.419361900000000105e+02
2.790000000000000000e+02,3.421546000000000163e+02
2.800000000000000000e+02,3.423733799999999974e+02
2.810000000000000000e+02,3.425932599999999866e+02
2.820000000000000000e+02,3.428108500000000163e+02
2.830000000000000000e+02,3.430262500000000045e+02
2.840000000000000000e+02,3.432451199999999858e+02
2.850000000000000000e+02,3.434596900000000232e+02
2.860000000000000000e+02,3.436740399999999909e+02
2.870000000000000000e+02,3.438903500000000122e+02
2.880000000000000000e+02,3.441030000000000086e+02
2.890000000000000000e+02,3.443153699999999731e+02
2.900000000000000000e+02,3.445298500000000104e+02
2.910000000000000000e+02,3.447408399999999915e+02
2.920000000000000000e+02,3.449510200000000282e+02
2.930000000000000000e+02,3.451639099999999871e+02
2.940000000000000000e+02,3.453727400000000216e+02
2.950000000000000000e+02,3.455814500000000180e+02
2.960000000000000000e+02,3.457913800000000037e+02
2.970000000000000000e+02,3.459993600000000242e+02
2.980000000000000000e+02,3.462051099999999906e+02
2.990000000000000000e+02,3.464147899999999822e+02
3.000000000000000000e+02,3.466192899999999781e+02
3.010000000000000000e+02,3.468248600000000010e+02
3.020000000000000000e+02,3.470144300000000044e+02
3.030000000000000000e+02,3.451205400000000054e+02
3.040000000000000000e+02,3.452796299999999974e+02
3.050000000000000000e+02,3.452080399999999827e+02
3.060000000000000000e+02,3.453455200000000218e+02
3.070000000000000000e+02,3.454692099999999755e+02
3.080000000000000000e+02,3.456378799999999956e+02
3.090000000000000000e+02,3.458098400000000083e+02
3.100000000000000000e+02,3.459935899999999833e+02
3.110000000000000000e+02,3.461846300000000269e+02
3.120000000000000000e+02,3.463781700000000114e+02
3.130000000000000000e+02,3.465732699999999795e+02
3.140000000000000000e+02,3.467737399999999752e+02
3.150000000000000000e+02,3.469728400000000192e+02
3.160000000000000000e+02,3.471728499999999826e+02
3.170000000000000000e+02,3.473757899999999950e+02
3.180000000000000000e+02,3.475769000000000233e+02
3.190000000000000000e+02,3.477776499999999942e+02
3.200000000000000000e+02,3.479812900000000013e+02
3.210000000000000000e+02,3.481821600000000103e+02
3.220000000000000000e+02,3.483828100000000063e+02
3.230000000000000000e+02,3.485854800000000182e+02
3.240000000000000000e+02,3.487857700000000136e+02
3.250000000000000000e+02,3.489849500000000262e+02
3.260000000000000000e+02,3.491867700000000241e+02
3.270000000000000000e+02,3.493850100000000225e+02
3.280000000000000000e+02,3.495835900000000152e+02
3.290000000000000000e+02,3.497831699999999842e+02
3.300000000000000000e+02,3.499810800000000199e+02
3.310000000000000000e+02,3.501769699999999830e+02
3.320000000000000000e+02,3.503761299999999892e+02
3.330000000000000000e+02,3.505711999999999762e+02
3.340000000000000000e+02,3.507665400000000204e+02
3.350000000000000000e+02,3.509628299999999967e+02
3.360000000000000000e+02,3.511574100000000271e+02
3.370000000000000000e+02,3.513499100000000226e+02
3.380000000000000000e+02,3.515457499999999982e+02
3.390000000000000000e+02,3.517373400000000174e+02
3.400000000000000000e+02,3.519294399999999996e+02
3.410000000000000000e+02,3.521222200000000271e+02
3.420000000000000000e+02,3.523134200000000078e+02
3.430000000000000000e+02,3.525024399999999787e+02
3.440000000000000000e+02,3.526943099999999731e+02
3.450000000000000000e+02,3.528827200000000062e+02
3.460000000000000000e+02,3.530709200000000010e+02
3.470000000000000000e+02,3.532605899999999792e+02
3.480000000000000000e+02,3.534478500000000167e+02
3.490000000000000000e+02,3.536343699999999899e+02
3.500000000000000000e+02,3.538219900000000280e+02
3.510000000000000000e+02,3.540079999999999814e+02
3.520000000000000000e+02,3.541919300000000135e+02
3.530000000000000000e+02,3.543791200000000003e+02
3.540000000000000000e+02,3.545620700000000056e+02
3.550000000000000000e+02,3.547457600000000184e+02
3.560000000000000000e+02,3.549297799999999938e+02
3.570000000000000000e+02,3.551125799999999799e+02
3.580000000000000000e+02,3.552931199999999876e+02
3.590000000000000000e+02,3.554769900000000007e+02
3.600000000000000000e+02,3.556565600000000131e+02
3.610000000000000000e+02,3.558370100000000207e+02
3.620000000000000000e+02,3.560181000000000040e+02
3.630000000000000000e+02,3.561967799999999897e+02
3.640000000000000000e+02,3.563754900000000134e+02
3.650000000000000000e+02,3.565546299999999746e+02
3.660000000000000000e+02,3.567325700000000097e+02
3.670000000000000000e+02,3.569082900000000222e+02
3.680000000000000000e+02,3.570873399999999833e+02
3.690000000000000000e+02,3.572621800000000007e+02
3.700000000000000000e+02,3.574379900000000134e+02
3.710000000000000000e+02,3.576143200000000206e+02
3.720000000000000000e+02,3.577883600000000115e+02
3.730000000000000000e+02,3.579927999999999884e+02
3.740000000000000000e+02,3.572499700000000189e+02
3.750000000000000000e+02,3.574227000000000203e+02
3.760000000000000000e+02,3.574691500000000133e+02
3.770000000000000000e+02,3.576194800000000100e+02
3.780000000000000000e+02,3.577526899999999728e+02
3.790000000000000000e+02,3.579082000000000221e+02
3.800000000000000000e+02,3.580655199999999923e+02
3.810000000000000000e+02,3.582270199999999818e+02
3.820000000000000000e+02,3.583896500000000174e+02
3.830000000000000000e+02,3.585563700000000154e+02
3.840000000000000000e+02,3.587224100000000249e+02
3.850000000000000000e+02,3.588887300000000096e+02
3.860000000000000000e+02,3.590578600000000051e+02
3.870000000000000000e+02,3.592255900000000111e+02
3.880000000000000000e+02,3.593928799999999910e+02
3.890000000000000000e+02,3.595624099999999999e+02
3.900000000000000000e+02,3.597297399999999925e+02
3.910000000000000000e+02,3.598971599999999853e+02
3.920000000000000000e+02,3.600662800000000061e+02
3.930000000000000000e+02,3.602327599999999848e+02
3.940000000000000000e+02,3.603999600000000214e+02
3.950000000000000000e+02,3.605673199999999952e+02
3.960000000000000000e+02,3.607341599999999744e+02
3.970000000000000000e+02,3.608989599999999882e+02
3.980000000000000000e+02,3.610668000000000006e+02
3.990000000000000000e+02,3.612320900000000279e+02
