# Time [s], Temperature [C]
1.000000000000000000e+00,2.499996900000000011e+01
2.000000000000000000e+00,8.155554200000000264e+01
3.000000000000000000e+00,1.127280599999999993e+02
4.000000000000000000e+00,1.376920200000000136e+02
5.000000000000000000e+00,1.582827599999999961e+02
6.000000000000000000e+00,1.761564500000000066e+02
7.000000000000000000e+00,1.919949799999999982e+02
8.000000000000000000e+00,2.062768900000000087e+02
9.000000000000000000e+00,2.193079199999999958e+02
1.000000000000000000e+01,2.313077700000000050e+02
1.100000000000000000e+01,2.424445499999999925e+02
1.200000000000000000e+01,2.528477800000000002e+02
1.300000000000000000e+01,2.626247900000000186e+02
1.400000000000000000e+01,2.718623000000000047e+02
1.500000000000000000e+01,2.806183199999999829e+02
1.600000000000000000e+01,2.889086599999999976e+02
1.700000000000000000e+01,2.967420000000000186e+02
1.800000000000000000e+01,3.041114799999999718e+02
1.900000000000000000e+01,3.110269499999999994e+02
2.000000000000000000e+01,3.175013999999999896e+02
2.100000000000000000e+01,3.235329899999999839e+02
2.200000000000000000e+01,3.291297000000000139e+02
2.300000000000000000e+01,3.342882399999999734e+02
2.400000000000000000e+01,3.390072000000000116e+02
2.500000000000000000e+01,3.432920500000000175e+02
2.600000000000000000e+01,3.471646999999999821e+02
2.700000000000000000e+01,3.506523099999999999e+02
2.800000000000000000e+01,3.537949199999999905e+02
2.900000000000000000e+01,3.566444999999999936e+02
3.000000000000000000e+01,3.592449599999999919e+02
3.100000000000000000e+01,3.616442000000000121e+02
3.200000000000000000e+01,3.638895299999999793e+02
3.300000000000000000e+01,3.660118699999999876e+02
3.400000000000000000e+01,3.680453800000000228e+02
3.500000000000000000e+01,3.700152299999999741e+02
3.600000000000000000e+01,3.719388999999999896e+02
3.700000000000000000e+01,3.738337700000000154e+02
3.800000000000000000e+01,3.757135299999999916e+02
3.900000000000000000e+01,3.775859100000000126e+02
4.000000000000000000e+01,3.794569099999999935e+02
4.100000000000000000e+01,3.813367900000000077e+02
4.200000000000000000e+01,3.832219499999999925e+02
4.300000000000000000e+01,3.851180400000000077e+02
4.400000000000000000e+01,3.870236499999999751e+02
4.500000000000000000e+01,3.889379000000000133e+02
4.600000000000000000e+01,3.908542499999999791e+02
4.700000000000000000e+01,3.927708099999999831e+02
4.800000000000000000e+01,3.946864899999999921e+02
4.900000000000000000e+01,3.965934399999999869e+02
5.000000000000000000e+01,3.984835800000000177e+02
5.100000000000000000e+01,4.003559000000000196e+02
5.200000000000000000e+01,4.022067900000000122e+02
5.300000000000000000e+01,4.040246900000000210e+02
5.400000000000000000e+01,4.058174099999999953e+02
5.500000000000000000e+01,4.075749799999999823e+02
5.600000000000000000e+01,4.093060300000000211e+02
5.700000000000000000e+01,4.110052800000000275e+02
5.800000000000000000e+01,4.126795999999999935e+02
5.900000000000000000e+01,4.143288299999999822e+02
6.000000000000000000e+01,4.159612099999999941e+02
6.100000000000000000e+01,4.175738799999999742e+02
6.200000000000000000e+01,4.191775799999999776e+02
6.300000000000000000e+01,4.207656900000000064e+02
6.400000000000000000e+01,4.223510099999999738e+02
6.500000000000000000e+01,4.239255400000000122e+02
6.600000000000000000e+01,4.254954500000000053e+02
6.700000000000000000e+01,4.270543200000000184e+02
6.800000000000000000e+01,4.286094400000000064e+02
6.900000000000000000e+01,4.301484699999999748e+02
7.000000000000000000e+01,4.316798699999999940e+02
7.100000000000000000e+01,4.331946699999999737e+02
7.200000000000000000e+01,4.346970499999999902e+02
7.300000000000000000e+01,4.371555799999999863e+02
7.400000000000000000e+01,4.241377899999999954e+02
7.500000000000000000e+01,4.285936300000000188e+02
7.600000000000000000e+01,4.288538199999999847e+02
7.700000000000000000e+01,4.311685200000000009e+02
7.800000000000000000e+01,4.324566300000000183e+02
7.900000000000000000e+01,4.343084999999999809e+02
8.000000000000000000e+01,4.357964799999999741e+02
8.100000000000000000e+01,4.374667999999999779e+02
8.200000000000000000e+01,4.389855299999999829e+02
8.300000000000000000e+01,4.405668000000000006e+02
8.400000000000000000e+01,4.420748300000000199e+02
8.500000000000000000e+01,4.435967099999999732e+02
8.600000000000000000e+01,4.450793499999999767e+02
8.700000000000000000e+01,4.465540799999999990e+02
8.800000000000000000e+01,4.480019500000000221e+02
8.900000000000000000e+01,4.494350900000000024e+02
9.000000000000000000e+01,4.508429899999999861e+02
9.100000000000000000e+01,4.522339799999999741e+02
9.200000000000000000e+01,4.536002199999999789e+02
9.300000000000000000e+01,4.549527899999999931e+02
9.400000000000000000e+01,4.562869600000000219e+02
9.500000000000000000e+01,4.576044600000000173e+02
9.600000000000000000e+01,4.589071000000000140e+02
9.700000000000000000e+01,4.601957699999999818e+02
9.800000000000000000e+01,4.614728400000000192e+02
9.900000000000000000e+01,4.627414600000000178e+02
1.000000000000000000e+02,4.639971899999999891e+02
1.010000000000000000e+02,4.652453300000000240e+02
1.020000000000000000e+02,4.664837999999999738e+02
1.030000000000000000e+02,4.677094099999999912e+02
1.040000000000000000e+02,4.689307900000000018e+02
1.050000000000000000e+02,4.701376300000000015e+02
1.060000000000000000e+02,4.713361199999999940e+02
1.070000000000000000e+02,4.725229199999999992e+02
1.080000000000000000e+02,4.736993100000000254e+02
1.090000000000000000e+02,4.748630699999999933e+02
1.100000000000000000e+02,4.760194399999999746e+02
1.110000000000000000e+02,4.771625999999999976e+02
1.120000000000000000e+02,4.782951699999999846e+02
1.130000000000000000e+02,4.794196499999999901e+02
1.140000000000000000e+02,4.793360900000000129e+02
1.150000000000000000e+02,4.797562899999999786e+02
1.160000000000000000e+02,4.800875500000000216e+02
1.170000000000000000e+02,4.810115999999999872e+02
1.180000000000000000e+02,4.819720800000000054e+02
1.190000000000000000e+02,4.830732100000000173e+02
1.200000000000000000e+02,4.841871300000000247e+02
1.210000000000000000e+02,4.853321199999999749e+02
1.220000000000000000e+02,4.864733600000000138e+02
1.230000000000000000e+02,4.876142899999999827e+02
1.240000000000000000e+02,4.887417300000000182e+02
1.250000000000000000e+02,4.898625799999999799e+02
1.260000000000000000e+02,4.909678999999999860e+02
1.270000000000000000e+02,4.920590199999999754e+02
1.280000000000000000e+02,4.931408700000000067e+02
1.290000000000000000e+02,4.942058700000000044e+02
1.300000000000000000e+02,4.952598600000000033e+02
1.310000000000000000e+02,4.963039200000000051e+02
1.320000000000000000e+02,4.973335000000000150e+02
1.330000000000000000e+02,4.983534200000000283e+02
1.340000000000000000e+02,4.993653600000000097e+02
1.350000000000000000e+02,5.003653299999999717e+02
1.360000000000000000e+02,5.013573000000000093e+02
1.370000000000000000e+02,5.023392900000000054e+02
1.380000000000000000e+02,5.033146100000000160e+02
1.390000000000000000e+02,5.042782900000000268e+02
1.400000000000000000e+02,5.052375499999999988e+02
1.410000000000000000e+02,5.061855199999999968e+02
1.420000000000000000e+02,5.071292100000000005e+02
1.430000000000000000e+02,5.080637500000000273e+02
1.440000000000000000e+02,5.089877299999999991e+02
1.450000000000000000e+02,5.099054300000000239e+02
1.460000000000000000e+02,5.108183300000000031e+02
1.470000000000000000e+02,5.117200000000000273e+02
1.480000000000000000e+02,5.126165200000000368e+02
1.490000000000000000e+02,5.135080000000000382e+02
1.500000000000000000e+02,5.143903199999999742e+02
1.510000000000000000e+02,5.152647699999999986e+02
1.520000000000000000e+02,5.157620200000000068e+02
1.530000000000000000e+02,5.162549400000000333e+02
1.540000000000000000e+02,5.169370699999999488e+02
1.550000000000000000e+02,5.174915799999999990e+02
1.560000000000000000e+02,5.182224700000000439e+02
1.570000000000000000e+02,5.189548999999999523e+02
1.580000000000000000e+02,5.197513400000000274e+02
1.590000000000000000e+02,5.205601799999999457e+02
1.600000000000000000e+02,5.213881800000000339e+02
1.610000000000000000e+02,5.222249799999999595e+02
1.620000000000000000e+02,5.230654899999999543e+02
1.630000000000000000e+02,5.239034400000000460e+02
1.640000000000000000e+02,5.247444500000000289e+02
1.650000000000000000e+02,5.255780600000000504e+02
1.660000000000000000e+02,5.264091799999999921e+02
1.670000000000000000e+02,5.272341300000000501e+02
1.680000000000000000e+02,5.280533400000000483e+02
1.690000000000000000e+02,5.288645000000000209e+02
1.700000000000000000e+02,5.296716300000000501e+02
1.710000000000000000e+02,5.304692400000000134e+02
1.720000000000000000e+02,5.312616600000000062e+02
1.730000000000000000e+02,5.320477899999999636e+02
1.740000000000000000e+02,5.328249499999999443e+02
1.750000000000000000e+02,5.335964999999999918e+02
1.760000000000000000e+02,5.343617600000000039e+02
1.770000000000000000e+02,5.351196899999999914e+02
1.780000000000000000e+02,5.358693200000000161e+02
1.790000000000000000e+02,5.366149900000000343e+02
1.800000000000000000e+02,5.373532699999999522e+02
1.810000000000000000e+02,5.380848999999999478e+02
1.820000000000000000e+02,5.388112800000000107e+02
1.830000000000000000e+02,5.394532500000000255e+02
1.840000000000000000e+02,5.399809000000000196e+02
1.850000000000000000e+02,5.405437600000000202e+02
1.860000000000000000e+02,5.411112699999999904e+02
1.870000000000000000e+02,5.416773100000000341e+02
1.880000000000000000e+02,5.422794199999999591e+02
1.890000000000000000e+02,5.428933100000000422e+02
1.900000000000000000e+02,5.435243500000000267e+02
1.910000000000000000e+02,5.441682700000000068e+02
1.920000000000000000e+02,5.448168899999999439e+02
1.930000000000000000e+02,5.454737499999999955e+02
1.940000000000000000e+02,5.461311600000000226e+02
1.950000000000000000e+02,5.467897299999999632e+02
1.960000000000000000e+02,5.474478800000000547e+02
1.970000000000000000e+02,5.481038200000000415e+02
1.980000000000000000e+02,5.487575699999999870e+02
1.990000000000000000e+02,5.494080800000000409e+02
2.000000000000000000e+02,5.500546900000000505e+02
2.010000000000000000e+02,5.506974500000000035e+02
2.020000000000000000e+02,5.513364299999999503e+02
2.030000000000000000e+02,5.519705800000000409e+02
2.040000000000000000e+02,5.526000999999999976e+02
2.050000000000000000e+02,5.532226600000000190e+02
2.060000000000000000e+02,5.538429599999999482e+02
2.070000000000000000e+02,5.544589799999999968e+02
2.080000000000000000e+02,5.550673799999999574e+02
2.090000000000000000e+02,5.556734000000000151e+02
2.100000000000000000e+02,5.562716699999999719e+02
2.110000000000000000e+02,5.568553500000000440e+02
2.120000000000000000e+02,5.573913000000000011e+02
2.130000000000000000e+02,5.578931300000000419e+02
2.140000000000000000e+02,5.583983799999999746e+02
2.150000000000000000e+02,5.588997799999999643e+02
2.160000000000000000e+02,5.594036899999999832e+02
2.170000000000000000e+02,5.599141200000000254e+02
2.180000000000000000e+02,5.604312099999999646e+02
2.190000000000000000e+02,5.609515999999999849e+02
2.200000000000000000e+02,5.614775399999999763e+02
2.210000000000000000e+02,5.620084799999999632e+02
2.220000000000000000e+02,5.625380900000000111e+02
2.230000000000000000e+02,5.630718399999999519e+02
2.240000000000000000e+02,5.636045500000000175e+02
2.250000000000000000e+02,5.641355600000000550e+02
2.260000000000000000e+02,5.646684599999999818e+02
2.270000000000000000e+02,5.651993999999999687e+02
2.280000000000000000e+02,5.657287599999999657e+02
2.290000000000000000e+02,5.662559199999999464e+02
2.300000000000000000e+02,5.667828399999999647e+02
2.310000000000000000e+02,5.673046299999999746e+02
2.320000000000000000e+02,5.678256199999999581e+02
2.330000000000000000e+02,5.683456400000000031e+02
2.340000000000000000e+02,5.688605999999999767e+02
2.350000000000000000e+02,5.693750599999999622e+02
2.360000000000000000e+02,5.698857400000000553e+02
2.370000000000000000e+02,5.703938000000000557e+02
2.380000000000000000e+02,5.708998400000000402e+02
2.390000000000000000e+02,5.714047199999999975e+02
2.400000000000000000e+02,5.719007599999999911e+02
2.410000000000000000e+02,5.723778700000000299e+02
2.420000000000000000e+02,5.728354500000000371e+02
2.430000000000000000e+02,5.732852199999999812e+02
2.440000000000000000e+02,5.737340100000000120e+02
2.450000000000000000e+02,5.741802999999999884e+02
2.460000000000000000e+02,5.746284799999999677e+02
2.470000000000000000e+02,5.750784899999999880e+02
2.480000000000000000e+02,5.755324699999999893e+02
2.490000000000000000e+02,5.759893200000000206e+02
2.500000000000000000e+02,5.764475099999999657e+02
2.510000000000000000e+02,5.769108899999999949e+02
2.520000000000000000e+02,5.773756100000000515e+02
2.530000000000000000e+02,5.778400299999999561e+02
2.540000000000000000e+02,5.783099399999999832e+02
2.550000000000000000e+02,5.787784400000000460e+02
2.560000000000000000e+02,5.792494500000000244e+02
2.570000000000000000e+02,5.797222900000000436e+02
2.580000000000000000e+02,5.801945200000000114e+02
2.590000000000000000e+02,5.806675400000000309e+02
2.600000000000000000e+02,5.811433100000000422e+02
2.610000000000000000e+02,5.816193200000000161e+02
2.620000000000000000e+02,5.820952800000000025e+02
2.630000000000000000e+02,5.825747099999999818e+02
2.640000000000000000e+02,5.830532799999999725e+02
2.650000000000000000e+02,5.835330800000000409e+02
2.660000000000000000e+02,5.840156899999999496e+02
2.670000000000000000e+02,5.844981099999999969e+02
2.680000000000000000e+02,5.849819300000000339e+02
2.690000000000000000e+02,5.854692400000000134e+02
2.700000000000000000e+02,5.859580099999999447e+02
2.710000000000000000e+02,5.864479400000000169e+02
2.720000000000000000e+02,5.869421399999999949e+02
2.730000000000000000e+02,5.874357300000000350e+02
2.740000000000000000e+02,5.879063099999999622e+02
2.750000000000000000e+02,5.883998400000000402e+02
2.760000000000000000e+02,5.888815299999999979e+02
2.770000000000000000e+02,5.893710300000000188e+02
2.780000000000000000e+02,5.898627900000000182e+02
2.790000000000000000e+02,5.903607200000000148e+02
2.800000000000000000e+02,5.908645000000000209e+02
2.810000000000000000e+02,5.913781699999999546e+02
2.820000000000000000e+02,5.918997200000000021e+02
2.830000000000000000e+02,5.924309100000000399e+02
2.840000000000000000e+02,5.929736299999999574e+02
2.850000000000000000e+02,5.935267900000000054e+02
2.860000000000000000e+02,5.940911300000000210e+02
2.870000000000000000e+02,5.946691299999999956e+02
2.880000000000000000e+02,5.952597700000000032e+02
2.890000000000000000e+02,5.958633399999999938e+02
2.900000000000000000e+02,5.964845599999999877e+02
2.910000000000000000e+02,5.971189600000000155e+02
2.920000000000000000e+02,5.977733799999999746e+02
2.930000000000000000e+02,5.984447599999999738e+02
2.940000000000000000e+02,5.991354400000000169e+02
2.950000000000000000e+02,5.998488800000000083e+02
2.960000000000000000e+02,6.005858799999999746e+02
2.970000000000000000e+02,6.013476000000000568e+02
2.980000000000000000e+02,6.021369600000000446e+02
2.990000000000000000e+02,6.029559299999999666e+02
3.000000000000000000e+02,6.038060299999999643e+02
3.010000000000000000e+02,6.046888999999999896e+02
3.020000000000000000e+02,6.056085799999999608e+02
3.030000000000000000e+02,6.065645100000000411e+02
3.040000000000000000e+02,6.075611599999999726e+02
3.050000000000000000e+02,6.085955199999999650e+02
3.060000000000000000e+02,6.096712599999999611e+02
3.070000000000000000e+02,6.107837500000000546e+02
3.080000000000000000e+02,6.119349999999999454e+02
3.090000000000000000e+02,6.131167599999999993e+02
3.100000000000000000e+02,6.143278800000000501e+02
3.110000000000000000e+02,6.155653099999999540e+02
3.120000000000000000e+02,6.168197000000000116e+02
3.130000000000000000e+02,6.180885600000000295e+02
3.140000000000000000e+02,6.193681599999999889e+02
3.150000000000000000e+02,6.206508800000000292e+02
3.160000000000000000e+02,6.219346299999999701e+02
3.170000000000000000e+02,6.232192400000000134e+02
3.180000000000000000e+02,6.244954800000000432e+02
3.190000000000000000e+02,6.257645899999999983e+02
3.200000000000000000e+02,6.270252100000000155e+02
3.210000000000000000e+02,6.282738000000000511e+02
3.220000000000000000e+02,6.295084799999999632e+02
3.230000000000000000e+02,6.307327299999999468e+02
3.240000000000000000e+02,6.319385999999999513e+02
3.250000000000000000e+02,6.331293899999999439e+02
3.260000000000000000e+02,6.343068200000000161e+02
3.270000000000000000e+02,6.354647200000000566e+02
3.280000000000000000e+02,6.366064499999999953e+02
3.290000000000000000e+02,6.377328499999999849e+02
3.300000000000000000e+02,6.388401499999999942e+02
3.310000000000000000e+02,6.399297500000000127e+02
3.320000000000000000e+02,6.410049400000000333e+02
3.330000000000000000e+02,6.420596299999999701e+02
3.340000000000000000e+02,6.430982099999999946e+02
3.350000000000000000e+02,6.441227400000000216e+02
3.360000000000000000e+02,6.451261600000000271e+02
3.370000000000000000e+02,6.461146199999999453e+02
3.380000000000000000e+02,6.470880100000000539e+02
3.390000000000000000e+02,6.480434000000000196e+02
3.400000000000000000e+02,6.489819300000000339e+02
3.410000000000000000e+02,6.499079000000000406e+02
3.420000000000000000e+02,6.508144499999999653e+02
3.430000000000000000e+02,6.517057499999999663e+02
3.440000000000000000e+02,6.525847199999999475e+02
3.450000000000000000e+02,6.534457400000000007e+02
3.460000000000000000e+02,6.542916900000000169e+02
3.470000000000000000e+02,6.551249400000000378e+02
3.480000000000000000e+02,6.559423199999999952e+02
3.490000000000000000e+02,6.567450599999999667e+02
3.500000000000000000e+02,6.575364399999999705e+02
3.510000000000000000e+02,6.583114600000000110e+02
3.520000000000000000e+02,6.590729400000000169e+02
3.530000000000000000e+02,6.598237900000000309e+02
3.540000000000000000e+02,6.605593300000000454e+02
3.550000000000000000e+02,6.612810699999999997e+02
3.560000000000000000e+02,6.619928599999999506e+02
3.570000000000000000e+02,6.626898200000000543e+02
3.580000000000000000e+02,6.633748199999999997e+02
3.590000000000000000e+02,6.640499899999999798e+02
3.600000000000000000e+02,6.647103299999999990e+02
3.610000000000000000e+02,6.653597999999999502e+02
3.620000000000000000e+02,6.659994500000000244e+02
3.630000000000000000e+02,6.666253100000000131e+02
3.640000000000000000e+02,6.672408400000000483e+02
3.650000000000000000e+02,6.678477199999999812e+02
3.660000000000000000e+02,6.684411599999999680e+02
3.670000000000000000e+02,6.690250200000000405e+02
3.680000000000000000e+02,6.695993700000000217e+02
3.690000000000000000e+02,6.701624799999999595e+02
3.700000000000000000e+02,6.707146599999999808e+02
3.710000000000000000e+02,6.712601300000000037e+02
3.720000000000000000e+02,6.717925999999999931e+02
3.730000000000000000e+02,6.723164699999999812e+02
3.740000000000000000e+02,6.728325800000000072e+02
3.750000000000000000e+02,6.733373400000000402e+02
3.760000000000000000e+02,6.738334399999999960e+02
3.770000000000000000e+02,6.743222700000000032e+02
3.780000000000000000e+02,6.748006000000000313e+02
3.790000000000000000e+02,6.752703199999999697e+02
3.800000000000000000e+02,6.757335799999999608e+02
3.810000000000000000e+02,6.761865800000000490e+02
3.820000000000000000e+02,6.766321400000000494e+02
3.830000000000000000e+02,6.770707400000000007e+02
3.840000000000000000e+02,6.774999400000000378e+02
3.850000000000000000e+02,6.779215100000000120e+02
3.860000000000000000e+02,6.783369800000000396e+02
3.870000000000000000e+02,6.787434100000000399e+02
3.880000000000000000e+02,6.791425799999999526e+02
3.890000000000000000e+02,6.795358300000000327e+02
3.900000000000000000e+02,6.799207199999999602e+02
3.910000000000000000e+02,6.802987699999999904e+02
3.920000000000000000e+02,6.806710199999999986e+02
3.930000000000000000e+02,6.810353400000000192e+02
3.940000000000000000e+02,6.813930699999999661e+02
3.950000000000000000e+02,6.817459099999999808e+02
3.960000000000000000e+02,6.820908799999999701e+02
3.970000000000000000e+02,6.824298099999999749e+02
3.980000000000000000e+02,6.827638500000000477e+02
3.990000000000000000e+02,6.830899699999999939e+02
