# Time [s], Mass [Kg]
1.000000000000000000e+00,1.000000000000000000e+00
2.000000000000000000e+00,1.000000000000000000e+00
3.000000000000000000e+00,1.000000000000000000e+00
4.000000000000000000e+00,1.000000000000000000e+00
5.000000000000000000e+00,1.000000000000000000e+00
6.000000000000000000e+00,1.000000000000000000e+00
7.000000000000000000e+00,9.999998799999999521e-01
8.000000000000000000e+00,9.999996399999999674e-01
9.000000000000000000e+00,9.999989299999999526e-01
1.000000000000000000e+01,9.999972599999999989e-01
1.100000000000000000e+01,9.999934999999999796e-01
1.200000000000000000e+01,9.999856900000000381e-01
1.300000000000000000e+01,9.999703800000000475e-01
1.400000000000000000e+01,9.999420599999999659e-01
1.500000000000000000e+01,9.998927100000000179e-01
1.600000000000000000e+01,9.998109899999999550e-01
1.700000000000000000e+01,9.996824300000000108e-01
1.800000000000000000e+01,9.994894899999999804e-01
1.900000000000000000e+01,9.992146499999999820e-01
2.000000000000000000e+01,9.988431300000000235e-01
2.100000000000000000e+01,9.983590199999999859e-01
2.200000000000000000e+01,9.977630400000000455e-01
2.300000000000000000e+01,9.970601199999999942e-01
2.400000000000000000e+01,9.962341799999999692e-01
2.500000000000000000e+01,9.953170999999999546e-01
2.600000000000000000e+01,9.943203900000000539e-01
2.700000000000000000e+01,9.932003600000000043e-01
2.800000000000000000e+01,9.920236500000000346e-01
2.900000000000000000e+01,9.907911999999999830e-01
3.000000000000000000e+01,9.894271500000000330e-01
3.100000000000000000e+01,9.880368099999999876e-01
3.200000000000000000e+01,9.866043899999999978e-01
3.300000000000000000e+01,9.850293399999999755e-01
3.400000000000000000e+01,9.834492200000000128e-01
3.500000000000000000e+01,9.818349499999999841e-01
3.600000000000000000e+01,9.800696399999999642e-01
3.700000000000000000e+01,9.783079000000000081e-01
3.800000000000000000e+01,9.765193500000000082e-01
3.900000000000000000e+01,9.745793900000000454e-01
4.000000000000000000e+01,9.726387899999999753e-01
4.100000000000000000e+01,9.706817300000000204e-01
4.200000000000000000e+01,9.685858499999999704e-01
4.300000000000000000e+01,9.664807899999999785e-01
4.400000000000000000e+01,9.643714399999999687e-01
4.500000000000000000e+01,9.621520599999999757e-01
4.600000000000000000e+01,9.599196300000000237e-01
4.700000000000000000e+01,9.576925600000000260e-01
4.800000000000000000e+01,9.553909900000000510e-01
4.900000000000000000e+01,9.530752300000000510e-01
5.000000000000000000e+01,9.507672799999999924e-01
5.100000000000000000e+01,9.472171700000000527e-01
5.200000000000000000e+01,9.448450200000000354e-01
5.300000000000000000e+01,9.425698500000000424e-01
5.400000000000000000e+01,9.401870399999999739e-01
5.500000000000000000e+01,9.378665099999999866e-01
5.600000000000000000e+01,9.355207100000000331e-01
5.700000000000000000e+01,9.331650099999999615e-01
5.800000000000000000e+01,9.307876800000000062e-01
5.900000000000000000e+01,9.284169100000000396e-01
6.000000000000000000e+01,9.260281299999999494e-01
6.100000000000000000e+01,9.236287499999999984e-01
6.200000000000000000e+01,9.212296599999999502e-01
6.300000000000000000e+01,9.188206799999999452e-01
6.400000000000000000e+01,9.164048999999999667e-01
6.500000000000000000e+01,9.139905600000000074e-01
6.600000000000000000e+01,9.115739499999999662e-01
6.700000000000000000e+01,9.091554299999999866e-01
6.800000000000000000e+01,9.067406099999999469e-01
6.900000000000000000e+01,9.043272700000000164e-01
7.000000000000000000e+01,9.019142999999999466e-01
7.100000000000000000e+01,8.995040100000000205e-01
7.200000000000000000e+01,8.970952599999999499e-01
7.300000000000000000e+01,8.946866999999999459e-01
7.400000000000000000e+01,8.922801000000000204e-01
7.500000000000000000e+01,8.898755900000000496e-01
7.600000000000000000e+01,8.874728100000000008e-01
7.700000000000000000e+01,8.850734199999999996e-01
7.800000000000000000e+01,8.826783299999999555e-01
7.900000000000000000e+01,8.800561999999999552e-01
8.000000000000000000e+01,8.775488099999999569e-01
8.100000000000000000e+01,8.750977500000000076e-01
8.200000000000000000e+01,8.726853100000000474e-01
8.300000000000000000e+01,8.702931999999999890e-01
8.400000000000000000e+01,8.679138400000000475e-01
8.500000000000000000e+01,8.655419300000000149e-01
8.600000000000000000e+01,8.631751500000000021e-01
8.700000000000000000e+01,8.608123100000000250e-01
8.800000000000000000e+01,8.584529199999999527e-01
8.900000000000000000e+01,8.560963299999999609e-01
9.000000000000000000e+01,8.537427199999999550e-01
9.100000000000000000e+01,8.513917300000000132e-01
9.200000000000000000e+01,8.490434300000000434e-01
9.300000000000000000e+01,8.466970900000000411e-01
9.400000000000000000e+01,8.443526000000000087e-01
9.500000000000000000e+01,8.420091899999999630e-01
9.600000000000000000e+01,8.396671999999999469e-01
9.700000000000000000e+01,8.373262299999999492e-01
9.800000000000000000e+01,8.349865100000000151e-01
9.900000000000000000e+01,8.326479799999999543e-01
1.000000000000000000e+02,8.303105200000000519e-01
1.010000000000000000e+02,8.279747400000000424e-01
1.020000000000000000e+02,8.256402000000000463e-01
1.030000000000000000e+02,8.233070999999999584e-01
1.040000000000000000e+02,8.209751800000000266e-01
1.050000000000000000e+02,8.186441100000000359e-01
1.060000000000000000e+02,8.163130299999999950e-01
1.070000000000000000e+02,8.139820100000000336e-01
1.080000000000000000e+02,8.114891100000000135e-01
1.090000000000000000e+02,8.090929999999999511e-01
1.100000000000000000e+02,8.067271099999999695e-01
1.110000000000000000e+02,8.043752899999999650e-01
1.120000000000000000e+02,8.020320499999999964e-01
1.130000000000000000e+02,7.996936399999999834e-01
1.140000000000000000e+02,7.973580999999999586e-01
1.150000000000000000e+02,7.950237399999999788e-01
1.160000000000000000e+02,7.926893200000000306e-01
1.170000000000000000e+02,7.903538300000000349e-01
1.180000000000000000e+02,7.880166800000000249e-01
1.190000000000000000e+02,7.856772499999999937e-01
1.200000000000000000e+02,7.833355100000000126e-01
1.210000000000000000e+02,7.809906599999999477e-01
1.220000000000000000e+02,7.786424800000000257e-01
1.230000000000000000e+02,7.762911900000000198e-01
1.240000000000000000e+02,7.739363299999999501e-01
1.250000000000000000e+02,7.715780100000000363e-01
1.260000000000000000e+02,7.692156399999999783e-01
1.270000000000000000e+02,7.668490999999999502e-01
1.280000000000000000e+02,7.644780300000000306e-01
1.290000000000000000e+02,7.621023700000000289e-01
1.300000000000000000e+02,7.597217000000000553e-01
1.310000000000000000e+02,7.573353600000000130e-01
1.320000000000000000e+02,7.549434299999999709e-01
1.330000000000000000e+02,7.525454200000000204e-01
1.340000000000000000e+02,7.501411999999999525e-01
1.350000000000000000e+02,7.477302599999999799e-01
1.360000000000000000e+02,7.451637399999999634e-01
1.370000000000000000e+02,7.426737500000000214e-01
1.380000000000000000e+02,7.402049899999999516e-01
1.390000000000000000e+02,7.377429599999999477e-01
1.400000000000000000e+02,7.352814100000000241e-01
1.410000000000000000e+02,7.328168200000000354e-01
1.420000000000000000e+02,7.303467999999999627e-01
1.430000000000000000e+02,7.278701100000000146e-01
1.440000000000000000e+02,7.253858399999999484e-01
1.450000000000000000e+02,7.228926399999999752e-01
1.460000000000000000e+02,7.203900199999999643e-01
1.470000000000000000e+02,7.178776300000000443e-01
1.480000000000000000e+02,7.153546200000000521e-01
1.490000000000000000e+02,7.128207699999999925e-01
1.500000000000000000e+02,7.102755899999999567e-01
1.510000000000000000e+02,7.077188500000000104e-01
1.520000000000000000e+02,7.051502499999999785e-01
1.530000000000000000e+02,7.025694300000000503e-01
1.540000000000000000e+02,6.999760299999999713e-01
1.550000000000000000e+02,6.973699899999999952e-01
1.560000000000000000e+02,6.947514399999999979e-01
1.570000000000000000e+02,6.921198400000000417e-01
1.580000000000000000e+02,6.894755399999999979e-01
1.590000000000000000e+02,6.868185999999999458e-01
1.600000000000000000e+02,6.841491499999999837e-01
1.610000000000000000e+02,6.814675300000000435e-01
1.620000000000000000e+02,6.786407800000000545e-01
1.630000000000000000e+02,6.758703600000000034e-01
1.640000000000000000e+02,6.731149600000000399e-01
1.650000000000000000e+02,6.703622299999999479e-01
1.660000000000000000e+02,6.676074300000000017e-01
1.670000000000000000e+02,6.648480900000000027e-01
1.680000000000000000e+02,6.620829700000000484e-01
1.690000000000000000e+02,6.593118900000000115e-01
1.700000000000000000e+02,6.565349099999999716e-01
1.710000000000000000e+02,6.537520900000000079e-01
1.720000000000000000e+02,6.509641400000000244e-01
1.730000000000000000e+02,6.481715999999999589e-01
1.740000000000000000e+02,6.453751899999999875e-01
1.750000000000000000e+02,6.425755600000000456e-01
1.760000000000000000e+02,6.397733100000000395e-01
1.770000000000000000e+02,6.369693300000000002e-01
1.780000000000000000e+02,6.341642100000000060e-01
1.790000000000000000e+02,6.313589800000000141e-01
1.800000000000000000e+02,6.285542200000000523e-01
1.810000000000000000e+02,6.257505399999999662e-01
1.820000000000000000e+02,6.229487700000000405e-01
1.830000000000000000e+02,6.201494300000000015e-01
1.840000000000000000e+02,6.173530799999999985e-01
1.850000000000000000e+02,6.145604300000000464e-01
1.860000000000000000e+02,6.117718199999999662e-01
1.870000000000000000e+02,6.088783100000000337e-01
1.880000000000000000e+02,6.060389299999999757e-01
1.890000000000000000e+02,6.032267199999999940e-01
1.900000000000000000e+02,6.004321599999999926e-01
1.910000000000000000e+02,5.976509500000000141e-01
1.920000000000000000e+02,5.948809400000000247e-01
1.930000000000000000e+02,5.921207099999999945e-01
1.940000000000000000e+02,5.893696000000000490e-01
1.950000000000000000e+02,5.866271899999999651e-01
1.960000000000000000e+02,5.838932999999999485e-01
1.970000000000000000e+02,5.811677600000000332e-01
1.980000000000000000e+02,5.784505599999999470e-01
1.990000000000000000e+02,5.757415299999999458e-01
2.000000000000000000e+02,5.730408399999999958e-01
2.010000000000000000e+02,5.703485600000000044e-01
2.020000000000000000e+02,5.676648600000000489e-01
2.030000000000000000e+02,5.649896300000000204e-01
2.040000000000000000e+02,5.623229699999999776e-01
2.050000000000000000e+02,5.596651400000000054e-01
2.060000000000000000e+02,5.570160699999999743e-01
2.070000000000000000e+02,5.543759499999999507e-01
2.080000000000000000e+02,5.517450000000000410e-01
2.090000000000000000e+02,5.491234099999999785e-01
2.100000000000000000e+02,5.465113499999999513e-01
2.110000000000000000e+02,5.438148400000000215e-01
2.120000000000000000e+02,5.411669000000000063e-01
2.130000000000000000e+02,5.385481699999999927e-01
2.140000000000000000e+02,5.359509599999999763e-01
2.150000000000000000e+02,5.333718100000000018e-01
2.160000000000000000e+02,5.308087500000000514e-01
2.170000000000000000e+02,5.282607700000000461e-01
2.180000000000000000e+02,5.257273900000000166e-01
2.190000000000000000e+02,5.232082599999999806e-01
2.200000000000000000e+02,5.207033199999999695e-01
2.210000000000000000e+02,5.182128499999999471e-01
2.220000000000000000e+02,5.157370599999999694e-01
2.230000000000000000e+02,5.132763399999999976e-01
2.240000000000000000e+02,5.108314200000000360e-01
2.250000000000000000e+02,5.084027599999999536e-01
2.260000000000000000e+02,5.059911599999999954e-01
2.270000000000000000e+02,5.035973200000000150e-01
2.280000000000000000e+02,5.012222499999999803e-01
2.290000000000000000e+02,4.988668600000000231e-01
2.300000000000000000e+02,4.965323799999999954e-01
2.310000000000000000e+02,4.942199600000000137e-01
2.320000000000000000e+02,4.919308700000000201e-01
2.330000000000000000e+02,4.896664900000000098e-01
2.340000000000000000e+02,4.874283400000000155e-01
2.350000000000000000e+02,4.852182299999999726e-01
2.360000000000000000e+02,4.830379799999999779e-01
2.370000000000000000e+02,4.808896500000000018e-01
2.380000000000000000e+02,4.787754100000000124e-01
2.390000000000000000e+02,4.766610000000000014e-01
2.400000000000000000e+02,4.746009400000000267e-01
2.410000000000000000e+02,4.725925300000000107e-01
2.420000000000000000e+02,4.706344900000000164e-01
2.430000000000000000e+02,4.687277999999999722e-01
2.440000000000000000e+02,4.668742100000000117e-01
2.450000000000000000e+02,4.650763600000000220e-01
2.460000000000000000e+02,4.633369700000000146e-01
2.470000000000000000e+02,4.616590700000000047e-01
2.480000000000000000e+02,4.600456700000000176e-01
2.490000000000000000e+02,4.584997000000000100e-01
2.500000000000000000e+02,4.570240099999999805e-01
2.510000000000000000e+02,4.556209099999999901e-01
2.520000000000000000e+02,4.542924799999999985e-01
2.530000000000000000e+02,4.530401800000000145e-01
2.540000000000000000e+02,4.518649000000000138e-01
2.550000000000000000e+02,4.507667699999999833e-01
2.560000000000000000e+02,4.497452399999999906e-01
2.570000000000000000e+02,4.487989499999999743e-01
2.580000000000000000e+02,4.479259300000000277e-01
2.590000000000000000e+02,4.471235299999999913e-01
2.600000000000000000e+02,4.463884799999999764e-01
2.610000000000000000e+02,4.457172200000000251e-01
2.620000000000000000e+02,4.451057600000000170e-01
2.630000000000000000e+02,4.445499500000000270e-01
2.640000000000000000e+02,4.440455700000000006e-01
2.650000000000000000e+02,4.435884700000000125e-01
2.660000000000000000e+02,4.431745400000000057e-01
2.670000000000000000e+02,4.427998699999999843e-01
2.680000000000000000e+02,4.424607799999999980e-01
2.690000000000000000e+02,4.421538099999999805e-01
2.700000000000000000e+02,4.418758500000000145e-01
2.710000000000000000e+02,4.416239299999999979e-01
2.720000000000000000e+02,4.413954299999999775e-01
2.730000000000000000e+02,4.411879499999999954e-01
2.740000000000000000e+02,4.409993300000000227e-01
2.750000000000000000e+02,4.408276400000000206e-01
2.760000000000000000e+02,4.406711799999999957e-01
2.770000000000000000e+02,4.405283600000000077e-01
2.780000000000000000e+02,4.403978000000000059e-01
2.790000000000000000e+02,4.402783200000000008e-01
2.800000000000000000e+02,4.401687699999999870e-01
2.810000000000000000e+02,4.400681900000000257e-01
2.820000000000000000e+02,4.399756799999999801e-01
2.830000000000000000e+02,4.398905300000000018e-01
2.840000000000000000e+02,4.398119999999999807e-01
2.850000000000000000e+02,4.397394700000000212e-01
2.860000000000000000e+02,4.396724100000000135e-01
2.870000000000000000e+02,4.396103000000000094e-01
2.880000000000000000e+02,4.395527200000000079e-01
2.890000000000000000e+02,4.394992600000000027e-01
2.900000000000000000e+02,4.394495800000000063e-01
2.910000000000000000e+02,4.394032999999999967e-01
2.920000000000000000e+02,4.393601999999999785e-01
2.930000000000000000e+02,4.393199700000000041e-01
2.940000000000000000e+02,4.392824200000000068e-01
2.950000000000000000e+02,4.392472800000000177e-01
2.960000000000000000e+02,4.392144099999999995e-01
2.970000000000000000e+02,4.391835900000000126e-01
2.980000000000000000e+02,4.391547100000000037e-01
2.990000000000000000e+02,4.391275599999999724e-01
3.000000000000000000e+02,4.391020800000000057e-01
3.010000000000000000e+02,4.390780899999999765e-01
3.020000000000000000e+02,4.390555300000000272e-01
3.030000000000000000e+02,4.390342500000000148e-01
3.040000000000000000e+02,4.390142000000000211e-01
3.050000000000000000e+02,4.389952699999999930e-01
3.060000000000000000e+02,4.389773599999999831e-01
3.070000000000000000e+02,4.389604599999999968e-01
3.080000000000000000e+02,4.389444900000000205e-01
3.090000000000000000e+02,4.389293499999999959e-01
3.100000000000000000e+02,4.389149800000000101e-01
3.110000000000000000e+02,4.389013900000000024e-01
3.120000000000000000e+02,4.388884900000000200e-01
3.130000000000000000e+02,4.388762700000000128e-01
3.140000000000000000e+02,4.388646199999999831e-01
3.150000000000000000e+02,4.388535599999999759e-01
3.160000000000000000e+02,4.388430700000000018e-01
3.170000000000000000e+02,4.388330599999999970e-01
3.180000000000000000e+02,4.388235500000000067e-01
3.190000000000000000e+02,4.388144600000000173e-01
3.200000000000000000e+02,4.388058200000000131e-01
3.210000000000000000e+02,4.387975599999999754e-01
3.220000000000000000e+02,4.387897000000000047e-01
3.230000000000000000e+02,4.387821900000000164e-01
3.240000000000000000e+02,4.387750000000000261e-01
3.250000000000000000e+02,4.387681500000000234e-01
3.260000000000000000e+02,4.387615899999999791e-01
3.270000000000000000e+02,4.387553000000000147e-01
3.280000000000000000e+02,4.387493100000000035e-01
3.290000000000000000e+02,4.387435599999999769e-01
3.300000000000000000e+02,4.387380499999999905e-01
3.310000000000000000e+02,4.387327699999999941e-01
3.320000000000000000e+02,4.387277099999999930e-01
3.330000000000000000e+02,4.387228499999999976e-01
3.340000000000000000e+02,4.387182000000000026e-01
3.350000000000000000e+02,4.387137300000000240e-01
3.360000000000000000e+02,4.387094400000000061e-01
3.370000000000000000e+02,4.387053000000000202e-01
3.380000000000000000e+02,4.387013300000000005e-01
3.390000000000000000e+02,4.386975200000000075e-01
3.400000000000000000e+02,4.386938499999999963e-01
3.410000000000000000e+02,4.386903300000000172e-01
3.420000000000000000e+02,4.386869400000000252e-01
3.430000000000000000e+02,4.386836599999999753e-01
3.440000000000000000e+02,4.386804999999999732e-01
3.450000000000000000e+02,4.386774600000000190e-01
3.460000000000000000e+02,4.386745400000000017e-01
3.470000000000000000e+02,4.386717399999999767e-01
3.480000000000000000e+02,4.386689999999999756e-01
3.490000000000000000e+02,4.386663700000000277e-01
3.500000000000000000e+02,4.386638400000000271e-01
3.510000000000000000e+02,4.386613999999999791e-01
3.520000000000000000e+02,4.386590400000000001e-01
3.530000000000000000e+02,4.386567499999999842e-01
3.540000000000000000e+02,4.386545399999999817e-01
3.550000000000000000e+02,4.386524299999999821e-01
3.560000000000000000e+02,4.386503700000000117e-01
3.570000000000000000e+02,4.386483700000000097e-01
3.580000000000000000e+02,4.386464400000000263e-01
3.590000000000000000e+02,4.386445600000000167e-01
3.600000000000000000e+02,4.386427700000000152e-01
3.610000000000000000e+02,4.386410099999999979e-01
3.620000000000000000e+02,4.386393100000000045e-01
3.630000000000000000e+02,4.386376699999999795e-01
3.640000000000000000e+02,4.386360899999999785e-01
3.650000000000000000e+02,4.386345400000000172e-01
3.660000000000000000e+02,4.386330500000000243e-01
3.670000000000000000e+02,4.386315900000000156e-01
3.680000000000000000e+02,4.386301899999999754e-01
3.690000000000000000e+02,4.386288199999999748e-01
3.700000000000000000e+02,4.386275099999999982e-01
3.710000000000000000e+02,4.386262000000000216e-01
3.720000000000000000e+02,4.386249799999999976e-01
3.730000000000000000e+02,4.386237599999999737e-01
3.740000000000000000e+02,4.386225599999999947e-01
3.750000000000000000e+02,4.386214299999999788e-01
3.760000000000000000e+02,4.386203300000000027e-01
3.770000000000000000e+02,4.386192300000000266e-01
3.780000000000000000e+02,4.386181800000000242e-01
3.790000000000000000e+02,4.386171700000000007e-01
3.800000000000000000e+02,4.386161599999999772e-01
3.810000000000000000e+02,4.386151999999999829e-01
3.820000000000000000e+02,4.386142499999999833e-01
3.830000000000000000e+02,4.386133600000000077e-01
3.840000000000000000e+02,4.386124599999999818e-01
3.850000000000000000e+02,4.386115999999999904e-01
3.860000000000000000e+02,4.386107300000000042e-01
3.870000000000000000e+02,4.386099299999999812e-01
3.880000000000000000e+02,4.386091200000000190e-01
3.890000000000000000e+02,4.386083199999999960e-01
3.900000000000000000e+02,4.386075700000000022e-01
3.910000000000000000e+02,4.386068300000000031e-01
3.920000000000000000e+02,4.386061099999999935e-01
3.930000000000000000e+02,4.386053999999999786e-01
3.940000000000000000e+02,4.386047100000000087e-01
3.950000000000000000e+02,4.386040299999999781e-01
3.960000000000000000e+02,4.386033699999999924e-01
3.970000000000000000e+02,4.386027499999999857e-01
3.980000000000000000e+02,4.386021199999999842e-01
3.990000000000000000e+02,4.386014899999999828e-01
