# Time [s], Convective Heat Transfer Coefficient [W/m2K]
1.000000000000000000e+00,0.000000000000000000e+00
2.000000000000000000e+00,0.000000000000000000e+00
3.000000000000000000e+00,0.000000000000000000e+00
4.000000000000000000e+00,0.000000000000000000e+00
5.000000000000000000e+00,1.915079995362458862e-02
6.000000000000000000e+00,3.380449737731881787e-02
7.000000000000000000e+00,5.366129469656785722e-02
8.000000000000000000e+00,8.129691486700800496e-02
9.000000000000000000e+00,1.168231392200433927e-01
1.000000000000000000e+01,1.601210483974788157e-01
1.100000000000000000e+01,2.113162086210488844e-01
1.200000000000000000e+01,2.699549463737018207e-01
1.300000000000000000e+01,3.352666226656619841e-01
1.400000000000000000e+01,4.065270780804563500e-01
1.500000000000000000e+01,4.829014587895012478e-01
1.600000000000000000e+01,5.635781486775803817e-01
1.700000000000000000e+01,6.478080650879174396e-01
1.800000000000000000e+01,7.348877421607633575e-01
1.900000000000000000e+01,8.242139471470807388e-01
2.000000000000000000e+01,9.152437822388487243e-01
2.100000000000000000e+01,1.007515295307984893e+00
2.200000000000000000e+01,1.100623594298347552e+00
2.300000000000000000e+01,1.194227186931137830e+00
2.400000000000000000e+01,1.288033379945839219e+00
2.500000000000000000e+01,1.381793167692642710e+00
2.600000000000000000e+01,1.475303035561425835e+00
2.700000000000000000e+01,1.568386503915730090e+00
2.800000000000000000e+01,1.660900406634745252e+00
2.900000000000000000e+01,1.752723266107617306e+00
3.000000000000000000e+01,1.843757383965458629e+00
3.100000000000000000e+01,1.933923488120305789e+00
3.200000000000000000e+01,2.023150117938753656e+00
3.300000000000000000e+01,2.111388750988379304e+00
3.400000000000000000e+01,2.198598151369258957e+00
3.500000000000000000e+01,2.284744679474069340e+00
3.600000000000000000e+01,2.369804888300893531e+00
3.700000000000000000e+01,2.453762349035595314e+00
3.800000000000000000e+01,2.536604895754139388e+00
3.900000000000000000e+01,2.618326999105197395e+00
4.000000000000000000e+01,2.698928485567008817e+00
4.100000000000000000e+01,2.778412529269380205e+00
4.200000000000000000e+01,2.856778781675577417e+00
4.300000000000000000e+01,2.934035204389285667e+00
4.400000000000000000e+01,3.010195671639877446e+00
4.500000000000000000e+01,3.085266276282470521e+00
4.600000000000000000e+01,3.159259689410855998e+00
4.700000000000000000e+01,3.232189601480374375e+00
4.800000000000000000e+01,3.304072364796584171e+00
4.900000000000000000e+01,3.374922685042633930e+00
5.000000000000000000e+01,3.444755087692527251e+00
5.100000000000000000e+01,3.513587337159061796e+00
5.200000000000000000e+01,3.581432967517906629e+00
5.300000000000000000e+01,3.648310834625116073e+00
5.400000000000000000e+01,3.714236803576831836e+00
5.500000000000000000e+01,3.779228200905498269e+00
5.600000000000000000e+01,3.843302404623151869e+00
5.700000000000000000e+01,3.906475865433514993e+00
5.800000000000000000e+01,3.968763987509114077e+00
5.900000000000000000e+01,4.030184498231973222e+00
6.000000000000000000e+01,4.090752256130796738e+00
6.100000000000000000e+01,4.150483040526903977e+00
6.200000000000000000e+01,4.209394667590845351e+00
6.300000000000000000e+01,4.267505101911700294e+00
6.400000000000000000e+01,4.324823986853005842e+00
6.500000000000000000e+01,4.381369082233753431e+00
6.600000000000000000e+01,4.437156219322067052e+00
6.700000000000000000e+01,4.492196936437570898e+00
6.800000000000000000e+01,4.546506024986514127e+00
6.900000000000000000e+01,4.600099840559147779e+00
7.000000000000000000e+01,4.652990521991186235e+00
7.100000000000000000e+01,4.705190074032387315e+00
7.200000000000000000e+01,4.756714905081766531e+00
7.300000000000000000e+01,4.807574093234287638e+00
7.400000000000000000e+01,4.857783858699564306e+00
7.500000000000000000e+01,4.907352628922240001e+00
7.600000000000000000e+01,4.956295701593401049e+00
7.700000000000000000e+01,5.004623347747418904e+00
7.800000000000000000e+01,5.052346314678477945e+00
7.900000000000000000e+01,5.099477297426780353e+00
8.000000000000000000e+01,5.146026020065717077e+00
8.100000000000000000e+01,5.192004654286771270e+00
8.200000000000000000e+01,5.237422518364182267e+00
8.300000000000000000e+01,5.282289791874479334e+00
8.400000000000000000e+01,5.326618136343419074e+00
8.500000000000000000e+01,5.370417644717363714e+00
8.600000000000000000e+01,5.413695482403497294e+00
8.700000000000000000e+01,5.456463186872969828e+00
8.800000000000000000e+01,5.498730905576695527e+00
8.900000000000000000e+01,5.540504064536276196e+00
9.000000000000000000e+01,5.581794533039888151e+00
9.100000000000000000e+01,5.622611005409035911e+00
9.200000000000000000e+01,5.662962181360212455e+00
9.300000000000000000e+01,5.702853811007249085e+00
9.400000000000000000e+01,5.742295994259195346e+00
9.500000000000000000e+01,5.781297210580895296e+00
9.600000000000000000e+01,5.819865185351249970e+00
9.700000000000000000e+01,5.858006186746817612e+00
9.800000000000000000e+01,5.895728552061391348e+00
9.900000000000000000e+01,5.933038997521833835e+00
1.000000000000000000e+02,5.969946396111826203e+00
1.010000000000000000e+02,6.006456454006438683e+00
1.020000000000000000e+02,6.042574720695193413e+00
1.030000000000000000e+02,6.078309068105437696e+00
1.040000000000000000e+02,6.113665640521851685e+00
1.050000000000000000e+02,6.148651956245871908e+00
1.060000000000000000e+02,6.183273523592021093e+00
1.070000000000000000e+02,6.217535496022551733e+00
1.080000000000000000e+02,6.251444068636637041e+00
1.090000000000000000e+02,6.285004999635400935e+00
1.100000000000000000e+02,6.318225158148274900e+00
1.110000000000000000e+02,6.351109593781611551e+00
1.120000000000000000e+02,6.383662663959012384e+00
1.130000000000000000e+02,6.415889973797431978e+00
1.140000000000000000e+02,6.447797187865077717e+00
1.150000000000000000e+02,6.479389191138668735e+00
1.160000000000000000e+02,6.510671673316125840e+00
1.170000000000000000e+02,6.541648464899573412e+00
1.180000000000000000e+02,6.572323521407897218e+00
1.190000000000000000e+02,6.602702797062740103e+00
1.200000000000000000e+02,6.632789896967640431e+00
1.210000000000000000e+02,6.662590665921816147e+00
1.220000000000000000e+02,6.692108646212991729e+00
1.230000000000000000e+02,6.721346992379744201e+00
1.240000000000000000e+02,6.750310799929246208e+00
1.250000000000000000e+02,6.779003711798718967e+00
1.260000000000000000e+02,6.807430758346035837e+00
1.270000000000000000e+02,6.835595294183150372e+00
1.280000000000000000e+02,6.863499812498353059e+00
1.290000000000000000e+02,6.891149184300201291e+00
1.300000000000000000e+02,6.918546406845234920e+00
1.310000000000000000e+02,6.945696317336992998e+00
1.320000000000000000e+02,6.972601428957874603e+00
1.330000000000000000e+02,6.999264170677399477e+00
1.340000000000000000e+02,7.025689261979274569e+00
1.350000000000000000e+02,7.051879861628692403e+00
1.360000000000000000e+02,7.077839728784898199e+00
1.370000000000000000e+02,7.103569489913638790e+00
1.380000000000000000e+02,7.129074121691673760e+00
1.390000000000000000e+02,7.154356393376444245e+00
1.400000000000000000e+02,7.179419670091362171e+00
1.410000000000000000e+02,7.204264960535185836e+00
1.420000000000000000e+02,7.228897045899300267e+00
1.430000000000000000e+02,7.253318122684124347e+00
1.440000000000000000e+02,7.277530983939708875e+00
1.450000000000000000e+02,7.301537023673822624e+00
1.460000000000000000e+02,7.325340209301832495e+00
1.470000000000000000e+02,7.348942447289379842e+00
1.480000000000000000e+02,7.372346664535517569e+00
1.490000000000000000e+02,7.395553994170428247e+00
1.500000000000000000e+02,7.418568085597935458e+00
1.510000000000000000e+02,7.441391644961742990e+00
1.520000000000000000e+02,7.464024993592275337e+00
1.530000000000000000e+02,7.486472614479646737e+00
1.540000000000000000e+02,7.508735139063941411e+00
1.550000000000000000e+02,7.530815033984553430e+00
1.560000000000000000e+02,7.552714906048084487e+00
1.570000000000000000e+02,7.574436070329374715e+00
1.580000000000000000e+02,7.595980818872455131e+00
1.590000000000000000e+02,7.617351384639737155e+00
1.600000000000000000e+02,7.638549341610135102e+00
1.610000000000000000e+02,7.659576221750913128e+00
1.620000000000000000e+02,7.680434706962333991e+00
1.630000000000000000e+02,7.701126032431716339e+00
1.640000000000000000e+02,7.721652774144857290e+00
1.650000000000000000e+02,7.742015493637921075e+00
1.660000000000000000e+02,7.762216482205430701e+00
1.670000000000000000e+02,7.782257590167500183e+00
1.680000000000000000e+02,7.802139469261860860e+00
1.690000000000000000e+02,7.821865812404203311e+00
1.700000000000000000e+02,7.841435472292924480e+00
1.710000000000000000e+02,7.860852432420113445e+00
1.720000000000000000e+02,7.880116444065907721e+00
1.730000000000000000e+02,7.899229883122900198e+00
1.740000000000000000e+02,7.918193952925400403e+00
1.750000000000000000e+02,7.937009641532811521e+00
1.760000000000000000e+02,7.955679206489415733e+00
1.770000000000000000e+02,7.974203384049202370e+00
1.780000000000000000e+02,7.992583806707390437e+00
1.790000000000000000e+02,8.010821888347267716e+00
1.800000000000000000e+02,8.028918647802804287e+00
1.810000000000000000e+02,8.046875802536051836e+00
1.820000000000000000e+02,8.064694133449053837e+00
1.830000000000000000e+02,8.082374401594794477e+00
1.840000000000000000e+02,8.099918954437782759e+00
1.850000000000000000e+02,8.117327961094192190e+00
1.860000000000000000e+02,8.134602997029698912e+00
1.870000000000000000e+02,8.151745957452439129e+00
1.880000000000000000e+02,8.168756594909401869e+00
1.890000000000000000e+02,8.185636931351575996e+00
1.900000000000000000e+02,8.202387209836178528e+00
1.910000000000000000e+02,8.219009050004141059e+00
1.920000000000000000e+02,8.235504212301973936e+00
1.930000000000000000e+02,8.251872360592273026e+00
1.940000000000000000e+02,8.268115726968348511e+00
1.950000000000000000e+02,8.284234115090509221e+00
1.960000000000000000e+02,8.300229025262684246e+00
1.970000000000000000e+02,8.316102267801369408e+00
1.980000000000000000e+02,8.331853596632301517e+00
1.990000000000000000e+02,8.347483939973125544e+00
2.000000000000000000e+02,8.362996047914352360e+00
2.010000000000000000e+02,8.378388789286645988e+00
2.020000000000000000e+02,8.393663204206227135e+00
2.030000000000000000e+02,8.408821305761694731e+00
2.040000000000000000e+02,8.423863753303441726e+00
2.050000000000000000e+02,8.438790534224130724e+00
2.060000000000000000e+02,8.453602777625190967e+00
2.070000000000000000e+02,8.468302244723238559e+00
2.080000000000000000e+02,8.482888878011410227e+00
2.090000000000000000e+02,8.497363264321696974e+00
2.100000000000000000e+02,8.511726785448255228e+00
2.110000000000000000e+02,8.525979994561593500e+00
2.120000000000000000e+02,8.540124716655689951e+00
2.130000000000000000e+02,8.554160348290047011e+00
2.140000000000000000e+02,8.568088202646480411e+00
2.150000000000000000e+02,8.581908776469095557e+00
2.160000000000000000e+02,8.595623189199777414e+00
2.170000000000000000e+02,8.609232699368796204e+00
2.180000000000000000e+02,8.622736970716548655e+00
2.190000000000000000e+02,8.636137393121009254e+00
2.200000000000000000e+02,8.649434708892437484e+00
2.210000000000000000e+02,8.662629490820670242e+00
2.220000000000000000e+02,8.675722455864393723e+00
2.230000000000000000e+02,8.688714152931087398e+00
2.240000000000000000e+02,8.701605583847289438e+00
2.250000000000000000e+02,8.714397426030760840e+00
2.260000000000000000e+02,8.727090344737080230e+00
2.270000000000000000e+02,8.739684993309564831e+00
2.280000000000000000e+02,8.752182624697489643e+00
2.290000000000000000e+02,8.764582949636471554e+00
2.300000000000000000e+02,8.776886893707672499e+00
2.310000000000000000e+02,8.789095519613397300e+00
2.320000000000000000e+02,8.801209118686109889e+00
2.330000000000000000e+02,8.813228577927976204e+00
2.340000000000000000e+02,8.825154470164200404e+00
2.350000000000000000e+02,8.836987657960479581e+00
2.360000000000000000e+02,8.848728542329654445e+00
2.370000000000000000e+02,8.860377218015322853e+00
2.380000000000000000e+02,8.871935410885299689e+00
2.390000000000000000e+02,8.883403045107588270e+00
2.400000000000000000e+02,8.894780781727311236e+00
2.410000000000000000e+02,8.906069271368114215e+00
2.420000000000000000e+02,8.917268712800774821e+00
2.430000000000000000e+02,8.928379886564657753e+00
2.440000000000000000e+02,8.939403415374597373e+00
2.450000000000000000e+02,8.950339766144830733e+00
2.460000000000000000e+02,8.961189835038414486e+00
2.470000000000000000e+02,8.971953342704335199e+00
2.480000000000000000e+02,8.982631024532334862e+00
2.490000000000000000e+02,8.993223316002989520e+00
2.500000000000000000e+02,9.003731222669971501e+00
2.510000000000000000e+02,9.014155017025466066e+00
2.520000000000000000e+02,9.024494678233203615e+00
2.530000000000000000e+02,9.034750469109601667e+00
2.540000000000000000e+02,9.044923362165999237e+00
2.550000000000000000e+02,9.055013604039011454e+00
2.560000000000000000e+02,9.065022005704710395e+00
2.570000000000000000e+02,9.074947804198794543e+00
2.580000000000000000e+02,9.084792225607799310e+00
2.590000000000000000e+02,9.094555774527272263e+00
2.600000000000000000e+02,9.104238241897004258e+00
2.610000000000000000e+02,9.113839980950025677e+00
2.620000000000000000e+02,9.123361198107142300e+00
2.630000000000000000e+02,9.133057237580841203e+00
2.640000000000000000e+02,9.142522385686840281e+00
2.650000000000000000e+02,9.151869304864181487e+00
2.660000000000000000e+02,9.161125060104865270e+00
2.670000000000000000e+02,9.170293107025790036e+00
2.680000000000000000e+02,9.179377286373368250e+00
2.690000000000000000e+02,9.188379602344022956e+00
2.700000000000000000e+02,9.197300379366932788e+00
2.710000000000000000e+02,9.206141731502642145e+00
2.720000000000000000e+02,9.214904099048013109e+00
2.730000000000000000e+02,9.223588878938143054e+00
2.740000000000000000e+02,9.232196630449793773e+00
2.750000000000000000e+02,9.240727905644984475e+00
2.760000000000000000e+02,9.249183523175531718e+00
2.770000000000000000e+02,9.257563473221928518e+00
2.780000000000000000e+02,9.265867743084477581e+00
2.790000000000000000e+02,9.274096861600892083e+00
2.800000000000000000e+02,9.282249992283398754e+00
2.810000000000000000e+02,9.290328200303868300e+00
2.820000000000000000e+02,9.298330238780108559e+00
2.830000000000000000e+02,9.306257164160696149e+00
2.840000000000000000e+02,9.314108133610348617e+00
2.850000000000000000e+02,9.321883519332496704e+00
2.860000000000000000e+02,9.329583150055434260e+00
2.870000000000000000e+02,9.337207121121474884e+00
2.880000000000000000e+02,9.344755256085246486e+00
2.890000000000000000e+02,9.352227510397534971e+00
2.900000000000000000e+02,9.359624638454860701e+00
2.910000000000000000e+02,9.366946586323354751e+00
2.920000000000000000e+02,9.374192897716921991e+00
2.930000000000000000e+02,9.381363914120901981e+00
2.940000000000000000e+02,9.388460768682881152e+00
2.950000000000000000e+02,9.395482065122664039e+00
2.960000000000000000e+02,9.402428663422004007e+00
2.970000000000000000e+02,9.409301283185328657e+00
2.980000000000000000e+02,9.416099448538885142e+00
2.990000000000000000e+02,9.422823738032473528e+00
3.000000000000000000e+02,9.429473802310852193e+00
3.010000000000000000e+02,9.436050737123608201e+00
3.020000000000000000e+02,9.442553922360641394e+00
3.030000000000000000e+02,9.448984311648388257e+00
3.040000000000000000e+02,9.455341541105248382e+00
3.050000000000000000e+02,9.461625899630073278e+00
3.060000000000000000e+02,9.467838193967342164e+00
3.070000000000000000e+02,9.473978310760934107e+00
3.080000000000000000e+02,9.480046525079220743e+00
3.090000000000000000e+02,9.486042977579144164e+00
3.100000000000000000e+02,9.491968065152649459e+00
3.110000000000000000e+02,9.497822439357747726e+00
3.120000000000000000e+02,9.503605838441131937e+00
3.130000000000000000e+02,9.509319034694279082e+00
3.140000000000000000e+02,9.514961888790502087e+00
3.150000000000000000e+02,9.520534517548187026e+00
3.160000000000000000e+02,9.526038066414345806e+00
3.170000000000000000e+02,9.531472384281974186e+00
3.180000000000000000e+02,9.536837704117440140e+00
3.190000000000000000e+02,9.542134897927237347e+00
3.200000000000000000e+02,9.547364060630583182e+00
3.210000000000000000e+02,9.552525155788572420e+00
3.220000000000000000e+02,9.557619169636403456e+00
3.230000000000000000e+02,9.562646185504643626e+00
3.240000000000000000e+02,9.567607051064996426e+00
3.250000000000000000e+02,9.572501458187188561e+00
3.260000000000000000e+02,9.577330628901481901e+00
3.270000000000000000e+02,9.582094120404436310e+00
3.280000000000000000e+02,9.586793017588210120e+00
3.290000000000000000e+02,9.591428016911859089e+00
3.300000000000000000e+02,9.595998665638077796e+00
3.310000000000000000e+02,9.600506542438566271e+00
3.320000000000000000e+02,9.604950933754292208e+00
3.330000000000000000e+02,9.609333154684643219e+00
3.340000000000000000e+02,9.613653753302649818e+00
3.350000000000000000e+02,9.617913400029776128e+00
3.360000000000000000e+02,9.622112128552082311e+00
3.370000000000000000e+02,9.626251233534471652e+00
3.380000000000000000e+02,9.630330236007388578e+00
3.390000000000000000e+02,9.634349917661690910e+00
3.400000000000000000e+02,9.638311685553652808e+00
3.410000000000000000e+02,9.642215681030771535e+00
3.420000000000000000e+02,9.646062672062351240e+00
3.430000000000000000e+02,9.649852919405644158e+00
3.440000000000000000e+02,9.653586932324813574e+00
3.450000000000000000e+02,9.657266346286613512e+00
3.460000000000000000e+02,9.660890532384454943e+00
3.470000000000000000e+02,9.664501724423068652e+00
3.480000000000000000e+02,9.668039461403504120e+00
3.490000000000000000e+02,9.671520673215045605e+00
3.500000000000000000e+02,9.674949482786489696e+00
3.510000000000000000e+02,9.678327375267802068e+00
3.520000000000000000e+02,9.681656079874787935e+00
3.530000000000000000e+02,9.684936071605200425e+00
3.540000000000000000e+02,9.688168072195278313e+00
3.550000000000000000e+02,9.691353547893783116e+00
3.560000000000000000e+02,9.694492714246935705e+00
3.570000000000000000e+02,9.697586905247268518e+00
3.580000000000000000e+02,9.700636703885354706e+00
3.590000000000000000e+02,9.703642068913271856e+00
3.600000000000000000e+02,9.706603827725196254e+00
3.610000000000000000e+02,9.709521811204192332e+00
3.620000000000000000e+02,9.712396594081807777e+00
3.630000000000000000e+02,9.715228996660439265e+00
3.640000000000000000e+02,9.718018348826436892e+00
3.650000000000000000e+02,9.720766086911233117e+00
3.660000000000000000e+02,9.723471909564652904e+00
3.670000000000000000e+02,9.726136876266949116e+00
3.680000000000000000e+02,9.728761177418498107e+00
3.690000000000000000e+02,9.731346238151692418e+00
3.700000000000000000e+02,9.733891502863244227e+00
3.710000000000000000e+02,9.736399009355107381e+00
3.720000000000000000e+02,9.738868568759038169e+00
3.730000000000000000e+02,9.741301101979045640e+00
3.740000000000000000e+02,9.743697527250986923e+00
3.750000000000000000e+02,9.746058513736045370e+00
3.760000000000000000e+02,9.748384851723523425e+00
3.770000000000000000e+02,9.750677821762174347e+00
3.780000000000000000e+02,9.752936978387293010e+00
3.790000000000000000e+02,9.755164336484536847e+00
3.800000000000000000e+02,9.757359939359721679e+00
3.810000000000000000e+02,9.759524935740907736e+00
3.820000000000000000e+02,9.761659243283780540e+00
3.830000000000000000e+02,9.763764989509272851e+00
3.840000000000000000e+02,9.765841351972690987e+00
3.850000000000000000e+02,9.767890208296456933e+00
3.860000000000000000e+02,9.769911592899530817e+00
3.870000000000000000e+02,9.771906397816568557e+00
3.880000000000000000e+02,9.773875390656979079e+00
3.890000000000000000e+02,9.775819214898838538e+00
3.900000000000000000e+02,9.777738390171423433e+00
3.910000000000000000e+02,9.779633557317378489e+00
3.920000000000000000e+02,9.781505722882615217e+00
3.930000000000000000e+02,9.783355035434377456e+00
3.940000000000000000e+02,9.785182132029495605e+00
3.950000000000000000e+02,9.786987526263470016e+00
3.960000000000000000e+02,9.788772585857408615e+00
3.970000000000000000e+02,9.790536844440758557e+00
3.980000000000000000e+02,9.792281423092108028e+00
