# Time [s], Temperature [C]
1.000000000000000000e+00,2.499996799999999908e+01
2.000000000000000000e+00,4.672520399999999796e+01
3.000000000000000000e+00,5.940902299999999769e+01
4.000000000000000000e+00,6.968127400000000193e+01
5.000000000000000000e+00,7.827798500000000104e+01
6.000000000000000000e+00,8.581735999999999365e+01
7.000000000000000000e+00,9.256440000000000623e+01
8.000000000000000000e+00,9.870548200000000350e+01
9.000000000000000000e+00,1.043583500000000015e+02
1.000000000000000000e+01,1.096093900000000048e+02
1.100000000000000000e+01,1.145212099999999964e+02
1.200000000000000000e+01,1.191417399999999986e+02
1.300000000000000000e+01,1.235086399999999998e+02
1.400000000000000000e+01,1.276527300000000054e+02
1.500000000000000000e+01,1.315987399999999923e+02
1.600000000000000000e+01,1.353665300000000116e+02
1.700000000000000000e+01,1.389732500000000073e+02
1.800000000000000000e+01,1.424340500000000134e+02
1.900000000000000000e+01,1.457609600000000114e+02
2.000000000000000000e+01,1.489660900000000083e+02
2.100000000000000000e+01,1.520568800000000067e+02
2.200000000000000000e+01,1.550427999999999997e+02
2.300000000000000000e+01,1.579324300000000108e+02
2.400000000000000000e+01,1.607296299999999860e+02
2.500000000000000000e+01,1.634420900000000074e+02
2.600000000000000000e+01,1.660750899999999888e+02
2.700000000000000000e+01,1.686329700000000003e+02
2.800000000000000000e+01,1.711199799999999982e+02
2.900000000000000000e+01,1.735405700000000024e+02
3.000000000000000000e+01,1.758979300000000023e+02
3.100000000000000000e+01,1.781955299999999909e+02
3.200000000000000000e+01,1.804366799999999955e+02
3.300000000000000000e+01,1.826235700000000008e+02
3.400000000000000000e+01,1.847593400000000088e+02
3.500000000000000000e+01,1.868469200000000114e+02
3.600000000000000000e+01,1.888879100000000051e+02
3.700000000000000000e+01,1.908849500000000035e+02
3.800000000000000000e+01,1.928404500000000041e+02
3.900000000000000000e+01,1.947556500000000028e+02
4.000000000000000000e+01,1.966325099999999964e+02
4.100000000000000000e+01,1.984733600000000138e+02
4.200000000000000000e+01,2.002795399999999972e+02
4.300000000000000000e+01,2.020520799999999895e+02
4.400000000000000000e+01,2.037944300000000055e+02
4.500000000000000000e+01,2.055058699999999874e+02
4.600000000000000000e+01,2.071894499999999937e+02
4.700000000000000000e+01,2.088456400000000031e+02
4.800000000000000000e+01,2.104761000000000024e+02
4.900000000000000000e+01,2.120814799999999991e+02
5.000000000000000000e+01,2.136643200000000036e+02
5.100000000000000000e+01,2.152243300000000090e+02
5.200000000000000000e+01,2.167626999999999953e+02
5.300000000000000000e+01,2.182810399999999902e+02
5.400000000000000000e+01,2.197786399999999958e+02
5.500000000000000000e+01,2.212568100000000015e+02
5.600000000000000000e+01,2.227168900000000065e+02
5.700000000000000000e+01,2.241577900000000056e+02
5.800000000000000000e+01,2.255807800000000043e+02
5.900000000000000000e+01,2.269861300000000028e+02
6.000000000000000000e+01,2.283730300000000000e+02
6.100000000000000000e+01,2.297418999999999869e+02
6.200000000000000000e+01,2.310936599999999999e+02
6.300000000000000000e+01,2.324260899999999879e+02
6.400000000000000000e+01,2.337411500000000046e+02
6.500000000000000000e+01,2.350382199999999955e+02
6.600000000000000000e+01,2.363161599999999964e+02
6.700000000000000000e+01,2.375754699999999957e+02
6.800000000000000000e+01,2.388170599999999979e+02
6.900000000000000000e+01,2.400397600000000011e+02
7.000000000000000000e+01,2.412438699999999869e+02
7.100000000000000000e+01,2.424303700000000106e+02
7.200000000000000000e+01,2.435985300000000109e+02
7.300000000000000000e+01,2.447488099999999918e+02
7.400000000000000000e+01,2.458827400000000125e+02
7.500000000000000000e+01,2.469988099999999918e+02
7.600000000000000000e+01,2.480980099999999879e+02
7.700000000000000000e+01,2.491814099999999996e+02
7.800000000000000000e+01,2.502490500000000111e+02
7.900000000000000000e+01,2.513013300000000072e+02
8.000000000000000000e+01,2.523389999999999986e+02
8.100000000000000000e+01,2.533619400000000041e+02
8.200000000000000000e+01,2.543708599999999933e+02
8.300000000000000000e+01,2.553667900000000088e+02
8.400000000000000000e+01,2.563496999999999844e+02
8.500000000000000000e+01,2.573189399999999978e+02
8.600000000000000000e+01,2.582772199999999998e+02
8.700000000000000000e+01,2.592233600000000138e+02
8.800000000000000000e+01,2.601571000000000140e+02
8.900000000000000000e+01,2.610816699999999742e+02
9.000000000000000000e+01,2.619946899999999914e+02
9.100000000000000000e+01,2.628962700000000154e+02
9.200000000000000000e+01,2.637896400000000199e+02
9.300000000000000000e+01,2.646718399999999747e+02
9.400000000000000000e+01,2.655443099999999959e+02
9.500000000000000000e+01,2.664093599999999924e+02
9.600000000000000000e+01,2.672642799999999852e+02
9.700000000000000000e+01,2.681096499999999878e+02
9.800000000000000000e+01,2.689482399999999984e+02
9.900000000000000000e+01,2.697775599999999940e+02
1.000000000000000000e+02,2.705982999999999947e+02
1.010000000000000000e+02,2.714118300000000090e+02
1.020000000000000000e+02,2.722171599999999785e+02
1.030000000000000000e+02,2.730143100000000231e+02
1.040000000000000000e+02,2.738059400000000210e+02
1.050000000000000000e+02,2.745889000000000237e+02
1.060000000000000000e+02,2.753642300000000205e+02
1.070000000000000000e+02,2.761344300000000089e+02
1.080000000000000000e+02,2.768960299999999961e+02
1.090000000000000000e+02,2.776502100000000155e+02
1.100000000000000000e+02,2.784001200000000154e+02
1.110000000000000000e+02,2.791416600000000017e+02
1.120000000000000000e+02,2.798761000000000081e+02
1.130000000000000000e+02,2.806067800000000148e+02
1.140000000000000000e+02,2.813289199999999823e+02
1.150000000000000000e+02,2.820442499999999768e+02
1.160000000000000000e+02,2.827573199999999929e+02
1.170000000000000000e+02,2.834609399999999937e+02
1.180000000000000000e+02,2.841578999999999837e+02
1.190000000000000000e+02,2.848523900000000140e+02
1.200000000000000000e+02,2.855380900000000111e+02
1.210000000000000000e+02,2.862174699999999916e+02
1.220000000000000000e+02,2.868945600000000127e+02
1.230000000000000000e+02,2.875627400000000193e+02
1.240000000000000000e+02,2.882250399999999786e+02
1.250000000000000000e+02,2.888854699999999980e+02
1.260000000000000000e+02,2.895366799999999898e+02
1.270000000000000000e+02,2.901815500000000156e+02
1.280000000000000000e+02,2.908256499999999960e+02
1.290000000000000000e+02,2.914607199999999807e+02
1.300000000000000000e+02,2.920889900000000239e+02
1.310000000000000000e+02,2.927170399999999972e+02
1.320000000000000000e+02,2.933354199999999992e+02
1.330000000000000000e+02,2.939471100000000092e+02
1.340000000000000000e+02,2.945599700000000212e+02
1.350000000000000000e+02,2.951618000000000279e+02
1.360000000000000000e+02,2.957575699999999870e+02
1.370000000000000000e+02,2.963549499999999739e+02
1.380000000000000000e+02,2.969408000000000243e+02
1.390000000000000000e+02,2.975207199999999830e+02
1.400000000000000000e+02,2.981030000000000086e+02
1.410000000000000000e+02,2.986736500000000092e+02
1.420000000000000000e+02,2.992373400000000174e+02
1.430000000000000000e+02,2.998042599999999993e+02
1.440000000000000000e+02,3.003597399999999880e+02
1.450000000000000000e+02,3.009073200000000270e+02
1.460000000000000000e+02,3.014605099999999993e+02
1.470000000000000000e+02,3.020000000000000000e+02
1.480000000000000000e+02,3.025323799999999892e+02
1.490000000000000000e+02,3.030706200000000194e+02
1.500000000000000000e+02,3.035952800000000025e+02
1.510000000000000000e+02,3.041119699999999852e+02
1.520000000000000000e+02,3.046363499999999931e+02
1.530000000000000000e+02,3.051456000000000017e+02
1.540000000000000000e+02,3.056477100000000178e+02
1.550000000000000000e+02,3.061583299999999781e+02
1.560000000000000000e+02,3.066528000000000134e+02
1.570000000000000000e+02,3.071403500000000122e+02
1.580000000000000000e+02,3.076364399999999932e+02
1.590000000000000000e+02,3.081168799999999806e+02
1.600000000000000000e+02,3.085897199999999998e+02
1.610000000000000000e+02,3.090728500000000167e+02
1.620000000000000000e+02,3.095385099999999738e+02
1.630000000000000000e+02,3.099971899999999891e+02
1.640000000000000000e+02,3.104672199999999975e+02
1.650000000000000000e+02,3.109192499999999768e+02
1.660000000000000000e+02,3.113636799999999880e+02
1.670000000000000000e+02,3.118215599999999768e+02
1.680000000000000000e+02,3.122594900000000280e+02
1.690000000000000000e+02,3.126899399999999787e+02
1.700000000000000000e+02,3.131358599999999797e+02
1.710000000000000000e+02,3.135609400000000164e+02
1.720000000000000000e+02,3.139780900000000088e+02
1.730000000000000000e+02,3.144120500000000220e+02
1.740000000000000000e+02,3.148242500000000064e+02
1.750000000000000000e+02,3.152288500000000226e+02
1.760000000000000000e+02,3.156516100000000051e+02
1.770000000000000000e+02,3.160513599999999883e+02
1.780000000000000000e+02,3.164430500000000279e+02
1.790000000000000000e+02,3.168550399999999740e+02
1.800000000000000000e+02,3.172427999999999884e+02
1.810000000000000000e+02,3.176227999999999838e+02
1.820000000000000000e+02,3.180245400000000018e+02
1.830000000000000000e+02,3.184008200000000102e+02
1.840000000000000000e+02,3.187693499999999744e+02
1.850000000000000000e+02,3.191612900000000081e+02
1.860000000000000000e+02,3.195265499999999861e+02
1.870000000000000000e+02,3.198841899999999896e+02
1.880000000000000000e+02,3.202670299999999770e+02
1.890000000000000000e+02,3.206220400000000268e+02
1.900000000000000000e+02,3.209688400000000001e+02
1.910000000000000000e+02,3.213429899999999861e+02
1.920000000000000000e+02,3.216876500000000192e+02
1.930000000000000000e+02,3.220248100000000022e+02
1.940000000000000000e+02,3.223907500000000255e+02
1.950000000000000000e+02,3.227259199999999737e+02
1.960000000000000000e+02,3.230536200000000235e+02
1.970000000000000000e+02,3.234122600000000034e+02
1.980000000000000000e+02,3.237379799999999932e+02
1.990000000000000000e+02,3.240566099999999778e+02
2.000000000000000000e+02,3.244077800000000025e+02
2.010000000000000000e+02,3.247253400000000170e+02
2.020000000000000000e+02,3.250360099999999761e+02
2.030000000000000000e+02,3.253803100000000086e+02
2.040000000000000000e+02,3.256898800000000165e+02
2.050000000000000000e+02,3.259922199999999748e+02
2.060000000000000000e+02,3.263306900000000041e+02
2.070000000000000000e+02,3.266330600000000004e+02
2.080000000000000000e+02,3.269282200000000103e+02
2.090000000000000000e+02,3.272611099999999738e+02
2.100000000000000000e+02,3.275558500000000208e+02
2.110000000000000000e+02,3.278442400000000134e+02
2.120000000000000000e+02,3.281714200000000119e+02
2.130000000000000000e+02,3.284595299999999725e+02
2.140000000000000000e+02,3.287409099999999853e+02
2.150000000000000000e+02,3.290647000000000162e+02
2.160000000000000000e+02,3.293463399999999979e+02
2.170000000000000000e+02,3.296218900000000076e+02
2.180000000000000000e+02,3.299402200000000107e+02
2.190000000000000000e+02,3.302167099999999778e+02
2.200000000000000000e+02,3.304865100000000098e+02
2.210000000000000000e+02,3.308009000000000128e+02
2.220000000000000000e+02,3.310718400000000088e+02
2.230000000000000000e+02,3.313357500000000186e+02
2.240000000000000000e+02,3.316463299999999776e+02
2.250000000000000000e+02,3.319126299999999787e+02
2.260000000000000000e+02,3.321717199999999934e+02
2.270000000000000000e+02,3.324790300000000229e+02
2.280000000000000000e+02,3.327399899999999775e+02
2.290000000000000000e+02,3.329948999999999728e+02
2.300000000000000000e+02,3.332989499999999907e+02
2.310000000000000000e+02,3.335554500000000075e+02
2.320000000000000000e+02,3.338054799999999886e+02
2.330000000000000000e+02,3.341073000000000093e+02
2.340000000000000000e+02,3.343596800000000258e+02
2.350000000000000000e+02,3.346057700000000068e+02
2.360000000000000000e+02,3.349042999999999779e+02
2.370000000000000000e+02,3.351532300000000077e+02
2.380000000000000000e+02,3.353956600000000208e+02
2.390000000000000000e+02,3.356918000000000006e+02
2.400000000000000000e+02,3.359363700000000108e+02
2.410000000000000000e+02,3.361757799999999747e+02
2.420000000000000000e+02,3.364699400000000082e+02
2.430000000000000000e+02,3.367100500000000238e+02
2.440000000000000000e+02,3.369469000000000278e+02
2.450000000000000000e+02,3.372388599999999883e+02
2.460000000000000000e+02,3.374757099999999923e+02
2.470000000000000000e+02,3.377086800000000153e+02
2.480000000000000000e+02,3.379993600000000242e+02
2.490000000000000000e+02,3.382330900000000042e+02
2.500000000000000000e+02,3.384640499999999861e+02
2.510000000000000000e+02,3.387514600000000087e+02
2.520000000000000000e+02,3.389830000000000041e+02
2.530000000000000000e+02,3.392112099999999941e+02
2.540000000000000000e+02,3.394967300000000137e+02
2.550000000000000000e+02,3.397252500000000168e+02
2.560000000000000000e+02,3.399509899999999902e+02
2.570000000000000000e+02,3.402348000000000070e+02
2.580000000000000000e+02,3.404614300000000071e+02
2.590000000000000000e+02,3.406834400000000187e+02
2.600000000000000000e+02,3.409670399999999972e+02
2.610000000000000000e+02,3.411896399999999971e+02
2.620000000000000000e+02,3.414101900000000001e+02
2.630000000000000000e+02,3.416139800000000264e+02
2.640000000000000000e+02,3.402374300000000176e+02
2.650000000000000000e+02,3.404453700000000254e+02
2.660000000000000000e+02,3.403680699999999888e+02
2.670000000000000000e+02,3.405038099999999872e+02
2.680000000000000000e+02,3.406268299999999840e+02
2.690000000000000000e+02,3.408509500000000116e+02
2.700000000000000000e+02,3.410346099999999865e+02
2.710000000000000000e+02,3.412246400000000222e+02
2.720000000000000000e+02,3.414743000000000279e+02
2.730000000000000000e+02,3.416831099999999992e+02
2.740000000000000000e+02,3.418859899999999925e+02
2.750000000000000000e+02,3.421485299999999938e+02
2.760000000000000000e+02,3.423627900000000182e+02
2.770000000000000000e+02,3.425723300000000222e+02
2.780000000000000000e+02,3.428374900000000025e+02
2.790000000000000000e+02,3.430555100000000266e+02
2.800000000000000000e+02,3.432663000000000011e+02
2.810000000000000000e+02,3.435332599999999843e+02
2.820000000000000000e+02,3.437504299999999944e+02
2.830000000000000000e+02,3.439621300000000019e+02
2.840000000000000000e+02,3.442289099999999848e+02
2.850000000000000000e+02,3.444457100000000196e+02
2.860000000000000000e+02,3.446575599999999895e+02
2.870000000000000000e+02,3.449224500000000262e+02
2.880000000000000000e+02,3.451402600000000120e+02
2.890000000000000000e+02,3.453491799999999898e+02
2.900000000000000000e+02,3.456144100000000208e+02
2.910000000000000000e+02,3.458295899999999961e+02
2.920000000000000000e+02,3.460381499999999733e+02
2.930000000000000000e+02,3.463018500000000017e+02
2.940000000000000000e+02,3.465157500000000255e+02
2.950000000000000000e+02,3.467238199999999892e+02
2.960000000000000000e+02,3.469853800000000206e+02
2.970000000000000000e+02,3.471986699999999928e+02
2.980000000000000000e+02,3.474039900000000216e+02
2.990000000000000000e+02,3.476651600000000144e+02
3.000000000000000000e+02,3.478753399999999942e+02
3.010000000000000000e+02,3.480808700000000044e+02
3.020000000000000000e+02,3.483391700000000242e+02
3.030000000000000000e+02,3.485478800000000206e+02
3.040000000000000000e+02,3.487527200000000107e+02
3.050000000000000000e+02,3.490076599999999871e+02
3.060000000000000000e+02,3.492171900000000164e+02
3.070000000000000000e+02,3.494181800000000067e+02
3.080000000000000000e+02,3.496729100000000017e+02
3.090000000000000000e+02,3.498790900000000192e+02
3.100000000000000000e+02,3.500801999999999907e+02
3.110000000000000000e+02,3.503318499999999744e+02
3.120000000000000000e+02,3.505364099999999894e+02
3.130000000000000000e+02,3.507358100000000150e+02
3.140000000000000000e+02,3.509861500000000092e+02
3.150000000000000000e+02,3.511883199999999761e+02
3.160000000000000000e+02,3.513867500000000064e+02
3.170000000000000000e+02,3.516343100000000277e+02
3.180000000000000000e+02,3.518354499999999803e+02
3.190000000000000000e+02,3.520324100000000271e+02
3.200000000000000000e+02,3.522759699999999725e+02
3.210000000000000000e+02,3.524773900000000140e+02
3.220000000000000000e+02,3.526709299999999985e+02
3.230000000000000000e+02,3.529146999999999821e+02
3.240000000000000000e+02,3.531115699999999720e+02
3.250000000000000000e+02,3.533065500000000156e+02
3.260000000000000000e+02,3.535449199999999905e+02
3.270000000000000000e+02,3.537422199999999748e+02
3.280000000000000000e+02,3.539333199999999806e+02
3.290000000000000000e+02,3.541711999999999989e+02
3.300000000000000000e+02,3.543655400000000100e+02
3.310000000000000000e+02,3.545564600000000155e+02
3.320000000000000000e+02,3.547905900000000088e+02
3.330000000000000000e+02,3.549840699999999742e+02
3.340000000000000000e+02,3.551724500000000262e+02
3.350000000000000000e+02,3.554048799999999915e+02
3.360000000000000000e+02,3.555947899999999890e+02
3.370000000000000000e+02,3.557837499999999977e+02
3.380000000000000000e+02,3.560112599999999929e+02
3.390000000000000000e+02,3.562028199999999742e+02
3.400000000000000000e+02,3.563865099999999870e+02
3.410000000000000000e+02,3.566147199999999771e+02
3.420000000000000000e+02,3.568010300000000257e+02
3.430000000000000000e+02,3.569869699999999852e+02
3.440000000000000000e+02,3.572088899999999967e+02
3.450000000000000000e+02,3.573970299999999725e+02
3.460000000000000000e+02,3.575779099999999744e+02
3.470000000000000000e+02,3.578261400000000094e+02
3.480000000000000000e+02,3.568179299999999898e+02
3.490000000000000000e+02,3.569599299999999857e+02
3.500000000000000000e+02,3.568886100000000283e+02
3.510000000000000000e+02,3.569859900000000152e+02
3.520000000000000000e+02,3.570766300000000228e+02
3.530000000000000000e+02,3.572459999999999809e+02
3.540000000000000000e+02,3.573883400000000279e+02
3.550000000000000000e+02,3.575407400000000280e+02
3.560000000000000000e+02,3.577336999999999989e+02
3.570000000000000000e+02,3.579014300000000048e+02
3.580000000000000000e+02,3.580675400000000081e+02
3.590000000000000000e+02,3.582713600000000156e+02
3.600000000000000000e+02,3.584475699999999847e+02
3.610000000000000000e+02,3.586195700000000102e+02
3.620000000000000000e+02,3.588272999999999797e+02
3.630000000000000000e+02,3.590060700000000224e+02
3.640000000000000000e+02,3.591811200000000213e+02
3.650000000000000000e+02,3.593895600000000172e+02
3.660000000000000000e+02,3.595682699999999841e+02
3.670000000000000000e+02,3.597448999999999728e+02
3.680000000000000000e+02,3.599504699999999957e+02
3.690000000000000000e+02,3.601315599999999790e+02
3.700000000000000000e+02,3.603051500000000260e+02
3.710000000000000000e+02,3.605119300000000067e+02
3.720000000000000000e+02,3.606893000000000029e+02
3.730000000000000000e+02,3.608649899999999775e+02
3.740000000000000000e+02,3.610668299999999817e+02
3.750000000000000000e+02,3.612459400000000187e+02
3.760000000000000000e+02,3.614182400000000257e+02
3.770000000000000000e+02,3.616191400000000158e+02
3.780000000000000000e+02,3.617955299999999852e+02
3.790000000000000000e+02,3.619670100000000161e+02
3.800000000000000000e+02,3.621660200000000032e+02
3.810000000000000000e+02,3.623402399999999943e+02
3.820000000000000000e+02,3.625111099999999738e+02
3.830000000000000000e+02,3.627069399999999746e+02
3.840000000000000000e+02,3.628804900000000089e+02
3.850000000000000000e+02,3.630500799999999799e+02
3.860000000000000000e+02,3.632426500000000260e+02
3.870000000000000000e+02,3.634155000000000086e+02
3.880000000000000000e+02,3.635816300000000183e+02
3.890000000000000000e+02,3.637744400000000269e+02
3.900000000000000000e+02,3.639428100000000086e+02
3.910000000000000000e+02,3.641104399999999828e+02
3.920000000000000000e+02,3.642999300000000176e+02
3.930000000000000000e+02,3.644669200000000160e+02
3.940000000000000000e+02,3.646329999999999814e+02
3.950000000000000000e+02,3.648179299999999898e+02
3.960000000000000000e+02,3.649861799999999903e+02
3.970000000000000000e+02,3.651477100000000178e+02
3.980000000000000000e+02,3.653334699999999771e+02
3.990000000000000000e+02,3.654978600000000029e+02
