# Time [s], Convective Heat Transfer Coefficient [W/m2K]
1.000000000000000000e+00,0.000000000000000000e+00
2.000000000000000000e+00,0.000000000000000000e+00
3.000000000000000000e+00,0.000000000000000000e+00
4.000000000000000000e+00,0.000000000000000000e+00
5.000000000000000000e+00,2.762023300960968902e-02
6.000000000000000000e+00,4.825699198029582276e-02
7.000000000000000000e+00,7.835807837898799144e-02
8.000000000000000000e+00,1.180958225773333092e-01
9.000000000000000000e+00,1.686529030067152324e-01
1.000000000000000000e+01,2.299867850756665832e-01
1.100000000000000000e+01,3.018312312299761824e-01
1.200000000000000000e+01,3.833269471588000021e-01
1.300000000000000000e+01,4.734301497087701205e-01
1.400000000000000000e+01,5.709662071824012086e-01
1.500000000000000000e+01,6.747530524417253428e-01
1.600000000000000000e+01,7.836513187785996148e-01
1.700000000000000000e+01,8.966369520681558569e-01
1.800000000000000000e+01,1.012790064349852637e+00
1.900000000000000000e+01,1.131312981772488513e+00
2.000000000000000000e+01,1.251517213086966951e+00
2.100000000000000000e+01,1.372813888159750473e+00
2.200000000000000000e+01,1.494711359511378790e+00
2.300000000000000000e+01,1.616786139934784927e+00
2.400000000000000000e+01,1.738692609274962830e+00
2.500000000000000000e+01,1.860141267734950254e+00
2.600000000000000000e+01,1.980888173934030272e+00
2.700000000000000000e+01,2.100736035842785121e+00
2.800000000000000000e+01,2.219523928445338967e+00
2.900000000000000000e+01,2.337118979731365620e+00
3.000000000000000000e+01,2.453411756801000543e+00
3.100000000000000000e+01,2.568320403444535494e+00
3.200000000000000000e+01,2.681779500423538298e+00
3.300000000000000000e+01,2.793738931949047100e+00
3.400000000000000000e+01,2.904159656434330827e+00
3.500000000000000000e+01,3.013013838640991704e+00
3.600000000000000000e+01,3.120283985774454649e+00
3.700000000000000000e+01,3.225962590054934243e+00
3.800000000000000000e+01,3.330046524118130069e+00
3.900000000000000000e+01,3.432534152268573280e+00
4.000000000000000000e+01,3.533436677775441126e+00
4.100000000000000000e+01,3.632760882616553388e+00
4.200000000000000000e+01,3.730517896023230584e+00
4.300000000000000000e+01,3.826727886652956823e+00
4.400000000000000000e+01,3.921404216734636794e+00
4.500000000000000000e+01,4.014565606562659816e+00
4.600000000000000000e+01,4.106230553348015455e+00
4.700000000000000000e+01,4.196416429441761409e+00
4.800000000000000000e+01,4.285145645071763987e+00
4.900000000000000000e+01,4.372438431632081901e+00
5.000000000000000000e+01,4.458313114757239681e+00
5.100000000000000000e+01,4.542791397364687178e+00
5.200000000000000000e+01,4.625894217324541202e+00
5.300000000000000000e+01,4.707639687494646452e+00
5.400000000000000000e+01,4.788048304543323752e+00
5.500000000000000000e+01,4.867139207905771592e+00
5.600000000000000000e+01,4.944934188555072829e+00
5.700000000000000000e+01,5.021453599543776569e+00
5.800000000000000000e+01,5.096715746601500285e+00
5.900000000000000000e+01,5.170741601851505109e+00
6.000000000000000000e+01,5.243550655329755728e+00
6.100000000000000000e+01,5.315164114895490677e+00
6.200000000000000000e+01,5.385602770312363674e+00
6.300000000000000000e+01,5.454883695383347941e+00
6.400000000000000000e+01,5.523030259184295687e+00
6.500000000000000000e+01,5.590064185946133080e+00
6.600000000000000000e+01,5.656002759893474341e+00
6.700000000000000000e+01,5.720869931440418554e+00
6.800000000000000000e+01,5.784683710189546524e+00
6.900000000000000000e+01,5.847467955870985890e+00
7.000000000000000000e+01,5.909239896437308737e+00
7.100000000000000000e+01,5.970022825339174055e+00
7.200000000000000000e+01,6.029834814458791215e+00
7.300000000000000000e+01,6.088698100488388221e+00
7.400000000000000000e+01,6.146633156141204424e+00
7.500000000000000000e+01,6.203656768454742121e+00
7.600000000000000000e+01,6.259792003243070724e+00
7.700000000000000000e+01,6.315056781953055420e+00
7.800000000000000000e+01,6.369468843695126559e+00
7.900000000000000000e+01,6.423049439739760835e+00
8.000000000000000000e+01,6.475816230008184071e+00
8.100000000000000000e+01,6.527785736391467530e+00
8.200000000000000000e+01,6.578977727092484962e+00
8.300000000000000000e+01,6.629409985952654516e+00
8.400000000000000000e+01,6.679097673370473665e+00
8.500000000000000000e+01,6.728058171454152081e+00
8.600000000000000000e+01,6.776308630448778736e+00
8.700000000000000000e+01,6.823864478259233479e+00
8.800000000000000000e+01,6.870739539958399256e+00
8.900000000000000000e+01,6.916951773371217804e+00
9.000000000000000000e+01,6.962514789876094845e+00
9.100000000000000000e+01,7.007441713342839940e+00
9.200000000000000000e+01,7.051748978836506865e+00
9.300000000000000000e+01,7.095449155671013308e+00
9.400000000000000000e+01,7.138553942033885491e+00
9.500000000000000000e+01,7.181078985690015237e+00
9.600000000000000000e+01,7.223035355308451422e+00
9.700000000000000000e+01,7.264434686446975320e+00
9.800000000000000000e+01,7.305290906763126202e+00
9.900000000000000000e+01,7.345614038855445393e+00
1.000000000000000000e+02,7.385415136645476331e+00
1.010000000000000000e+02,7.424707294725232387e+00
1.020000000000000000e+02,7.463498820930993816e+00
1.030000000000000000e+02,7.502060765268947051e+00
1.040000000000000000e+02,7.539989195047216874e+00
1.050000000000000000e+02,7.577409150347842015e+00
1.060000000000000000e+02,7.614357127599448383e+00
1.070000000000000000e+02,7.650844980615629787e+00
1.080000000000000000e+02,7.686887246598596235e+00
1.090000000000000000e+02,7.722492979578475136e+00
1.100000000000000000e+02,7.757675147110591141e+00
1.110000000000000000e+02,7.792444097177956053e+00
1.120000000000000000e+02,7.826811309120782489e+00
1.130000000000000000e+02,7.860784991428713120e+00
1.140000000000000000e+02,7.894375296586941815e+00
1.150000000000000000e+02,7.927588468141713030e+00
1.160000000000000000e+02,7.960432177742092996e+00
1.170000000000000000e+02,7.992912353739883180e+00
1.180000000000000000e+02,8.025035434344991003e+00
1.190000000000000000e+02,8.056806545568241162e+00
1.200000000000000000e+02,8.088230627435343933e+00
1.210000000000000000e+02,8.119313507550030451e+00
1.220000000000000000e+02,8.150060987489572639e+00
1.230000000000000000e+02,8.180477270941233670e+00
1.240000000000000000e+02,8.210568149287702511e+00
1.250000000000000000e+02,8.240338703971044509e+00
1.260000000000000000e+02,8.269793333304216176e+00
1.270000000000000000e+02,8.298937477327886114e+00
1.280000000000000000e+02,8.327776063602923884e+00
1.290000000000000000e+02,8.356312520299617574e+00
1.300000000000000000e+02,8.384551825094137101e+00
1.310000000000000000e+02,8.412498304009407235e+00
1.320000000000000000e+02,8.440156804322295869e+00
1.330000000000000000e+02,8.467530719561723984e+00
1.340000000000000000e+02,8.494624146011835464e+00
1.350000000000000000e+02,8.521440410399815590e+00
1.360000000000000000e+02,8.547983216167965637e+00
1.370000000000000000e+02,8.574256314134144574e+00
1.380000000000000000e+02,8.600262868820989226e+00
1.390000000000000000e+02,8.626006263394055296e+00
1.400000000000000000e+02,8.651489311867344156e+00
1.410000000000000000e+02,8.676715364774244321e+00
1.420000000000000000e+02,8.701686284527617943e+00
1.430000000000000000e+02,8.726405716435559512e+00
1.440000000000000000e+02,8.750876287496719641e+00
1.450000000000000000e+02,8.775100091419549386e+00
1.460000000000000000e+02,8.799079761975615810e+00
1.470000000000000000e+02,8.822817857241123107e+00
1.480000000000000000e+02,8.846316114192964264e+00
1.490000000000000000e+02,8.869576512303991578e+00
1.500000000000000000e+02,8.892601119417562927e+00
1.510000000000000000e+02,8.915391500674813230e+00
1.520000000000000000e+02,8.937949610709054582e+00
1.530000000000000000e+02,8.960282012382183581e+00
1.540000000000000000e+02,8.982383078913844798e+00
1.550000000000000000e+02,9.004256515922756776e+00
1.560000000000000000e+02,9.025904789569175080e+00
1.570000000000000000e+02,9.047330872999513218e+00
1.580000000000000000e+02,9.068538377380765070e+00
1.590000000000000000e+02,9.089531112851005901e+00
1.600000000000000000e+02,9.110310828299009955e+00
1.610000000000000000e+02,9.130877960798029491e+00
1.620000000000000000e+02,9.151233621988495770e+00
1.630000000000000000e+02,9.171376103896527354e+00
1.640000000000000000e+02,9.191304127093459897e+00
1.650000000000000000e+02,9.211017244501501722e+00
1.660000000000000000e+02,9.230513762170655667e+00
1.670000000000000000e+02,9.249792953854077737e+00
1.680000000000000000e+02,9.268853813857408142e+00
1.690000000000000000e+02,9.287696283446832624e+00
1.700000000000000000e+02,9.306318663144118375e+00
1.710000000000000000e+02,9.324721279719334177e+00
1.720000000000000000e+02,9.342903361401720730e+00
1.730000000000000000e+02,9.360863860308935358e+00
1.740000000000000000e+02,9.378603320265655796e+00
1.750000000000000000e+02,9.396119338363819296e+00
1.760000000000000000e+02,9.413412827851672660e+00
1.770000000000000000e+02,9.430481375599033100e+00
1.780000000000000000e+02,9.447325072348865760e+00
1.790000000000000000e+02,9.463941893120068727e+00
1.800000000000000000e+02,9.480330729152594671e+00
1.810000000000000000e+02,9.496490851989801030e+00
1.820000000000000000e+02,9.512420871421298330e+00
1.830000000000000000e+02,9.528118616848111344e+00
1.840000000000000000e+02,9.543582819867385325e+00
1.850000000000000000e+02,9.558811817536664535e+00
1.860000000000000000e+02,9.573803813147259589e+00
1.870000000000000000e+02,9.588557386559868334e+00
1.880000000000000000e+02,9.603070471944121778e+00
1.890000000000000000e+02,9.617341758612180769e+00
1.900000000000000000e+02,9.631368912122050929e+00
1.910000000000000000e+02,9.645150727171925453e+00
1.920000000000000000e+02,9.658686483036543535e+00
1.930000000000000000e+02,9.671974059058236151e+00
1.940000000000000000e+02,9.685012199253442589e+00
1.950000000000000000e+02,9.697829998836153820e+00
1.960000000000000000e+02,9.710389427929191797e+00
1.970000000000000000e+02,9.722702845248559100e+00
1.980000000000000000e+02,9.734774545457810291e+00
1.990000000000000000e+02,9.746606407710206810e+00
2.000000000000000000e+02,9.758196205019881830e+00
2.010000000000000000e+02,9.769541086736355240e+00
2.020000000000000000e+02,9.780636727769946859e+00
2.030000000000000000e+02,9.791479663227770303e+00
2.040000000000000000e+02,9.802068373328491901e+00
2.050000000000000000e+02,9.812401680479959865e+00
2.060000000000000000e+02,9.822481171399426003e+00
2.070000000000000000e+02,9.832307536092812938e+00
2.080000000000000000e+02,9.841883356746825129e+00
2.090000000000000000e+02,9.851212486854912243e+00
2.100000000000000000e+02,9.860297512162514266e+00
2.110000000000000000e+02,9.869143609613667323e+00
2.120000000000000000e+02,9.877754686616420088e+00
2.130000000000000000e+02,9.886135669710373719e+00
2.140000000000000000e+02,9.894291660780492492e+00
2.150000000000000000e+02,9.902227698942489553e+00
2.160000000000000000e+02,9.909949359111781320e+00
2.170000000000000000e+02,9.917462988006255031e+00
2.180000000000000000e+02,9.924773799198167268e+00
2.190000000000000000e+02,9.931888731785553759e+00
2.200000000000000000e+02,9.938813359170307393e+00
2.210000000000000000e+02,9.945555096168451570e+00
2.220000000000000000e+02,9.952120234104652852e+00
2.230000000000000000e+02,9.958515130931925086e+00
2.240000000000000000e+02,9.964747038117483413e+00
2.250000000000000000e+02,9.970822684264875946e+00
2.260000000000000000e+02,9.976749574099573081e+00
2.270000000000000000e+02,9.982533988944073400e+00
2.280000000000000000e+02,9.988183107794988302e+00
2.290000000000000000e+02,9.993980434742210761e+00
2.300000000000000000e+02,9.999538311749256891e+00
2.310000000000000000e+02,1.000496418702733692e+01
2.320000000000000000e+02,1.001028138309505522e+01
2.330000000000000000e+02,1.001548977607241930e+01
2.340000000000000000e+02,1.002058911929887763e+01
2.350000000000000000e+02,1.002558242134581157e+01
2.360000000000000000e+02,1.003047523198978297e+01
2.370000000000000000e+02,1.003527423580214339e+01
2.380000000000000000e+02,1.003998817690178669e+01
2.390000000000000000e+02,1.004462506607484151e+01
2.400000000000000000e+02,1.004919299688178036e+01
2.410000000000000000e+02,1.005369921990283366e+01
2.420000000000000000e+02,1.005815084173700313e+01
2.430000000000000000e+02,1.006255447960646698e+01
2.440000000000000000e+02,1.006691580212877390e+01
2.450000000000000000e+02,1.007124022640901906e+01
2.460000000000000000e+02,1.007553349609037774e+01
2.470000000000000000e+02,1.007979995210612856e+01
2.480000000000000000e+02,1.008404415052416780e+01
2.490000000000000000e+02,1.008827040175861534e+01
2.500000000000000000e+02,1.009248219713492212e+01
2.510000000000000000e+02,1.009668359036655971e+01
2.520000000000000000e+02,1.010087793322422911e+01
2.530000000000000000e+02,1.010506799313841952e+01
2.540000000000000000e+02,1.010925675745001584e+01
2.550000000000000000e+02,1.011344766140317830e+01
2.560000000000000000e+02,1.011764309967688824e+01
2.570000000000000000e+02,1.012184511622095684e+01
2.580000000000000000e+02,1.012605666148197869e+01
2.590000000000000000e+02,1.013027919314418845e+01
2.600000000000000000e+02,1.013451530368303288e+01
2.610000000000000000e+02,1.013876700740182457e+01
2.620000000000000000e+02,1.014303562899786115e+01
2.630000000000000000e+02,1.014812743448260157e+01
2.640000000000000000e+02,1.015284461733148014e+01
2.650000000000000000e+02,1.015745145102741986e+01
2.660000000000000000e+02,1.016200854019665911e+01
2.670000000000000000e+02,1.016652485074622803e+01
2.680000000000000000e+02,1.017101848142812948e+01
2.690000000000000000e+02,1.017550294435384650e+01
2.700000000000000000e+02,1.017999283351960571e+01
2.710000000000000000e+02,1.018449738715739628e+01
2.720000000000000000e+02,1.018902400661489871e+01
2.730000000000000000e+02,1.019357871480712596e+01
2.740000000000000000e+02,1.019816537412963342e+01
2.750000000000000000e+02,1.020278693284274318e+01
2.760000000000000000e+02,1.020744688952843937e+01
2.770000000000000000e+02,1.021214749437963754e+01
2.780000000000000000e+02,1.021688964256205345e+01
2.790000000000000000e+02,1.022167489704611043e+01
2.800000000000000000e+02,1.022650492571347769e+01
2.810000000000000000e+02,1.023138049428392193e+01
2.820000000000000000e+02,1.023630392829077351e+01
2.830000000000000000e+02,1.024127642680666384e+01
2.840000000000000000e+02,1.024629829072925880e+01
2.850000000000000000e+02,1.025137193462540708e+01
2.860000000000000000e+02,1.025649798139020241e+01
2.870000000000000000e+02,1.026167749435011345e+01
2.880000000000000000e+02,1.026691153073584850e+01
2.890000000000000000e+02,1.027220191816215866e+01
2.900000000000000000e+02,1.027755069638176622e+01
2.910000000000000000e+02,1.028295745899467128e+01
2.920000000000000000e+02,1.028842467446323106e+01
2.930000000000000000e+02,1.029395413567820228e+01
2.940000000000000000e+02,1.029954740471291430e+01
2.950000000000000000e+02,1.030520559339628939e+01
2.960000000000000000e+02,1.031093090709475923e+01
2.970000000000000000e+02,1.031672498867292909e+01
2.980000000000000000e+02,1.032258870166018738e+01
2.990000000000000000e+02,1.033068789896204187e+01
3.000000000000000000e+02,1.033743608650435775e+01
3.010000000000000000e+02,1.034374879719465312e+01
3.020000000000000000e+02,1.034999349144280245e+01
3.030000000000000000e+02,1.035623360619617905e+01
3.040000000000000000e+02,1.036252169803054635e+01
3.050000000000000000e+02,1.036888698539665121e+01
3.060000000000000000e+02,1.037534005400720183e+01
3.070000000000000000e+02,1.038189012920839716e+01
3.080000000000000000e+02,1.038854085246567749e+01
3.090000000000000000e+02,1.039529649040278869e+01
3.100000000000000000e+02,1.040215933350021871e+01
3.110000000000000000e+02,1.040913132898294613e+01
3.120000000000000000e+02,1.041621559312542544e+01
3.130000000000000000e+02,1.042341457109685798e+01
3.140000000000000000e+02,1.043072928778979147e+01
3.150000000000000000e+02,1.043816526647569631e+01
3.160000000000000000e+02,1.044572455704002500e+01
3.170000000000000000e+02,1.045341058077952212e+01
3.180000000000000000e+02,1.046122726389647717e+01
3.190000000000000000e+02,1.046917775111761628e+01
3.200000000000000000e+02,1.047726750316444644e+01
3.210000000000000000e+02,1.048549874120216785e+01
3.220000000000000000e+02,1.049387865629422656e+01
3.230000000000000000e+02,1.050241034747019242e+01
3.240000000000000000e+02,1.051110185932923180e+01
3.250000000000000000e+02,1.051995524465434784e+01
3.260000000000000000e+02,1.052897463818396950e+01
3.270000000000000000e+02,1.053816866215915482e+01
3.280000000000000000e+02,1.054754480825467944e+01
3.290000000000000000e+02,1.055710818431509601e+01
3.300000000000000000e+02,1.056686404962773551e+01
3.310000000000000000e+02,1.057682335743259650e+01
3.320000000000000000e+02,1.058699246309000763e+01
3.330000000000000000e+02,1.059737712544247046e+01
3.340000000000000000e+02,1.060798999989198954e+01
3.350000000000000000e+02,1.061883270940530544e+01
3.360000000000000000e+02,1.062992299254182349e+01
3.370000000000000000e+02,1.064126651590292738e+01
3.380000000000000000e+02,1.065287081892093290e+01
3.390000000000000000e+02,1.066475105361920228e+01
3.400000000000000000e+02,1.068154307823632010e+01
3.410000000000000000e+02,1.069491002587403550e+01
3.420000000000000000e+02,1.070765078807664672e+01
3.430000000000000000e+02,1.072069385502223682e+01
3.440000000000000000e+02,1.073404267769756615e+01
3.450000000000000000e+02,1.074778482807597690e+01
3.460000000000000000e+02,1.076190613575804633e+01
3.470000000000000000e+02,1.077643875628162107e+01
3.480000000000000000e+02,1.079138474836762462e+01
3.490000000000000000e+02,1.080676729428712513e+01
3.500000000000000000e+02,1.082259820787516169e+01
3.510000000000000000e+02,1.083889920855190248e+01
3.520000000000000000e+02,1.085569102913733097e+01
3.530000000000000000e+02,1.087299885641510500e+01
3.540000000000000000e+02,1.089083970314398719e+01
3.550000000000000000e+02,1.090924297800314768e+01
3.560000000000000000e+02,1.092823339223013868e+01
3.570000000000000000e+02,1.094783989740196972e+01
3.580000000000000000e+02,1.096809012791693050e+01
3.590000000000000000e+02,1.098901523606920705e+01
3.600000000000000000e+02,1.101064631007340289e+01
3.610000000000000000e+02,1.103301279320032080e+01
3.620000000000000000e+02,1.105615166597184995e+01
3.630000000000000000e+02,1.108008692871018397e+01
3.640000000000000000e+02,1.110484872185968008e+01
3.650000000000000000e+02,1.113046482911947699e+01
3.660000000000000000e+02,1.115695438018156516e+01
3.670000000000000000e+02,1.118432922853467204e+01
3.680000000000000000e+02,1.121259717036683945e+01
3.690000000000000000e+02,1.124174470307036167e+01
3.700000000000000000e+02,1.127174153517187527e+01
3.710000000000000000e+02,1.130254445146041142e+01
3.720000000000000000e+02,1.133407584627200393e+01
3.730000000000000000e+02,1.136622675148888106e+01
3.740000000000000000e+02,1.139886513384301914e+01
3.750000000000000000e+02,1.143182458949515379e+01
3.760000000000000000e+02,1.146491738634333402e+01
3.770000000000000000e+02,1.149793667676995312e+01
3.780000000000000000e+02,1.153067231502067713e+01
3.790000000000000000e+02,1.156293595975113853e+01
3.800000000000000000e+02,1.159455279744541123e+01
3.810000000000000000e+02,1.162539099794995145e+01
3.820000000000000000e+02,1.165535809018780711e+01
3.830000000000000000e+02,1.168439766824021753e+01
3.840000000000000000e+02,1.171249888801762218e+01
3.850000000000000000e+02,1.173966449417718749e+01
3.860000000000000000e+02,1.176592664686198297e+01
3.870000000000000000e+02,1.179132481903161889e+01
3.880000000000000000e+02,1.181590828417758487e+01
3.890000000000000000e+02,1.183972552947862056e+01
3.900000000000000000e+02,1.186282748982293711e+01
3.910000000000000000e+02,1.188525545632517044e+01
3.920000000000000000e+02,1.190705534154987966e+01
3.930000000000000000e+02,1.192826644842071993e+01
3.940000000000000000e+02,1.194891711663949785e+01
3.950000000000000000e+02,1.196904495989947570e+01
3.960000000000000000e+02,1.198867344350272823e+01
3.970000000000000000e+02,1.200782756361897974e+01
3.980000000000000000e+02,1.202653157408825635e+01
