# Time [s], Convective Heat Transfer Coefficient [W/m2K]
1.000000000000000000e+00,0.000000000000000000e+00
2.000000000000000000e+00,0.000000000000000000e+00
3.000000000000000000e+00,0.000000000000000000e+00
4.000000000000000000e+00,0.000000000000000000e+00
5.000000000000000000e+00,3.040000000141642594e-02
6.000000000000000000e+00,5.366129469656785722e-02
7.000000000000000000e+00,8.784074779022797708e-02
8.000000000000000000e+00,1.338598978250591931e-01
9.000000000000000000e+00,1.923342972364132653e-01
1.000000000000000000e+01,2.634547989394392387e-01
1.100000000000000000e+01,3.466929704170194637e-01
1.200000000000000000e+01,4.410528869956024112e-01
1.300000000000000000e+01,5.453445386049411425e-01
1.400000000000000000e+01,6.582066478927856013e-01
1.500000000000000000e+01,7.782849770555243518e-01
1.600000000000000000e+01,9.042885346232160115e-01
1.700000000000000000e+01,1.035039976793451943e+00
1.800000000000000000e+01,1.169486620830867851e+00
1.900000000000000000e+01,1.306693548175745123e+00
2.000000000000000000e+01,1.445868738441950407e+00
2.100000000000000000e+01,1.586321422093317279e+00
2.200000000000000000e+01,1.727471349602322404e+00
2.300000000000000000e+01,1.868824725377736362e+00
2.400000000000000000e+01,2.009965682740086024e+00
2.500000000000000000e+01,2.150549101491627368e+00
2.600000000000000000e+01,2.290287932149991157e+00
2.700000000000000000e+01,2.428925239239530853e+00
2.800000000000000000e+01,2.566243811791471430e+00
2.900000000000000000e+01,2.702072210653870599e+00
3.000000000000000000e+01,2.836264137393572415e+00
3.100000000000000000e+01,2.968683110937516911e+00
3.200000000000000000e+01,3.099224510420893530e+00
3.300000000000000000e+01,3.227790319634139760e+00
3.400000000000000000e+01,3.354310042218998866e+00
3.500000000000000000e+01,3.478725856972027408e+00
3.600000000000000000e+01,3.600997323431494479e+00
3.700000000000000000e+01,3.721087375208777637e+00
3.800000000000000000e+01,3.838981979755129448e+00
3.900000000000000000e+01,3.954668391190118371e+00
4.000000000000000000e+01,4.068153164296823832e+00
4.100000000000000000e+01,4.179445323203273333e+00
4.200000000000000000e+01,4.288567929046365634e+00
4.300000000000000000e+01,4.395550696353459408e+00
4.400000000000000000e+01,4.500419206352555435e+00
4.500000000000000000e+01,4.603221314127534214e+00
4.600000000000000000e+01,4.703991449388254864e+00
4.700000000000000000e+01,4.802777656076072432e+00
4.800000000000000000e+01,4.899630933769665297e+00
4.900000000000000000e+01,4.994601954691089141e+00
5.000000000000000000e+01,5.087736639045598253e+00
5.100000000000000000e+01,5.179086706615050772e+00
5.200000000000000000e+01,5.268703744140835532e+00
5.300000000000000000e+01,5.356638751755727235e+00
5.400000000000000000e+01,5.443258088395984018e+00
5.500000000000000000e+01,5.528089852775947222e+00
5.600000000000000000e+01,5.611318973407984245e+00
5.700000000000000000e+01,5.693026728927117475e+00
5.800000000000000000e+01,5.773255397798688904e+00
5.900000000000000000e+01,5.852054075848200476e+00
6.000000000000000000e+01,5.929468369981449882e+00
6.100000000000000000e+01,6.005539138172124147e+00
6.200000000000000000e+01,6.080306327899392294e+00
6.300000000000000000e+01,6.153816628338628192e+00
6.400000000000000000e+01,6.226108629500708425e+00
6.500000000000000000e+01,6.297219483282515462e+00
6.600000000000000000e+01,6.367181878075204082e+00
6.700000000000000000e+01,6.436028327233743518e+00
6.800000000000000000e+01,6.503788889389452876e+00
6.900000000000000000e+01,6.570492938675760897e+00
7.000000000000000000e+01,6.636168493342483821e+00
7.100000000000000000e+01,6.700841937391147418e+00
7.200000000000000000e+01,6.764540205140653129e+00
7.300000000000000000e+01,6.827288457185058057e+00
7.400000000000000000e+01,6.889112448870307936e+00
7.500000000000000000e+01,6.950034591916709914e+00
7.600000000000000000e+01,7.010078521479717217e+00
7.700000000000000000e+01,7.069271095247489534e+00
7.800000000000000000e+01,7.127628531990477967e+00
7.900000000000000000e+01,7.185170412164387344e+00
8.000000000000000000e+01,7.241920523962188661e+00
8.100000000000000000e+01,7.297890933487980014e+00
8.200000000000000000e+01,7.353098452077789560e+00
8.300000000000000000e+01,7.407562361369631532e+00
8.400000000000000000e+01,7.461293720473236135e+00
8.500000000000000000e+01,7.514307140256876849e+00
8.600000000000000000e+01,7.566620533509057722e+00
8.700000000000000000e+01,7.618243999091747654e+00
8.800000000000000000e+01,7.669263932016582963e+00
8.900000000000000000e+01,7.719581711532513602e+00
9.000000000000000000e+01,7.769239143279034643e+00
9.100000000000000000e+01,7.818257147153114595e+00
9.200000000000000000e+01,7.866654087051159649e+00
9.300000000000000000e+01,7.914441260092930364e+00
9.400000000000000000e+01,7.961632184290807324e+00
9.500000000000000000e+01,8.008241375078371860e+00
9.600000000000000000e+01,8.054274005455315688e+00
9.700000000000000000e+01,8.099737316869475734e+00
9.800000000000000000e+01,8.144641031931593389e+00
9.900000000000000000e+01,8.188988840340588382e+00
1.000000000000000000e+02,8.232789255302588316e+00
1.010000000000000000e+02,8.276053478880818659e+00
1.020000000000000000e+02,8.318787652814169320e+00
1.030000000000000000e+02,8.361003330819452017e+00
1.040000000000000000e+02,8.402707262364351948e+00
1.050000000000000000e+02,8.443908689719583194e+00
1.060000000000000000e+02,8.484613374956239795e+00
1.070000000000000000e+02,8.524827631765262481e+00
1.080000000000000000e+02,8.564557023128472224e+00
1.090000000000000000e+02,8.603807977278146168e+00
1.100000000000000000e+02,8.642583674338252919e+00
1.110000000000000000e+02,8.680889005659656377e+00
1.120000000000000000e+02,8.718729112498230904e+00
1.130000000000000000e+02,8.756108153931604576e+00
1.140000000000000000e+02,8.793030256734210681e+00
1.150000000000000000e+02,8.829499816774340815e+00
1.160000000000000000e+02,8.865521487946047330e+00
1.170000000000000000e+02,8.901099137765012159e+00
1.180000000000000000e+02,8.936237051332986070e+00
1.190000000000000000e+02,8.970938460614254595e+00
1.200000000000000000e+02,9.005205584766310167e+00
1.210000000000000000e+02,9.039041673523414033e+00
1.220000000000000000e+02,9.072447697382202136e+00
1.230000000000000000e+02,9.105457586495470323e+00
1.240000000000000000e+02,9.138023225150339712e+00
1.250000000000000000e+02,9.170160167923315342e+00
1.260000000000000000e+02,9.201874078707852789e+00
1.270000000000000000e+02,9.233173294546888954e+00
1.280000000000000000e+02,9.264063691751704965e+00
1.290000000000000000e+02,9.294542672376461923e+00
1.300000000000000000e+02,9.324601997127334840e+00
1.310000000000000000e+02,9.354237057394417576e+00
1.320000000000000000e+02,9.383440506302108020e+00
1.330000000000000000e+02,9.412211190438592112e+00
1.340000000000000000e+02,9.440545419640290703e+00
1.350000000000000000e+02,9.468440042153593694e+00
1.360000000000000000e+02,9.495892684195240463e+00
1.370000000000000000e+02,9.522897205839045753e+00
1.380000000000000000e+02,9.549449706904020729e+00
1.390000000000000000e+02,9.575544884727838379e+00
1.400000000000000000e+02,9.601175050814735101e+00
1.410000000000000000e+02,9.626335240051773212e+00
1.420000000000000000e+02,9.651019111265217276e+00
1.430000000000000000e+02,9.675218975653335107e+00
1.440000000000000000e+02,9.698927689079877013e+00
1.450000000000000000e+02,9.722134915127393029e+00
1.460000000000000000e+02,9.744832615095317507e+00
1.470000000000000000e+02,9.767011303166574621e+00
1.480000000000000000e+02,9.788659580306338981e+00
1.490000000000000000e+02,9.809767448785491339e+00
1.500000000000000000e+02,9.830326390852585305e+00
1.510000000000000000e+02,9.850324138956578324e+00
1.520000000000000000e+02,9.869753511223782638e+00
1.530000000000000000e+02,9.888667007856810187e+00
1.540000000000000000e+02,9.907004309179530566e+00
1.550000000000000000e+02,9.924788297844985507e+00
1.560000000000000000e+02,9.942019808729215313e+00
1.570000000000000000e+02,9.958681443118779342e+00
1.580000000000000000e+02,9.974744685855208459e+00
1.590000000000000000e+02,9.990194100857173964e+00
1.600000000000000000e+02,1.000502909059919254e+01
1.610000000000000000e+02,1.001926261625854409e+01
1.620000000000000000e+02,1.003291252182972748e+01
1.630000000000000000e+02,1.004599661226489360e+01
1.640000000000000000e+02,1.005853475491992199e+01
1.650000000000000000e+02,1.007054494831845481e+01
1.660000000000000000e+02,1.008204935130611091e+01
1.670000000000000000e+02,1.009306862400150884e+01
1.680000000000000000e+02,1.010362505981049708e+01
1.690000000000000000e+02,1.011374064171083198e+01
1.700000000000000000e+02,1.012343740661932046e+01
1.710000000000000000e+02,1.013273871666456216e+01
1.720000000000000000e+02,1.014166812620504210e+01
1.730000000000000000e+02,1.015024848807554569e+01
1.740000000000000000e+02,1.015850435739896263e+01
1.750000000000000000e+02,1.016645950112710217e+01
1.760000000000000000e+02,1.017413861478083348e+01
1.770000000000000000e+02,1.018156619943019336e+01
1.780000000000000000e+02,1.018934298678809824e+01
1.790000000000000000e+02,1.019671523236687882e+01
1.800000000000000000e+02,1.020384523272054267e+01
1.810000000000000000e+02,1.021074488575917449e+01
1.820000000000000000e+02,1.021740166176241260e+01
1.830000000000000000e+02,1.022384494865527316e+01
1.840000000000000000e+02,1.023012509846992835e+01
1.850000000000000000e+02,1.023630012987725557e+01
1.860000000000000000e+02,1.024240746461522455e+01
1.870000000000000000e+02,1.024847720961131259e+01
1.880000000000000000e+02,1.025452852996331998e+01
1.890000000000000000e+02,1.026057449586048520e+01
1.900000000000000000e+02,1.026662822699304911e+01
1.910000000000000000e+02,1.027269745667805267e+01
1.920000000000000000e+02,1.027878899520504241e+01
1.930000000000000000e+02,1.028490818166000764e+01
1.940000000000000000e+02,1.029105778700762031e+01
1.950000000000000000e+02,1.029724012675401745e+01
1.960000000000000000e+02,1.030346279735684334e+01
1.970000000000000000e+02,1.030972641928619105e+01
1.980000000000000000e+02,1.031603886871025288e+01
1.990000000000000000e+02,1.032240391695217596e+01
2.000000000000000000e+02,1.032882981374100595e+01
2.010000000000000000e+02,1.033532016289802513e+01
2.020000000000000000e+02,1.034188204990972082e+01
2.030000000000000000e+02,1.035060464244869749e+01
2.040000000000000000e+02,1.035814450042423474e+01
2.050000000000000000e+02,1.036521743518369298e+01
2.060000000000000000e+02,1.037209575338277645e+01
2.070000000000000000e+02,1.037888508931719045e+01
2.080000000000000000e+02,1.038573143031374357e+01
2.090000000000000000e+02,1.039273252197278730e+01
2.100000000000000000e+02,1.039991176078190449e+01
2.110000000000000000e+02,1.040727380721193640e+01
2.120000000000000000e+02,1.041481539720935601e+01
2.130000000000000000e+02,1.042253326572968142e+01
2.140000000000000000e+02,1.043041898310183768e+01
2.150000000000000000e+02,1.043846920200678419e+01
2.160000000000000000e+02,1.044668283138805442e+01
2.170000000000000000e+02,1.045505866338886669e+01
2.180000000000000000e+02,1.046360221729462125e+01
2.190000000000000000e+02,1.047231330219128509e+01
2.200000000000000000e+02,1.048120247341717892e+01
2.210000000000000000e+02,1.049027977046226212e+01
2.220000000000000000e+02,1.049956013310093361e+01
2.230000000000000000e+02,1.050905508567814906e+01
2.240000000000000000e+02,1.051878080303545815e+01
2.250000000000000000e+02,1.052875035272726123e+01
2.260000000000000000e+02,1.053897213652700593e+01
2.270000000000000000e+02,1.054947591059190692e+01
2.280000000000000000e+02,1.056027152033720817e+01
2.290000000000000000e+02,1.057137622205262240e+01
2.300000000000000000e+02,1.058280466739554626e+01
2.310000000000000000e+02,1.060117668490854470e+01
2.320000000000000000e+02,1.061393499750557545e+01
2.330000000000000000e+02,1.062575912498707531e+01
2.340000000000000000e+02,1.063794563874552601e+01
2.350000000000000000e+02,1.065094958238401901e+01
2.360000000000000000e+02,1.066474570167439140e+01
2.370000000000000000e+02,1.067928697109938341e+01
2.380000000000000000e+02,1.069456112953881544e+01
2.390000000000000000e+02,1.071056512291672469e+01
2.400000000000000000e+02,1.072734759840216512e+01
2.410000000000000000e+02,1.074496233515954202e+01
2.420000000000000000e+02,1.076347191840543083e+01
2.430000000000000000e+02,1.078297688695847967e+01
2.440000000000000000e+02,1.080358510979470665e+01
2.450000000000000000e+02,1.082540803689027342e+01
2.460000000000000000e+02,1.084859747891881376e+01
2.470000000000000000e+02,1.087329253362195125e+01
2.480000000000000000e+02,1.089968676557181837e+01
2.490000000000000000e+02,1.092794981634971485e+01
2.500000000000000000e+02,1.095832604309910430e+01
2.510000000000000000e+02,1.099100083648629678e+01
2.520000000000000000e+02,1.102616614660530914e+01
2.530000000000000000e+02,1.106394221331123440e+01
2.540000000000000000e+02,1.110426670134305027e+01
2.550000000000000000e+02,1.114680572259950431e+01
2.560000000000000000e+02,1.119084169701406140e+01
2.570000000000000000e+02,1.123515527171929307e+01
2.580000000000000000e+02,1.127824504307314690e+01
2.590000000000000000e+02,1.131887002988230684e+01
2.600000000000000000e+02,1.135669291117828905e+01
2.610000000000000000e+02,1.139216619017276244e+01
2.620000000000000000e+02,1.142583903685845570e+01
2.630000000000000000e+02,1.145803940292584677e+01
2.640000000000000000e+02,1.148897617446195163e+01
2.650000000000000000e+02,1.151882014234681151e+01
2.660000000000000000e+02,1.154768751310921893e+01
2.670000000000000000e+02,1.157567443141901542e+01
2.680000000000000000e+02,1.160286517800325257e+01
2.690000000000000000e+02,1.162932399180766119e+01
2.700000000000000000e+02,1.165510931084231494e+01
2.710000000000000000e+02,1.168026761472274799e+01
2.720000000000000000e+02,1.170484193414875840e+01
2.730000000000000000e+02,1.172887230319836682e+01
2.740000000000000000e+02,1.175239076957677042e+01
2.750000000000000000e+02,1.177542487391112225e+01
2.760000000000000000e+02,1.179800171161390487e+01
2.770000000000000000e+02,1.182014787606526163e+01
2.780000000000000000e+02,1.184188038609360838e+01
2.790000000000000000e+02,1.186322226184012507e+01
2.800000000000000000e+02,1.188419016181148180e+01
2.810000000000000000e+02,1.190479847008996650e+01
2.820000000000000000e+02,1.192506543493972337e+01
2.830000000000000000e+02,1.194500482516282780e+01
2.840000000000000000e+02,1.196462952835515559e+01
2.850000000000000000e+02,1.198395157125128385e+01
2.860000000000000000e+02,1.200298092010607220e+01
2.870000000000000000e+02,1.202172859567554575e+01
2.880000000000000000e+02,1.204020464222171327e+01
2.890000000000000000e+02,1.205841581177499755e+01
2.900000000000000000e+02,1.207637268021875343e+01
2.910000000000000000e+02,1.209408095023323604e+01
2.920000000000000000e+02,1.211154910630896353e+01
2.930000000000000000e+02,1.212878336388510192e+01
2.940000000000000000e+02,1.214579246495852161e+01
2.950000000000000000e+02,1.216257727871423810e+01
2.960000000000000000e+02,1.217914685265507835e+01
2.970000000000000000e+02,1.219550626105119662e+01
2.980000000000000000e+02,1.221166082051830948e+01
2.990000000000000000e+02,1.222761804559001320e+01
3.000000000000000000e+02,1.224337637661512268e+01
3.010000000000000000e+02,1.225894204411861566e+01
3.020000000000000000e+02,1.227432042385739663e+01
3.030000000000000000e+02,1.228951225115309853e+01
3.040000000000000000e+02,1.230452550844618642e+01
3.050000000000000000e+02,1.231936199439647162e+01
3.060000000000000000e+02,1.233402370908055801e+01
3.070000000000000000e+02,1.234851484796607757e+01
3.080000000000000000e+02,1.236283649218769121e+01
3.090000000000000000e+02,1.237699443943443534e+01
3.100000000000000000e+02,1.239098923936608898e+01
3.110000000000000000e+02,1.240482583855105858e+01
3.120000000000000000e+02,1.241850556209072387e+01
3.130000000000000000e+02,1.243203039549499955e+01
3.140000000000000000e+02,1.244540275109379834e+01
3.150000000000000000e+02,1.245862667056212381e+01
3.160000000000000000e+02,1.247170231441332966e+01
3.170000000000000000e+02,1.248463321288199879e+01
3.180000000000000000e+02,1.249742120983081684e+01
3.190000000000000000e+02,1.251006618127898840e+01
3.200000000000000000e+02,1.252257269911053505e+01
3.210000000000000000e+02,1.253494238554404738e+01
3.220000000000000000e+02,1.254717743748626191e+01
3.230000000000000000e+02,1.255927861752128649e+01
3.240000000000000000e+02,1.257124704566633966e+01
3.250000000000000000e+02,1.258308589656443743e+01
3.260000000000000000e+02,1.259479521491252285e+01
3.270000000000000000e+02,1.260637629067135101e+01
3.280000000000000000e+02,1.261783341235921263e+01
3.290000000000000000e+02,1.262916708811828137e+01
3.300000000000000000e+02,1.264037898863656473e+01
3.310000000000000000e+02,1.265147018177065696e+01
3.320000000000000000e+02,1.266244216015039292e+01
3.330000000000000000e+02,1.267329589021038316e+01
3.340000000000000000e+02,1.268403472728340731e+01
3.350000000000000000e+02,1.269465793091880279e+01
3.360000000000000000e+02,1.270516679083218747e+01
3.370000000000000000e+02,1.271556381376714739e+01
3.380000000000000000e+02,1.272584982253135166e+01
3.390000000000000000e+02,1.273602721736269139e+01
3.400000000000000000e+02,1.274609643296009942e+01
3.410000000000000000e+02,1.275605804047075509e+01
3.420000000000000000e+02,1.276591289014353414e+01
3.430000000000000000e+02,1.277566497808299850e+01
3.440000000000000000e+02,1.278531225627339118e+01
3.450000000000000000e+02,1.279485804758325962e+01
3.460000000000000000e+02,1.280430379445395594e+01
3.470000000000000000e+02,1.281364900178122923e+01
3.480000000000000000e+02,1.282289459714391633e+01
3.490000000000000000e+02,1.283204405804280945e+01
3.500000000000000000e+02,1.284109544301940709e+01
3.510000000000000000e+02,1.285005199285190969e+01
3.520000000000000000e+02,1.285891430715145844e+01
3.530000000000000000e+02,1.286768290792121050e+01
3.540000000000000000e+02,1.287635901677996664e+01
3.550000000000000000e+02,1.288494384526989300e+01
3.560000000000000000e+02,1.289343894715296734e+01
3.570000000000000000e+02,1.290184480984104987e+01
3.580000000000000000e+02,1.291016219589468506e+01
3.590000000000000000e+02,1.291839214132183322e+01
3.600000000000000000e+02,1.292653553360577412e+01
3.610000000000000000e+02,1.293459353256191591e+01
3.620000000000000000e+02,1.294256770852569005e+01
3.630000000000000000e+02,1.295045885342852721e+01
3.640000000000000000e+02,1.295826712509355971e+01
3.650000000000000000e+02,1.296599212072860219e+01
3.660000000000000000e+02,1.297363740087245709e+01
3.670000000000000000e+02,1.298120331113123527e+01
3.680000000000000000e+02,1.298868845823593077e+01
3.690000000000000000e+02,1.299609637355433200e+01
3.700000000000000000e+02,1.300342745450186399e+01
3.710000000000000000e+02,1.301068105698039545e+01
3.720000000000000000e+02,1.301785957666989013e+01
3.730000000000000000e+02,1.302496318828841915e+01
3.740000000000000000e+02,1.303199130528379790e+01
3.750000000000000000e+02,1.303894719707332861e+01
3.760000000000000000e+02,1.304583012764734562e+01
3.770000000000000000e+02,1.305264169801706053e+01
3.780000000000000000e+02,1.305938199034851799e+01
3.790000000000000000e+02,1.306605300426738836e+01
3.800000000000000000e+02,1.307265371527980058e+01
3.810000000000000000e+02,1.307918549605702019e+01
3.820000000000000000e+02,1.308565025869829412e+01
3.830000000000000000e+02,1.309204655936236250e+01
3.840000000000000000e+02,1.309837657411019407e+01
3.850000000000000000e+02,1.310464144626534555e+01
3.860000000000000000e+02,1.311084047429689647e+01
3.870000000000000000e+02,1.311697513470395293e+01
3.880000000000000000e+02,1.312304676077063270e+01
3.890000000000000000e+02,1.312905477765790074e+01
3.900000000000000000e+02,1.313500051075211772e+01
3.910000000000000000e+02,1.314088385543359827e+01
3.920000000000000000e+02,1.314670646679349453e+01
3.930000000000000000e+02,1.315246863910262753e+01
3.940000000000000000e+02,1.315817167824023848e+01
3.950000000000000000e+02,1.316381533035844775e+01
3.960000000000000000e+02,1.316940062343279649e+01
3.970000000000000000e+02,1.317492763636446007e+01
3.980000000000000000e+02,1.318039738973489960e+01
