# Time [s], Convective Heat Transfer Coefficient [W/m2K]
1.000000000000000000e+00,0.000000000000000000e+00
2.000000000000000000e+00,0.000000000000000000e+00
3.000000000000000000e+00,0.000000000000000000e+00
4.000000000000000000e+00,0.000000000000000000e+00
5.000000000000000000e+00,1.915079995362458862e-02
6.000000000000000000e+00,3.274740728807139234e-02
7.000000000000000000e+00,5.198326877831560555e-02
8.000000000000000000e+00,7.835807837898799144e-02
9.000000000000000000e+00,1.129201743898674559e-01
1.000000000000000000e+01,1.552730162683309822e-01
1.100000000000000000e+01,2.053007278674866265e-01
1.200000000000000000e+01,2.625918386947302952e-01
1.300000000000000000e+01,3.264117979203563502e-01
1.400000000000000000e+01,3.960302074021636032e-01
1.500000000000000000e+01,4.705929052857265038e-01
1.600000000000000000e+01,5.493146568780471473e-01
1.700000000000000000e+01,6.314425156004522810e-01
1.800000000000000000e+01,7.162849872670582485e-01
1.900000000000000000e+01,8.032446690288882474e-01
2.000000000000000000e+01,8.917957027083827093e-01
2.100000000000000000e+01,9.814825611778662529e-01
2.200000000000000000e+01,1.071921396479121436e+00
2.300000000000000000e+01,1.162781710450363715e+00
2.400000000000000000e+01,1.253778404676285430e+00
2.500000000000000000e+01,1.344679611880433612e+00
2.600000000000000000e+01,1.435289598425169677e+00
2.700000000000000000e+01,1.525441350944480412e+00
2.800000000000000000e+01,1.614998253838942910e+00
2.900000000000000000e+01,1.703850422072079596e+00
3.000000000000000000e+01,1.791906358733545312e+00
3.100000000000000000e+01,1.879084663837677915e+00
3.200000000000000000e+01,1.965329464343666732e+00
3.300000000000000000e+01,2.050595941198889438e+00
3.400000000000000000e+01,2.134840734300567533e+00
3.500000000000000000e+01,2.218039926617329183e+00
3.600000000000000000e+01,2.300173219911742617e+00
3.700000000000000000e+01,2.381225924635872460e+00
3.800000000000000000e+01,2.461189691245099898e+00
3.900000000000000000e+01,2.540059039517175599e+00
4.000000000000000000e+01,2.617834462292815356e+00
4.100000000000000000e+01,2.694519604031481386e+00
4.200000000000000000e+01,2.770124468577982224e+00
4.300000000000000000e+01,2.844652850910794228e+00
4.400000000000000000e+01,2.918113267547086220e+00
4.500000000000000000e+01,2.990520004081584471e+00
4.600000000000000000e+01,3.061889230393409100e+00
4.700000000000000000e+01,3.132229686175217687e+00
4.800000000000000000e+01,3.201560091620397674e+00
4.900000000000000000e+01,3.269892833867005688e+00
5.000000000000000000e+01,3.337245921282665950e+00
5.100000000000000000e+01,3.403633810856958597e+00
5.200000000000000000e+01,3.469075071770746810e+00
5.300000000000000000e+01,3.533586123960191561e+00
5.400000000000000000e+01,3.597182174609018457e+00
5.500000000000000000e+01,3.659880861447232014e+00
5.600000000000000000e+01,3.721697749007534473e+00
5.700000000000000000e+01,3.782652347365952128e+00
5.800000000000000000e+01,3.842759701840036346e+00
5.900000000000000000e+01,3.902036193524744956e+00
6.000000000000000000e+01,3.960498806795272664e+00
6.100000000000000000e+01,4.018163439542205673e+00
6.200000000000000000e+01,4.075044345629287967e+00
6.300000000000000000e+01,4.131156828000118963e+00
6.400000000000000000e+01,4.186515905198680443e+00
6.500000000000000000e+01,4.241137204208946798e+00
6.600000000000000000e+01,4.295036010131635607e+00
6.700000000000000000e+01,4.348226086705504478e+00
6.800000000000000000e+01,4.400720843882497846e+00
6.900000000000000000e+01,4.452534050473093252e+00
7.000000000000000000e+01,4.503678375060021999e+00
7.100000000000000000e+01,4.554171008343178784e+00
7.200000000000000000e+01,4.604020502059087860e+00
7.300000000000000000e+01,4.653239008034454116e+00
7.400000000000000000e+01,4.701839977574262086e+00
7.500000000000000000e+01,4.749837906532632381e+00
7.600000000000000000e+01,4.797241958236182491e+00
7.700000000000000000e+01,4.844062347688032233e+00
7.800000000000000000e+01,4.890313358943488176e+00
7.900000000000000000e+01,4.936003298627385405e+00
8.000000000000000000e+01,4.981142573088200187e+00
8.100000000000000000e+01,5.025744185513754125e+00
8.200000000000000000e+01,5.069815303079442614e+00
8.300000000000000000e+01,5.113366698309366853e+00
8.400000000000000000e+01,5.156410502296504106e+00
8.500000000000000000e+01,5.198952118096023867e+00
8.600000000000000000e+01,5.241004432954296632e+00
8.700000000000000000e+01,5.282572373492847362e+00
8.800000000000000000e+01,5.323668011909473030e+00
8.900000000000000000e+01,5.364298629090451520e+00
9.000000000000000000e+01,5.404473038358553083e+00
9.100000000000000000e+01,5.444198704660924371e+00
9.200000000000000000e+01,5.483483900785587117e+00
9.300000000000000000e+01,5.522335958126173949e+00
9.400000000000000000e+01,5.560762994436779572e+00
9.500000000000000000e+01,5.598771878514841482e+00
9.600000000000000000e+01,5.636370522042172482e+00
9.700000000000000000e+01,5.673565954380501708e+00
9.800000000000000000e+01,5.710365167527760910e+00
9.900000000000000000e+01,5.746773450870479749e+00
1.000000000000000000e+02,5.782800691443523711e+00
1.010000000000000000e+02,5.818450994384882335e+00
1.020000000000000000e+02,5.853730444121597820e+00
1.030000000000000000e+02,5.888645837396221161e+00
1.040000000000000000e+02,5.923202672317200879e+00
1.050000000000000000e+02,5.957407762026710074e+00
1.060000000000000000e+02,5.991266289894068287e+00
1.070000000000000000e+02,6.024785511853074205e+00
1.080000000000000000e+02,6.057969188018353712e+00
1.090000000000000000e+02,6.090822157229790257e+00
1.100000000000000000e+02,6.123350934400254353e+00
1.110000000000000000e+02,6.155560131553842851e+00
1.120000000000000000e+02,6.187456714490547682e+00
1.130000000000000000e+02,6.219042588967476526e+00
1.140000000000000000e+02,6.250324982101905569e+00
1.150000000000000000e+02,6.281307545349798183e+00
1.160000000000000000e+02,6.311994613103501628e+00
1.170000000000000000e+02,6.342392391865033119e+00
1.180000000000000000e+02,6.372503077883495237e+00
1.190000000000000000e+02,6.402332755190425218e+00
1.200000000000000000e+02,6.431884991343079783e+00
1.210000000000000000e+02,6.461163475791851241e+00
1.220000000000000000e+02,6.490173709584475148e+00
1.230000000000000000e+02,6.518917802133515238e+00
1.240000000000000000e+02,6.547401609824325064e+00
1.250000000000000000e+02,6.575627265316963843e+00
1.260000000000000000e+02,6.603599241687381216e+00
1.270000000000000000e+02,6.631321326180303011e+00
1.280000000000000000e+02,6.658797177035099324e+00
1.290000000000000000e+02,6.686029805339129162e+00
1.300000000000000000e+02,6.713022900118707170e+00
1.310000000000000000e+02,6.739779513071831651e+00
1.320000000000000000e+02,6.766303362323879966e+00
1.330000000000000000e+02,6.792597284602702956e+00
1.340000000000000000e+02,6.818665031744004956e+00
1.350000000000000000e+02,6.844509487229325728e+00
1.360000000000000000e+02,6.870132699026952672e+00
1.370000000000000000e+02,6.895538618650855156e+00
1.380000000000000000e+02,6.920729121512153803e+00
1.390000000000000000e+02,6.945707964453942118e+00
1.400000000000000000e+02,6.970477827837492590e+00
1.410000000000000000e+02,6.995042028541316625e+00
1.420000000000000000e+02,7.019401409627874955e+00
1.430000000000000000e+02,7.043560088395007135e+00
1.440000000000000000e+02,7.067520189419817633e+00
1.450000000000000000e+02,7.091283774294090847e+00
1.460000000000000000e+02,7.114853537584552967e+00
1.470000000000000000e+02,7.138231867322668123e+00
1.480000000000000000e+02,7.161420855256483975e+00
1.490000000000000000e+02,7.184422986951203072e+00
1.500000000000000000e+02,7.207241129517325540e+00
1.510000000000000000e+02,7.229875832612280284e+00
1.520000000000000000e+02,7.252330964607415886e+00
1.530000000000000000e+02,7.274607195984253316e+00
1.540000000000000000e+02,7.296707813274509569e+00
1.550000000000000000e+02,7.318632958327375704e+00
1.560000000000000000e+02,7.340386891393007929e+00
1.570000000000000000e+02,7.361969446865906264e+00
1.580000000000000000e+02,7.383384536916921981e+00
1.590000000000000000e+02,7.404631707674351304e+00
1.600000000000000000e+02,7.425715392322850050e+00
1.610000000000000000e+02,7.446634851837318436e+00
1.620000000000000000e+02,7.467393136481311977e+00
1.630000000000000000e+02,7.487991553062279593e+00
1.640000000000000000e+02,7.508431996913233597e+00
1.650000000000000000e+02,7.528715283953935078e+00
1.660000000000000000e+02,7.548843233902407412e+00
1.670000000000000000e+02,7.568818235098130565e+00
1.680000000000000000e+02,7.588640587337594390e+00
1.690000000000000000e+02,7.608313207340187567e+00
1.700000000000000000e+02,7.627836733134947700e+00
1.710000000000000000e+02,7.647212384651472128e+00
1.720000000000000000e+02,7.666440953240869938e+00
1.730000000000000000e+02,7.685524794212485133e+00
1.740000000000000000e+02,7.704465421931076641e+00
1.750000000000000000e+02,7.723262549400757848e+00
1.760000000000000000e+02,7.741919209719264394e+00
1.770000000000000000e+02,7.760436234235648101e+00
1.780000000000000000e+02,7.778814239625813975e+00
1.790000000000000000e+02,7.797055173350010193e+00
1.800000000000000000e+02,7.815158641276874540e+00
1.810000000000000000e+02,7.833127303551734144e+00
1.820000000000000000e+02,7.850962436947865442e+00
1.830000000000000000e+02,7.868663966421695299e+00
1.840000000000000000e+02,7.886233506892995848e+00
1.850000000000000000e+02,7.903673014086296966e+00
1.860000000000000000e+02,7.920981792133956922e+00
1.870000000000000000e+02,7.938161566930592272e+00
1.880000000000000000e+02,7.955214584262606081e+00
1.890000000000000000e+02,7.972140467856479340e+00
1.900000000000000000e+02,7.988939759692349263e+00
1.910000000000000000e+02,8.005614265987169631e+00
1.920000000000000000e+02,8.022165939753280739e+00
1.930000000000000000e+02,8.038593617299163441e+00
1.940000000000000000e+02,8.054898855072728736e+00
1.950000000000000000e+02,8.071083538714626471e+00
1.960000000000000000e+02,8.087147370952100900e+00
1.970000000000000000e+02,8.103091837019047006e+00
1.980000000000000000e+02,8.118917328369896325e+00
1.990000000000000000e+02,8.134624756119977818e+00
2.000000000000000000e+02,8.150215893551203905e+00
2.010000000000000000e+02,8.165690375377650412e+00
2.020000000000000000e+02,8.181049236149775084e+00
2.030000000000000000e+02,8.196293315817570146e+00
2.040000000000000000e+02,8.211423610657012873e+00
2.050000000000000000e+02,8.226441270505331360e+00
2.060000000000000000e+02,8.241346389650718862e+00
2.070000000000000000e+02,8.256139743217854488e+00
2.080000000000000000e+02,8.270822603905191528e+00
2.090000000000000000e+02,8.285395028088661462e+00
2.100000000000000000e+02,8.299858086258328882e+00
2.110000000000000000e+02,8.314212998745253103e+00
2.120000000000000000e+02,8.328459783187419418e+00
2.130000000000000000e+02,8.342599293377384484e+00
2.140000000000000000e+02,8.356632199396804239e+00
2.150000000000000000e+02,8.370559324911337029e+00
2.160000000000000000e+02,8.384380812102756764e+00
2.170000000000000000e+02,8.398098622539116320e+00
2.180000000000000000e+02,8.411712537155150216e+00
2.190000000000000000e+02,8.425223324796141000e+00
2.200000000000000000e+02,8.438631246953901766e+00
2.210000000000000000e+02,8.451937540656460968e+00
2.220000000000000000e+02,8.465142769671562206e+00
2.230000000000000000e+02,8.478247323642472466e+00
2.240000000000000000e+02,8.491251907868360149e+00
2.250000000000000000e+02,8.504157376673468605e+00
2.260000000000000000e+02,8.516963924364292282e+00
2.270000000000000000e+02,8.529672382328856273e+00
2.280000000000000000e+02,8.542283407517812677e+00
2.290000000000000000e+02,8.554797165192802311e+00
2.300000000000000000e+02,8.567214612029708576e+00
2.310000000000000000e+02,8.579536530557168916e+00
2.320000000000000000e+02,8.592228617936745749e+00
2.330000000000000000e+02,8.604538973422704018e+00
2.340000000000000000e+02,8.616681770174347221e+00
2.350000000000000000e+02,8.628707897665208293e+00
2.360000000000000000e+02,8.640624709973668161e+00
2.370000000000000000e+02,8.652438536063307595e+00
2.380000000000000000e+02,8.664152200055339037e+00
2.390000000000000000e+02,8.675768801853262602e+00
2.400000000000000000e+02,8.687290317986128940e+00
2.410000000000000000e+02,8.698717926291266167e+00
2.420000000000000000e+02,8.710053096723273214e+00
2.430000000000000000e+02,8.721297587761856818e+00
2.440000000000000000e+02,8.732451447317369997e+00
2.450000000000000000e+02,8.743517015800927439e+00
2.460000000000000000e+02,8.754494162490454201e+00
2.470000000000000000e+02,8.765383820826581740e+00
2.480000000000000000e+02,8.776187063363265040e+00
2.490000000000000000e+02,8.786903887288097792e+00
2.500000000000000000e+02,8.797534740028257971e+00
2.510000000000000000e+02,8.808080362946837383e+00
2.520000000000000000e+02,8.818541336319094981e+00
2.530000000000000000e+02,8.828917180272743082e+00
2.540000000000000000e+02,8.839208914205940459e+00
2.550000000000000000e+02,8.849416946690647379e+00
2.560000000000000000e+02,8.859541231724017862e+00
2.570000000000000000e+02,8.869582613111159475e+00
2.580000000000000000e+02,8.879541032859371796e+00
2.590000000000000000e+02,8.889416726395005242e+00
2.600000000000000000e+02,8.899210367112003084e+00
2.610000000000000000e+02,8.908922029190559755e+00
2.620000000000000000e+02,8.918552077169326964e+00
2.630000000000000000e+02,8.928101015973135546e+00
2.640000000000000000e+02,8.937569342915496762e+00
2.650000000000000000e+02,8.946956670409454304e+00
2.660000000000000000e+02,8.956263778286244204e+00
2.670000000000000000e+02,8.965490708467305225e+00
2.680000000000000000e+02,8.974637935275882938e+00
2.690000000000000000e+02,8.983705925928720859e+00
2.700000000000000000e+02,8.992694561644478668e+00
2.710000000000000000e+02,9.001604588165935894e+00
2.720000000000000000e+02,9.010435732856027613e+00
2.730000000000000000e+02,9.019188585430434557e+00
2.740000000000000000e+02,9.027863296959942829e+00
2.750000000000000000e+02,9.036460157532610893e+00
2.760000000000000000e+02,9.044979594948873824e+00
2.770000000000000000e+02,9.053421316553352582e+00
2.780000000000000000e+02,9.061786026586659659e+00
2.790000000000000000e+02,9.070074136367626494e+00
2.800000000000000000e+02,9.078285056845116330e+00
2.810000000000000000e+02,9.086419476121312400e+00
2.820000000000000000e+02,9.094477791183937399e+00
2.830000000000000000e+02,9.102459969261369466e+00
2.840000000000000000e+02,9.110366115747954296e+00
2.850000000000000000e+02,9.118196613792798999e+00
2.860000000000000000e+02,9.125951278596634353e+00
2.870000000000000000e+02,9.133630625115442214e+00
2.880000000000000000e+02,9.141234741497260785e+00
2.890000000000000000e+02,9.148764131797843646e+00
2.900000000000000000e+02,9.156218176669217002e+00
2.910000000000000000e+02,9.163597512343507390e+00
2.920000000000000000e+02,9.170902628700998704e+00
2.930000000000000000e+02,9.178133314648937002e+00
2.940000000000000000e+02,9.185289357374800900e+00
2.950000000000000000e+02,9.192371650580719589e+00
2.960000000000000000e+02,9.199379972853611420e+00
2.970000000000000000e+02,9.206314515435245482e+00
2.980000000000000000e+02,9.213175465378723672e+00
2.990000000000000000e+02,9.219962867888908065e+00
3.000000000000000000e+02,9.226677177389356999e+00
3.010000000000000000e+02,9.233318156114794562e+00
3.020000000000000000e+02,9.239886113094403441e+00
3.030000000000000000e+02,9.246381489505621332e+00
3.040000000000000000e+02,9.252804174142038818e+00
3.050000000000000000e+02,9.259154736133019981e+00
3.060000000000000000e+02,9.265432784020854129e+00
3.070000000000000000e+02,9.271638878706166764e+00
3.080000000000000000e+02,9.277773031142931615e+00
3.090000000000000000e+02,9.283835656719205076e+00
3.100000000000000000e+02,9.289826894430220250e+00
3.110000000000000000e+02,9.295747150564764638e+00
3.120000000000000000e+02,9.301596420539514298e+00
3.130000000000000000e+02,9.307375102283586443e+00
3.140000000000000000e+02,9.313083183968890566e+00
3.150000000000000000e+02,9.318721055348596849e+00
3.160000000000000000e+02,9.324288832142338279e+00
3.170000000000000000e+02,9.329787030109628176e+00
3.180000000000000000e+02,9.335216025426483100e+00
3.190000000000000000e+02,9.340576189722085587e+00
3.200000000000000000e+02,9.345867086027372039e+00
3.210000000000000000e+02,9.351089883003171011e+00
3.220000000000000000e+02,9.356244537842721698e+00
3.230000000000000000e+02,9.361331405940667594e+00
3.240000000000000000e+02,9.366350971876373777e+00
3.250000000000000000e+02,9.371303182304234980e+00
3.260000000000000000e+02,9.376188913517454537e+00
3.270000000000000000e+02,9.381032313624180219e+00
3.280000000000000000e+02,9.385798828865926424e+00
3.290000000000000000e+02,9.390497319479081284e+00
3.300000000000000000e+02,9.395131567773342240e+00
3.310000000000000000e+02,9.399701893882186354e+00
3.320000000000000000e+02,9.404209540803730505e+00
3.330000000000000000e+02,9.408654818753248605e+00
3.340000000000000000e+02,9.413038166573345578e+00
3.350000000000000000e+02,9.417361603101172207e+00
3.360000000000000000e+02,9.421625027609827896e+00
3.370000000000000000e+02,9.425828732866142090e+00
3.380000000000000000e+02,9.429973929945127509e+00
3.390000000000000000e+02,9.434059850707932071e+00
3.400000000000000000e+02,9.438088093047955596e+00
3.410000000000000000e+02,9.442058277834222579e+00
3.420000000000000000e+02,9.445971205956823269e+00
3.430000000000000000e+02,9.449825576272612437e+00
3.440000000000000000e+02,9.453623364415737029e+00
3.450000000000000000e+02,9.457364181894501343e+00
3.460000000000000000e+02,9.461048424167570303e+00
3.470000000000000000e+02,9.464676483530551465e+00
3.480000000000000000e+02,9.468248749169871914e+00
3.490000000000000000e+02,9.471766129140073431e+00
3.500000000000000000e+02,9.475228744651476021e+00
3.510000000000000000e+02,9.478637496501571391e+00
3.520000000000000000e+02,9.481993411328502930e+00
3.530000000000000000e+02,9.485296210068577594e+00
3.540000000000000000e+02,9.488547433016412569e+00
3.550000000000000000e+02,9.491747575149869220e+00
3.560000000000000000e+02,9.494896998679314137e+00
3.570000000000000000e+02,9.497997101382354757e+00
3.580000000000000000e+02,9.501048108787461643e+00
3.590000000000000000e+02,9.504051151553495558e+00
3.600000000000000000e+02,9.507006967521588692e+00
3.610000000000000000e+02,9.509915903024976913e+00
3.620000000000000000e+02,9.512779725154015154e+00
3.630000000000000000e+02,9.515597868408573135e+00
3.640000000000000000e+02,9.518372609914440119e+00
3.650000000000000000e+02,9.521103250265012363e+00
3.660000000000000000e+02,9.523792058857008413e+00
3.670000000000000000e+02,9.526438461134944191e+00
3.680000000000000000e+02,9.529044461081831230e+00
3.690000000000000000e+02,9.531609995710688565e+00
3.700000000000000000e+02,9.534136546531314593e+00
3.710000000000000000e+02,9.536624046420399736e+00
3.720000000000000000e+02,9.539073713931946585e+00
3.730000000000000000e+02,9.541486378486071729e+00
3.740000000000000000e+02,9.543862481430297251e+00
3.750000000000000000e+02,9.546203361593947889e+00
3.760000000000000000e+02,9.548509455663621637e+00
3.770000000000000000e+02,9.550781455403356546e+00
3.780000000000000000e+02,9.553020307087214391e+00
3.790000000000000000e+02,9.555226441688912331e+00
3.800000000000000000e+02,9.557400545036999873e+00
3.810000000000000000e+02,9.559543685367676957e+00
3.820000000000000000e+02,9.561656160170389995e+00
3.830000000000000000e+02,9.563739545669124098e+00
3.840000000000000000e+02,9.565793495881303343e+00
3.850000000000000000e+02,9.567819327263272555e+00
3.860000000000000000e+02,9.569817330978985126e+00
3.870000000000000000e+02,9.571788691611082811e+00
3.880000000000000000e+02,9.573733697332189152e+00
3.890000000000000000e+02,9.575653273748118366e+00
3.900000000000000000e+02,9.577547451275449930e+00
3.910000000000000000e+02,9.579417663104951686e+00
3.920000000000000000e+02,9.581351667200967981e+00
3.930000000000000000e+02,9.583217972836665766e+00
3.940000000000000000e+02,9.585050933702913056e+00
3.950000000000000000e+02,9.586860649904975773e+00
3.960000000000000000e+02,9.588647911545821856e+00
3.970000000000000000e+02,9.590413634510113638e+00
3.980000000000000000e+02,9.592159114723429525e+00
