# Time [s], Temperature [C]
1.000000000000000000e+00,2.499996900000000011e+01
2.000000000000000000e+00,4.720717599999999692e+01
3.000000000000000000e+00,5.960275299999999987e+01
4.000000000000000000e+00,6.962402299999999400e+01
5.000000000000000000e+00,7.797303800000000251e+01
6.000000000000000000e+00,8.528889499999999657e+01
7.000000000000000000e+00,9.183357999999999777e+01
8.000000000000000000e+00,9.779263299999999504e+01
9.000000000000000000e+00,1.032808799999999962e+02
1.000000000000000000e+01,1.083827900000000000e+02
1.100000000000000000e+01,1.131589599999999933e+02
1.200000000000000000e+01,1.176562299999999937e+02
1.300000000000000000e+01,1.219113799999999941e+02
1.400000000000000000e+01,1.259534400000000005e+02
1.500000000000000000e+01,1.298058200000000113e+02
1.600000000000000000e+01,1.334878500000000088e+02
1.700000000000000000e+01,1.370166499999999985e+02
1.800000000000000000e+01,1.404061299999999903e+02
1.900000000000000000e+01,1.436675400000000025e+02
2.000000000000000000e+01,1.468127100000000098e+02
2.100000000000000000e+01,1.498492400000000089e+02
2.200000000000000000e+01,1.527852000000000032e+02
2.300000000000000000e+01,1.556286499999999933e+02
2.400000000000000000e+01,1.583849899999999877e+02
2.500000000000000000e+01,1.610597500000000082e+02
2.600000000000000000e+01,1.636584599999999909e+02
2.700000000000000000e+01,1.661850399999999865e+02
2.800000000000000000e+01,1.686436500000000080e+02
2.900000000000000000e+01,1.710390600000000063e+02
3.000000000000000000e+01,1.733728600000000029e+02
3.100000000000000000e+01,1.756491900000000044e+02
3.200000000000000000e+01,1.778711999999999875e+02
3.300000000000000000e+01,1.800414700000000039e+02
3.400000000000000000e+01,1.821614099999999894e+02
3.500000000000000000e+01,1.842351500000000044e+02
3.600000000000000000e+01,1.862628899999999987e+02
3.700000000000000000e+01,1.882470600000000047e+02
3.800000000000000000e+01,1.901905500000000018e+02
3.900000000000000000e+01,1.920942499999999882e+02
4.000000000000000000e+01,1.939593500000000006e+02
4.100000000000000000e+01,1.957882400000000018e+02
4.200000000000000000e+01,1.975814499999999896e+02
4.300000000000000000e+01,1.993409900000000050e+02
4.400000000000000000e+01,2.010683899999999937e+02
4.500000000000000000e+01,2.027639800000000037e+02
4.600000000000000000e+01,2.044294099999999901e+02
4.700000000000000000e+01,2.060657199999999989e+02
4.800000000000000000e+01,2.076734600000000057e+02
4.900000000000000000e+01,2.092543300000000102e+02
5.000000000000000000e+01,2.108093599999999981e+02
5.100000000000000000e+01,2.123388799999999890e+02
5.200000000000000000e+01,2.138435100000000091e+02
5.300000000000000000e+01,2.153248900000000106e+02
5.400000000000000000e+01,2.167829700000000059e+02
5.500000000000000000e+01,2.182187000000000126e+02
5.600000000000000000e+01,2.196335899999999981e+02
5.700000000000000000e+01,2.210275100000000066e+02
5.800000000000000000e+01,2.224012600000000077e+02
5.900000000000000000e+01,2.237554299999999898e+02
6.000000000000000000e+01,2.250910199999999861e+02
6.100000000000000000e+01,2.264076799999999992e+02
6.200000000000000000e+01,2.277075000000000102e+02
6.300000000000000000e+01,2.289895899999999926e+02
6.400000000000000000e+01,2.302551699999999926e+02
6.500000000000000000e+01,2.315047900000000141e+02
6.600000000000000000e+01,2.327383600000000001e+02
6.700000000000000000e+01,2.339567900000000122e+02
6.800000000000000000e+01,2.351610100000000045e+02
6.900000000000000000e+01,2.363505399999999952e+02
7.000000000000000000e+01,2.375259599999999978e+02
7.100000000000000000e+01,2.386882300000000043e+02
7.200000000000000000e+01,2.398370199999999954e+02
7.300000000000000000e+01,2.409728100000000097e+02
7.400000000000000000e+01,2.420963900000000137e+02
7.500000000000000000e+01,2.432077500000000043e+02
7.600000000000000000e+01,2.443067800000000034e+02
7.700000000000000000e+01,2.453944199999999967e+02
7.800000000000000000e+01,2.464704099999999869e+02
7.900000000000000000e+01,2.475353900000000067e+02
8.000000000000000000e+01,2.485895500000000027e+02
8.100000000000000000e+01,2.496330600000000004e+02
8.200000000000000000e+01,2.506659699999999873e+02
8.300000000000000000e+01,2.516886000000000081e+02
8.400000000000000000e+01,2.527011599999999873e+02
8.500000000000000000e+01,2.537037699999999916e+02
8.600000000000000000e+01,2.546966700000000117e+02
8.700000000000000000e+01,2.556802199999999914e+02
8.800000000000000000e+01,2.566537500000000023e+02
8.900000000000000000e+01,2.576186500000000024e+02
9.000000000000000000e+01,2.585742799999999875e+02
9.100000000000000000e+01,2.595208400000000211e+02
9.200000000000000000e+01,2.604592000000000098e+02
9.300000000000000000e+01,2.613882800000000088e+02
9.400000000000000000e+01,2.623093000000000075e+02
9.500000000000000000e+01,2.632223799999999869e+02
9.600000000000000000e+01,2.641265599999999836e+02
9.700000000000000000e+01,2.650230999999999995e+02
9.800000000000000000e+01,2.659118000000000279e+02
9.900000000000000000e+01,2.667925099999999929e+02
1.000000000000000000e+02,2.676657999999999902e+02
1.010000000000000000e+02,2.685316199999999753e+02
1.020000000000000000e+02,2.693900499999999738e+02
1.030000000000000000e+02,2.702412100000000237e+02
1.040000000000000000e+02,2.710855999999999995e+02
1.050000000000000000e+02,2.719222700000000259e+02
1.060000000000000000e+02,2.727523499999999785e+02
1.070000000000000000e+02,2.735758999999999901e+02
1.080000000000000000e+02,2.743926399999999717e+02
1.090000000000000000e+02,2.752026399999999740e+02
1.100000000000000000e+02,2.760062300000000164e+02
1.110000000000000000e+02,2.768034099999999853e+02
1.120000000000000000e+02,2.775942400000000134e+02
1.130000000000000000e+02,2.783791499999999814e+02
1.140000000000000000e+02,2.791575900000000274e+02
1.150000000000000000e+02,2.799298999999999751e+02
1.160000000000000000e+02,2.806965299999999957e+02
1.170000000000000000e+02,2.814569700000000125e+02
1.180000000000000000e+02,2.822112999999999943e+02
1.190000000000000000e+02,2.829600500000000238e+02
1.200000000000000000e+02,2.837027899999999931e+02
1.210000000000000000e+02,2.844399399999999787e+02
1.220000000000000000e+02,2.851714200000000119e+02
1.230000000000000000e+02,2.858969999999999914e+02
1.240000000000000000e+02,2.866168499999999995e+02
1.250000000000000000e+02,2.873314799999999991e+02
1.260000000000000000e+02,2.880402199999999766e+02
1.270000000000000000e+02,2.887435899999999833e+02
1.280000000000000000e+02,2.894415000000000191e+02
1.290000000000000000e+02,2.901336400000000140e+02
1.300000000000000000e+02,2.908201300000000060e+02
1.310000000000000000e+02,2.915017399999999839e+02
1.320000000000000000e+02,2.921773699999999963e+02
1.330000000000000000e+02,2.928478400000000192e+02
1.340000000000000000e+02,2.935131499999999960e+02
1.350000000000000000e+02,2.941724500000000262e+02
1.360000000000000000e+02,2.948262899999999718e+02
1.370000000000000000e+02,2.954751899999999978e+02
1.380000000000000000e+02,2.961184400000000210e+02
1.390000000000000000e+02,2.967560399999999845e+02
1.400000000000000000e+02,2.973887599999999907e+02
1.410000000000000000e+02,2.980154699999999934e+02
1.420000000000000000e+02,2.986370200000000068e+02
1.430000000000000000e+02,2.992536000000000058e+02
1.440000000000000000e+02,2.998642300000000205e+02
1.450000000000000000e+02,3.004697899999999890e+02
1.460000000000000000e+02,3.010698199999999929e+02
1.470000000000000000e+02,3.016643700000000194e+02
1.480000000000000000e+02,3.022534200000000055e+02
1.490000000000000000e+02,3.028375500000000216e+02
1.500000000000000000e+02,3.034155900000000088e+02
1.510000000000000000e+02,3.039886200000000258e+02
1.520000000000000000e+02,3.045562100000000214e+02
1.530000000000000000e+02,3.051186500000000024e+02
1.540000000000000000e+02,3.056752299999999991e+02
1.550000000000000000e+02,3.062269600000000196e+02
1.560000000000000000e+02,3.067729800000000182e+02
1.570000000000000000e+02,3.073134499999999889e+02
1.580000000000000000e+02,3.078490899999999897e+02
1.590000000000000000e+02,3.083792399999999816e+02
1.600000000000000000e+02,3.089034700000000271e+02
1.610000000000000000e+02,3.094233399999999961e+02
1.620000000000000000e+02,3.099373499999999808e+02
1.630000000000000000e+02,3.104459800000000200e+02
1.640000000000000000e+02,3.109498600000000010e+02
1.650000000000000000e+02,3.114483299999999986e+02
1.660000000000000000e+02,3.119415900000000192e+02
1.670000000000000000e+02,3.124295999999999935e+02
1.680000000000000000e+02,3.129126600000000167e+02
1.690000000000000000e+02,3.133904699999999934e+02
1.700000000000000000e+02,3.138634599999999750e+02
1.710000000000000000e+02,3.143312999999999988e+02
1.720000000000000000e+02,3.147938500000000204e+02
1.730000000000000000e+02,3.152520099999999843e+02
1.740000000000000000e+02,3.157050199999999904e+02
1.750000000000000000e+02,3.161531400000000076e+02
1.760000000000000000e+02,3.165967099999999732e+02
1.770000000000000000e+02,3.170353700000000003e+02
1.780000000000000000e+02,3.174693300000000136e+02
1.790000000000000000e+02,3.178991700000000264e+02
1.800000000000000000e+02,3.183235199999999736e+02
1.810000000000000000e+02,3.187438000000000216e+02
1.820000000000000000e+02,3.191600300000000061e+02
1.830000000000000000e+02,3.195714399999999955e+02
1.840000000000000000e+02,3.199785200000000032e+02
1.850000000000000000e+02,3.203818999999999733e+02
1.860000000000000000e+02,3.207803000000000111e+02
1.870000000000000000e+02,3.211747399999999857e+02
1.880000000000000000e+02,3.215658000000000243e+02
1.890000000000000000e+02,3.219522400000000175e+02
1.900000000000000000e+02,3.223346599999999853e+02
1.910000000000000000e+02,3.227139300000000048e+02
1.920000000000000000e+02,3.230889000000000237e+02
1.930000000000000000e+02,3.234600199999999859e+02
1.940000000000000000e+02,3.238283099999999877e+02
1.950000000000000000e+02,3.241921399999999949e+02
1.960000000000000000e+02,3.245525200000000154e+02
1.970000000000000000e+02,3.249100599999999872e+02
1.980000000000000000e+02,3.252636999999999716e+02
1.990000000000000000e+02,3.256139200000000073e+02
2.000000000000000000e+02,3.259616100000000074e+02
2.010000000000000000e+02,3.263055100000000266e+02
2.020000000000000000e+02,3.266461800000000153e+02
2.030000000000000000e+02,3.269848000000000070e+02
2.040000000000000000e+02,3.273194899999999734e+02
2.050000000000000000e+02,3.276513699999999858e+02
2.060000000000000000e+02,3.279810800000000199e+02
2.070000000000000000e+02,3.283073999999999728e+02
2.080000000000000000e+02,3.286308900000000222e+02
2.090000000000000000e+02,3.289526999999999930e+02
2.100000000000000000e+02,3.292708999999999833e+02
2.110000000000000000e+02,3.295866700000000264e+02
2.120000000000000000e+02,3.299006299999999783e+02
2.130000000000000000e+02,3.302118500000000267e+02
2.140000000000000000e+02,3.305206299999999828e+02
2.150000000000000000e+02,3.308274499999999989e+02
2.160000000000000000e+02,3.311314699999999789e+02
2.170000000000000000e+02,3.314331700000000183e+02
2.180000000000000000e+02,3.317337600000000180e+02
2.190000000000000000e+02,3.320311899999999810e+02
2.200000000000000000e+02,3.323269300000000044e+02
2.210000000000000000e+02,3.326211500000000001e+02
2.220000000000000000e+02,3.329129899999999793e+02
2.230000000000000000e+02,3.332023599999999988e+02
2.240000000000000000e+02,3.334908800000000042e+02
2.250000000000000000e+02,3.337770699999999806e+02
2.260000000000000000e+02,3.340613700000000108e+02
2.270000000000000000e+02,3.343446400000000267e+02
2.280000000000000000e+02,3.346253399999999942e+02
2.290000000000000000e+02,3.349046000000000163e+02
2.300000000000000000e+02,3.351825900000000047e+02
2.310000000000000000e+02,3.354587099999999964e+02
2.320000000000000000e+02,3.357331500000000233e+02
2.330000000000000000e+02,3.360064699999999789e+02
2.340000000000000000e+02,3.362778000000000134e+02
2.350000000000000000e+02,3.365481599999999958e+02
2.360000000000000000e+02,3.368171100000000138e+02
2.370000000000000000e+02,3.370840799999999717e+02
2.380000000000000000e+02,3.373498200000000224e+02
2.390000000000000000e+02,3.376149300000000153e+02
2.400000000000000000e+02,3.378779000000000110e+02
2.410000000000000000e+02,3.381398300000000177e+02
2.420000000000000000e+02,3.384007300000000100e+02
2.430000000000000000e+02,3.386601299999999810e+02
2.440000000000000000e+02,3.389181800000000067e+02
2.450000000000000000e+02,3.391755099999999743e+02
2.460000000000000000e+02,3.394313700000000154e+02
2.470000000000000000e+02,3.396858799999999974e+02
2.480000000000000000e+02,3.399396100000000160e+02
2.490000000000000000e+02,3.401919899999999757e+02
2.500000000000000000e+02,3.404429600000000278e+02
2.510000000000000000e+02,3.406937599999999975e+02
2.520000000000000000e+02,3.409427800000000275e+02
2.530000000000000000e+02,3.411904900000000112e+02
2.540000000000000000e+02,3.414380800000000136e+02
2.550000000000000000e+02,3.416841099999999756e+02
2.560000000000000000e+02,3.419288000000000238e+02
2.570000000000000000e+02,3.421736799999999903e+02
2.580000000000000000e+02,3.424160200000000032e+02
2.590000000000000000e+02,3.426581100000000220e+02
2.600000000000000000e+02,3.428999900000000025e+02
2.610000000000000000e+02,3.431395600000000172e+02
2.620000000000000000e+02,3.433792399999999816e+02
2.630000000000000000e+02,3.436176500000000260e+02
2.640000000000000000e+02,3.438547100000000114e+02
2.650000000000000000e+02,3.440915499999999838e+02
2.660000000000000000e+02,3.443274200000000178e+02
2.670000000000000000e+02,3.445621899999999869e+02
2.680000000000000000e+02,3.447956800000000044e+02
2.690000000000000000e+02,3.450296900000000164e+02
2.700000000000000000e+02,3.452614399999999932e+02
2.710000000000000000e+02,3.454924300000000130e+02
2.720000000000000000e+02,3.457237499999999955e+02
2.730000000000000000e+02,3.459529999999999745e+02
2.740000000000000000e+02,3.461819499999999721e+02
2.750000000000000000e+02,3.464101299999999810e+02
2.760000000000000000e+02,3.466378199999999765e+02
2.770000000000000000e+02,3.468632799999999747e+02
2.780000000000000000e+02,3.470895699999999806e+02
2.790000000000000000e+02,3.473147900000000163e+02
2.800000000000000000e+02,3.475380599999999731e+02
2.810000000000000000e+02,3.477629099999999767e+02
2.820000000000000000e+02,3.479844100000000253e+02
2.830000000000000000e+02,3.482064199999999801e+02
2.840000000000000000e+02,3.484278600000000097e+02
2.850000000000000000e+02,3.486481299999999806e+02
2.860000000000000000e+02,3.488672199999999748e+02
2.870000000000000000e+02,3.490865200000000073e+02
2.880000000000000000e+02,3.493043799999999806e+02
2.890000000000000000e+02,3.495213299999999776e+02
2.900000000000000000e+02,3.497389200000000073e+02
2.910000000000000000e+02,3.499541899999999828e+02
2.920000000000000000e+02,3.501694899999999961e+02
2.930000000000000000e+02,3.503838799999999765e+02
2.940000000000000000e+02,3.505982700000000136e+02
2.950000000000000000e+02,3.508102099999999837e+02
2.960000000000000000e+02,3.510240499999999884e+02
2.970000000000000000e+02,3.512345300000000066e+02
2.980000000000000000e+02,3.514462300000000141e+02
2.990000000000000000e+02,3.516560400000000186e+02
3.000000000000000000e+02,3.518658800000000042e+02
3.010000000000000000e+02,3.520740700000000061e+02
3.020000000000000000e+02,3.522832599999999843e+02
3.030000000000000000e+02,3.525944499999999948e+02
3.040000000000000000e+02,3.506171299999999746e+02
3.050000000000000000e+02,3.508223899999999844e+02
3.060000000000000000e+02,3.507443799999999783e+02
3.070000000000000000e+02,3.508992600000000266e+02
3.080000000000000000e+02,3.510251200000000154e+02
3.090000000000000000e+02,3.511990700000000061e+02
3.100000000000000000e+02,3.513731999999999971e+02
3.110000000000000000e+02,3.515627400000000193e+02
3.120000000000000000e+02,3.517537800000000061e+02
3.130000000000000000e+02,3.519493699999999876e+02
3.140000000000000000e+02,3.521487700000000132e+02
3.150000000000000000e+02,3.523483899999999949e+02
3.160000000000000000e+02,3.525502000000000180e+02
3.170000000000000000e+02,3.527523499999999785e+02
3.180000000000000000e+02,3.529554099999999721e+02
3.190000000000000000e+02,3.531574100000000271e+02
3.200000000000000000e+02,3.533614799999999718e+02
3.210000000000000000e+02,3.535635100000000079e+02
3.220000000000000000e+02,3.537665700000000015e+02
3.230000000000000000e+02,3.539685699999999997e+02
3.240000000000000000e+02,3.541705900000000042e+02
3.250000000000000000e+02,3.543716699999999946e+02
3.260000000000000000e+02,3.545734299999999735e+02
3.270000000000000000e+02,3.547735900000000129e+02
3.280000000000000000e+02,3.549736899999999764e+02
3.290000000000000000e+02,3.551734900000000152e+02
3.300000000000000000e+02,3.553724399999999832e+02
3.310000000000000000e+02,3.555704000000000065e+02
3.320000000000000000e+02,3.557689199999999801e+02
3.330000000000000000e+02,3.559657300000000077e+02
3.340000000000000000e+02,3.561624100000000226e+02
3.350000000000000000e+02,3.563586999999999989e+02
3.360000000000000000e+02,3.565542899999999804e+02
3.370000000000000000e+02,3.567481399999999780e+02
3.380000000000000000e+02,3.569436299999999846e+02
3.390000000000000000e+02,3.571361699999999928e+02
3.400000000000000000e+02,3.573297400000000152e+02
3.410000000000000000e+02,3.575217299999999909e+02
3.420000000000000000e+02,3.577141700000000242e+02
3.430000000000000000e+02,3.579042699999999968e+02
3.440000000000000000e+02,3.580961300000000165e+02
3.450000000000000000e+02,3.582850300000000061e+02
3.460000000000000000e+02,3.584749800000000164e+02
3.470000000000000000e+02,3.586638199999999870e+02
3.480000000000000000e+02,3.588515899999999874e+02
3.490000000000000000e+02,3.590389999999999873e+02
3.500000000000000000e+02,3.592260099999999738e+02
3.510000000000000000e+02,3.594123799999999846e+02
3.520000000000000000e+02,3.595973799999999869e+02
3.530000000000000000e+02,3.597832000000000221e+02
3.540000000000000000e+02,3.599671299999999974e+02
3.550000000000000000e+02,3.601510599999999727e+02
3.560000000000000000e+02,3.603344399999999723e+02
3.570000000000000000e+02,3.605172400000000152e+02
3.580000000000000000e+02,3.606987899999999740e+02
3.590000000000000000e+02,3.608809800000000223e+02
3.600000000000000000e+02,3.610619800000000055e+02
3.610000000000000000e+02,3.612413599999999860e+02
3.620000000000000000e+02,3.614223299999999881e+02
3.630000000000000000e+02,3.616003699999999981e+02
3.640000000000000000e+02,3.617796900000000164e+02
3.650000000000000000e+02,3.619571500000000128e+02
3.660000000000000000e+02,3.621354400000000169e+02
3.670000000000000000e+02,3.623111000000000104e+02
3.680000000000000000e+02,3.624888599999999883e+02
3.690000000000000000e+02,3.626640300000000252e+02
3.700000000000000000e+02,3.628389900000000239e+02
3.710000000000000000e+02,3.630142200000000230e+02
3.720000000000000000e+02,3.631879000000000133e+02
3.730000000000000000e+02,3.633615699999999720e+02
3.740000000000000000e+02,3.635346700000000055e+02
3.750000000000000000e+02,3.637073399999999879e+02
3.760000000000000000e+02,3.638793900000000008e+02
3.770000000000000000e+02,3.640509900000000130e+02
3.780000000000000000e+02,3.642220199999999863e+02
3.790000000000000000e+02,3.645187700000000177e+02
3.800000000000000000e+02,3.635425399999999740e+02
3.810000000000000000e+02,3.637312900000000013e+02
3.820000000000000000e+02,3.637313199999999824e+02
3.830000000000000000e+02,3.638767700000000218e+02
3.840000000000000000e+02,3.639930699999999888e+02
3.850000000000000000e+02,3.641423599999999965e+02
3.860000000000000000e+02,3.642884500000000116e+02
3.870000000000000000e+02,3.644451599999999871e+02
3.880000000000000000e+02,3.646013199999999870e+02
3.890000000000000000e+02,3.647618100000000254e+02
3.900000000000000000e+02,3.649229399999999828e+02
3.910000000000000000e+02,3.650851099999999860e+02
3.920000000000000000e+02,3.652487499999999727e+02
3.930000000000000000e+02,3.654127799999999979e+02
3.940000000000000000e+02,3.655758400000000279e+02
3.950000000000000000e+02,3.657410600000000045e+02
3.960000000000000000e+02,3.659048199999999724e+02
3.970000000000000000e+02,3.660690299999999979e+02
3.980000000000000000e+02,3.662336099999999988e+02
3.990000000000000000e+02,3.663965499999999906e+02
