# Time [s], Temperature [C]
1.000000000000000000e+00,2.499997099999999861e+01
2.000000000000000000e+00,6.938278200000000595e+01
3.000000000000000000e+00,9.429540299999999320e+01
4.000000000000000000e+00,1.143070299999999975e+02
5.000000000000000000e+00,1.308972300000000075e+02
6.000000000000000000e+00,1.453544599999999889e+02
7.000000000000000000e+00,1.582139899999999955e+02
8.000000000000000000e+00,1.698532899999999870e+02
9.000000000000000000e+00,1.805135799999999904e+02
1.000000000000000000e+01,1.903629200000000026e+02
1.100000000000000000e+01,1.995309599999999932e+02
1.200000000000000000e+01,2.081124399999999923e+02
1.300000000000000000e+01,2.161825399999999888e+02
1.400000000000000000e+01,2.238057599999999923e+02
1.500000000000000000e+01,2.310332200000000000e+02
1.600000000000000000e+01,2.379071199999999919e+02
1.700000000000000000e+01,2.444674400000000105e+02
1.800000000000000000e+01,2.507517699999999934e+02
1.900000000000000000e+01,2.567907999999999902e+02
2.000000000000000000e+01,2.626152999999999906e+02
2.100000000000000000e+01,2.682390700000000265e+02
2.200000000000000000e+01,2.736738599999999906e+02
2.300000000000000000e+01,2.789178200000000061e+02
2.400000000000000000e+01,2.839643199999999865e+02
2.500000000000000000e+01,2.888067599999999970e+02
2.600000000000000000e+01,2.934501999999999953e+02
2.700000000000000000e+01,2.978940699999999993e+02
2.800000000000000000e+01,3.021479499999999803e+02
2.900000000000000000e+01,3.062221700000000055e+02
3.000000000000000000e+01,3.101210599999999999e+02
3.100000000000000000e+01,3.138508600000000115e+02
3.200000000000000000e+01,3.174161100000000033e+02
3.300000000000000000e+01,3.208153699999999731e+02
3.400000000000000000e+01,3.240521200000000022e+02
3.500000000000000000e+01,3.271272900000000163e+02
3.600000000000000000e+01,3.300392499999999814e+02
3.700000000000000000e+01,3.327918099999999981e+02
3.800000000000000000e+01,3.353825100000000248e+02
3.900000000000000000e+01,3.378197000000000116e+02
4.000000000000000000e+01,3.401016799999999876e+02
4.100000000000000000e+01,3.422374300000000176e+02
4.200000000000000000e+01,3.442334900000000175e+02
4.300000000000000000e+01,3.461014400000000251e+02
4.400000000000000000e+01,3.478402699999999754e+02
4.500000000000000000e+01,3.494728400000000192e+02
4.600000000000000000e+01,3.510045499999999947e+02
4.700000000000000000e+01,3.524339299999999753e+02
4.800000000000000000e+01,3.537938800000000015e+02
4.900000000000000000e+01,3.550790400000000204e+02
5.000000000000000000e+01,3.562897300000000200e+02
5.100000000000000000e+01,3.574574900000000071e+02
5.200000000000000000e+01,3.585785200000000259e+02
5.300000000000000000e+01,3.596419099999999958e+02
5.400000000000000000e+01,3.606861900000000105e+02
5.500000000000000000e+01,3.617008999999999901e+02
5.600000000000000000e+01,3.626723900000000071e+02
5.700000000000000000e+01,3.636430100000000039e+02
5.800000000000000000e+01,3.645953400000000215e+02
5.900000000000000000e+01,3.655124200000000201e+02
6.000000000000000000e+01,3.664417399999999816e+02
6.100000000000000000e+01,3.673619699999999852e+02
6.200000000000000000e+01,3.682524999999999977e+02
6.300000000000000000e+01,3.691651299999999765e+02
6.400000000000000000e+01,3.700765099999999848e+02
6.500000000000000000e+01,3.709590499999999906e+02
6.600000000000000000e+01,3.718710899999999810e+02
6.700000000000000000e+01,3.727868700000000217e+02
6.800000000000000000e+01,3.736754500000000121e+02
6.900000000000000000e+01,3.746001600000000167e+02
7.000000000000000000e+01,3.755276499999999942e+02
7.100000000000000000e+01,3.764287100000000237e+02
7.200000000000000000e+01,3.773704200000000242e+02
7.300000000000000000e+01,3.783147000000000162e+02
7.400000000000000000e+01,3.792356899999999769e+02
7.500000000000000000e+01,3.801922299999999950e+02
7.600000000000000000e+01,3.811533200000000079e+02
7.700000000000000000e+01,3.820908800000000269e+02
7.800000000000000000e+01,3.830598400000000083e+02
7.900000000000000000e+01,3.840331100000000220e+02
8.000000000000000000e+01,3.849786399999999844e+02
8.100000000000000000e+01,3.859506799999999771e+02
8.200000000000000000e+01,3.869224199999999882e+02
8.300000000000000000e+01,3.878654799999999909e+02
8.400000000000000000e+01,3.888288600000000201e+02
8.500000000000000000e+01,3.897789599999999837e+02
8.600000000000000000e+01,3.907088600000000156e+02
8.700000000000000000e+01,3.916427299999999718e+02
8.800000000000000000e+01,3.925607899999999972e+02
8.900000000000000000e+01,3.934615800000000263e+02
9.000000000000000000e+01,3.943538500000000226e+02
9.100000000000000000e+01,3.952360499999999774e+02
9.200000000000000000e+01,3.960928599999999733e+02
9.300000000000000000e+01,3.969428700000000276e+02
9.400000000000000000e+01,3.977812500000000000e+02
9.500000000000000000e+01,3.986048900000000117e+02
9.600000000000000000e+01,3.994194600000000150e+02
9.700000000000000000e+01,4.002288800000000037e+02
9.800000000000000000e+01,4.010293899999999780e+02
9.900000000000000000e+01,4.018232699999999795e+02
1.000000000000000000e+02,4.026165500000000179e+02
1.010000000000000000e+02,4.034078400000000215e+02
1.020000000000000000e+02,4.006254900000000134e+02
1.030000000000000000e+02,3.967237900000000081e+02
1.040000000000000000e+02,3.970369600000000219e+02
1.050000000000000000e+02,3.975730899999999792e+02
1.060000000000000000e+02,3.984773900000000140e+02
1.070000000000000000e+02,3.994497700000000009e+02
1.080000000000000000e+02,4.004858699999999772e+02
1.090000000000000000e+02,4.015256699999999910e+02
1.100000000000000000e+02,4.025496499999999855e+02
1.110000000000000000e+02,4.035470000000000255e+02
1.120000000000000000e+02,4.045159600000000069e+02
1.130000000000000000e+02,4.054494000000000256e+02
1.140000000000000000e+02,4.063516500000000065e+02
1.150000000000000000e+02,4.072259799999999927e+02
1.160000000000000000e+02,4.080764500000000226e+02
1.170000000000000000e+02,4.089073500000000081e+02
1.180000000000000000e+02,4.097273299999999949e+02
1.190000000000000000e+02,4.105362900000000081e+02
1.200000000000000000e+02,4.113425899999999729e+02
1.210000000000000000e+02,4.121451999999999884e+02
1.220000000000000000e+02,4.129504699999999957e+02
1.230000000000000000e+02,4.137565299999999979e+02
1.240000000000000000e+02,4.145685399999999845e+02
1.250000000000000000e+02,4.153827499999999873e+02
1.260000000000000000e+02,4.162029699999999934e+02
1.270000000000000000e+02,4.170270399999999995e+02
1.280000000000000000e+02,4.178510999999999740e+02
1.290000000000000000e+02,4.186778600000000097e+02
1.300000000000000000e+02,4.194990799999999922e+02
1.310000000000000000e+02,4.203225400000000036e+02
1.320000000000000000e+02,4.211388900000000035e+02
1.330000000000000000e+02,4.219515099999999848e+02
1.340000000000000000e+02,4.227576900000000251e+02
1.350000000000000000e+02,4.235521200000000022e+02
1.360000000000000000e+02,4.243388100000000236e+02
1.370000000000000000e+02,4.251158399999999915e+02
1.380000000000000000e+02,4.258820799999999736e+02
1.390000000000000000e+02,4.266347000000000094e+02
1.400000000000000000e+02,4.273801300000000083e+02
1.410000000000000000e+02,4.281178600000000074e+02
1.420000000000000000e+02,4.288445100000000139e+02
1.430000000000000000e+02,4.295651199999999790e+02
1.440000000000000000e+02,4.302784399999999891e+02
1.450000000000000000e+02,4.309863899999999717e+02
1.460000000000000000e+02,4.316932400000000030e+02
1.470000000000000000e+02,4.323939199999999801e+02
1.480000000000000000e+02,4.330925599999999918e+02
1.490000000000000000e+02,4.337907099999999900e+02
1.500000000000000000e+02,4.344870900000000233e+02
1.510000000000000000e+02,4.351845700000000079e+02
1.520000000000000000e+02,4.349767200000000003e+02
1.530000000000000000e+02,4.352469500000000266e+02
1.540000000000000000e+02,4.355409900000000221e+02
1.550000000000000000e+02,4.359807999999999879e+02
1.560000000000000000e+02,4.365166600000000017e+02
1.570000000000000000e+02,4.371142600000000016e+02
1.580000000000000000e+02,4.377542700000000195e+02
1.590000000000000000e+02,4.384155900000000088e+02
1.600000000000000000e+02,4.390926200000000108e+02
1.610000000000000000e+02,4.397767600000000243e+02
1.620000000000000000e+02,4.404653299999999945e+02
1.630000000000000000e+02,4.411564300000000003e+02
1.640000000000000000e+02,4.418518100000000004e+02
1.650000000000000000e+02,4.425467800000000125e+02
1.660000000000000000e+02,4.432438999999999965e+02
1.670000000000000000e+02,4.439423199999999952e+02
1.680000000000000000e+02,4.446431900000000041e+02
1.690000000000000000e+02,4.453427100000000110e+02
1.700000000000000000e+02,4.460426299999999742e+02
1.710000000000000000e+02,4.467420700000000124e+02
1.720000000000000000e+02,4.474410399999999868e+02
1.730000000000000000e+02,4.481357699999999795e+02
1.740000000000000000e+02,4.488272999999999797e+02
1.750000000000000000e+02,4.495141899999999850e+02
1.760000000000000000e+02,4.501972000000000094e+02
1.770000000000000000e+02,4.508716099999999756e+02
1.780000000000000000e+02,4.515395199999999818e+02
1.790000000000000000e+02,4.522022400000000175e+02
1.800000000000000000e+02,4.528584599999999796e+02
1.810000000000000000e+02,4.535053100000000086e+02
1.820000000000000000e+02,4.541457800000000020e+02
1.830000000000000000e+02,4.547768899999999803e+02
1.840000000000000000e+02,4.554011499999999728e+02
1.850000000000000000e+02,4.560208999999999833e+02
1.860000000000000000e+02,4.566354099999999789e+02
1.870000000000000000e+02,4.572444800000000100e+02
1.880000000000000000e+02,4.578471099999999865e+02
1.890000000000000000e+02,4.584469599999999900e+02
1.900000000000000000e+02,4.590439099999999826e+02
1.910000000000000000e+02,4.596378199999999765e+02
1.920000000000000000e+02,4.602262299999999868e+02
1.930000000000000000e+02,4.608163099999999872e+02
1.940000000000000000e+02,4.612580899999999815e+02
1.950000000000000000e+02,4.616597300000000246e+02
1.960000000000000000e+02,4.620984199999999760e+02
1.970000000000000000e+02,4.625202899999999886e+02
1.980000000000000000e+02,4.629585599999999772e+02
1.990000000000000000e+02,4.634191000000000145e+02
2.000000000000000000e+02,4.638984699999999748e+02
2.010000000000000000e+02,4.643953200000000265e+02
2.020000000000000000e+02,4.649063100000000190e+02
2.030000000000000000e+02,4.654321299999999724e+02
2.040000000000000000e+02,4.659659700000000271e+02
2.050000000000000000e+02,4.665079299999999876e+02
2.060000000000000000e+02,4.670563700000000154e+02
2.070000000000000000e+02,4.676087600000000180e+02
2.080000000000000000e+02,4.681658300000000281e+02
2.090000000000000000e+02,4.687260400000000118e+02
2.100000000000000000e+02,4.692880200000000173e+02
2.110000000000000000e+02,4.698494600000000219e+02
2.120000000000000000e+02,4.704094799999999736e+02
2.130000000000000000e+02,4.709684799999999996e+02
2.140000000000000000e+02,4.715247200000000021e+02
2.150000000000000000e+02,4.720791300000000206e+02
2.160000000000000000e+02,4.726298199999999952e+02
2.170000000000000000e+02,4.731751100000000179e+02
2.180000000000000000e+02,4.737170399999999972e+02
2.190000000000000000e+02,4.742543000000000006e+02
2.200000000000000000e+02,4.747875700000000165e+02
2.210000000000000000e+02,4.753159800000000246e+02
2.220000000000000000e+02,4.758416399999999840e+02
2.230000000000000000e+02,4.763596800000000258e+02
2.240000000000000000e+02,4.768765000000000214e+02
2.250000000000000000e+02,4.773870200000000068e+02
2.260000000000000000e+02,4.778958099999999831e+02
2.270000000000000000e+02,4.783977100000000178e+02
2.280000000000000000e+02,4.788657799999999725e+02
2.290000000000000000e+02,4.792989499999999907e+02
2.300000000000000000e+02,4.797207000000000221e+02
2.310000000000000000e+02,4.801347700000000032e+02
2.320000000000000000e+02,4.805439799999999764e+02
2.330000000000000000e+02,4.809553500000000099e+02
2.340000000000000000e+02,4.813706700000000183e+02
2.350000000000000000e+02,4.817913199999999847e+02
2.360000000000000000e+02,4.822149699999999939e+02
2.370000000000000000e+02,4.826467900000000100e+02
2.380000000000000000e+02,4.830835599999999772e+02
2.390000000000000000e+02,4.835252100000000155e+02
2.400000000000000000e+02,4.839680200000000241e+02
2.410000000000000000e+02,4.844153099999999768e+02
2.420000000000000000e+02,4.848653600000000097e+02
2.430000000000000000e+02,4.853146699999999782e+02
2.440000000000000000e+02,4.857665700000000015e+02
2.450000000000000000e+02,4.862185099999999807e+02
2.460000000000000000e+02,4.866716000000000122e+02
2.470000000000000000e+02,4.871217700000000264e+02
2.480000000000000000e+02,4.875726300000000037e+02
2.490000000000000000e+02,4.880222200000000043e+02
2.500000000000000000e+02,4.884677399999999921e+02
2.510000000000000000e+02,4.889132099999999923e+02
2.520000000000000000e+02,4.893566000000000145e+02
2.530000000000000000e+02,4.897969699999999875e+02
2.540000000000000000e+02,4.902338300000000118e+02
2.550000000000000000e+02,4.906689099999999826e+02
2.560000000000000000e+02,4.911017499999999814e+02
2.570000000000000000e+02,4.915321700000000078e+02
2.580000000000000000e+02,4.919581000000000017e+02
2.590000000000000000e+02,4.923826300000000060e+02
2.600000000000000000e+02,4.928051500000000260e+02
2.610000000000000000e+02,4.932255200000000173e+02
2.620000000000000000e+02,4.936445299999999747e+02
2.630000000000000000e+02,4.940511500000000069e+02
2.640000000000000000e+02,4.944412199999999871e+02
2.650000000000000000e+02,4.948196100000000115e+02
2.660000000000000000e+02,4.951910399999999868e+02
2.670000000000000000e+02,4.955575000000000045e+02
2.680000000000000000e+02,4.959211999999999989e+02
2.690000000000000000e+02,4.962844200000000114e+02
2.700000000000000000e+02,4.966477399999999989e+02
2.710000000000000000e+02,4.970113200000000120e+02
2.720000000000000000e+02,4.973760100000000079e+02
2.730000000000000000e+02,4.977423400000000129e+02
2.740000000000000000e+02,4.981100500000000011e+02
2.750000000000000000e+02,4.984784500000000094e+02
2.760000000000000000e+02,4.988474400000000060e+02
2.770000000000000000e+02,4.992174699999999916e+02
2.780000000000000000e+02,4.995888100000000236e+02
2.790000000000000000e+02,4.999604800000000182e+02
2.800000000000000000e+02,5.003319099999999935e+02
2.810000000000000000e+02,5.007033099999999877e+02
2.820000000000000000e+02,5.010744599999999878e+02
2.830000000000000000e+02,5.014452499999999873e+02
2.840000000000000000e+02,5.018157699999999863e+02
2.850000000000000000e+02,5.021847200000000271e+02
2.860000000000000000e+02,5.025523099999999772e+02
2.870000000000000000e+02,5.029194299999999771e+02
2.880000000000000000e+02,5.032852800000000002e+02
2.890000000000000000e+02,5.036510000000000105e+02
2.900000000000000000e+02,5.040120200000000068e+02
2.910000000000000000e+02,5.043726800000000026e+02
2.920000000000000000e+02,5.047325999999999908e+02
2.930000000000000000e+02,5.050918899999999780e+02
2.940000000000000000e+02,5.054497400000000198e+02
2.950000000000000000e+02,5.058063700000000154e+02
2.960000000000000000e+02,5.061616799999999898e+02
2.970000000000000000e+02,5.064982899999999972e+02
2.980000000000000000e+02,5.068371599999999830e+02
2.990000000000000000e+02,5.071795299999999997e+02
3.000000000000000000e+02,5.075150499999999738e+02
3.010000000000000000e+02,5.078466799999999921e+02
3.020000000000000000e+02,5.081770000000000209e+02
3.030000000000000000e+02,5.085030800000000113e+02
3.040000000000000000e+02,5.088266300000000228e+02
3.050000000000000000e+02,5.091498399999999833e+02
3.060000000000000000e+02,5.094707900000000222e+02
3.070000000000000000e+02,5.097918099999999981e+02
3.080000000000000000e+02,5.101132200000000125e+02
3.090000000000000000e+02,5.104347799999999893e+02
3.100000000000000000e+02,5.107576000000000249e+02
3.110000000000000000e+02,5.110797699999999963e+02
3.120000000000000000e+02,5.114025300000000129e+02
3.130000000000000000e+02,5.117256800000000112e+02
3.140000000000000000e+02,5.120496200000000044e+02
3.150000000000000000e+02,5.123732899999999972e+02
3.160000000000000000e+02,5.126995799999999690e+02
3.170000000000000000e+02,5.130241700000000264e+02
3.180000000000000000e+02,5.133489399999999705e+02
3.190000000000000000e+02,5.136737699999999904e+02
3.200000000000000000e+02,5.139989000000000487e+02
3.210000000000000000e+02,5.143245799999999690e+02
3.220000000000000000e+02,5.146489299999999503e+02
3.230000000000000000e+02,5.149739399999999705e+02
3.240000000000000000e+02,5.152986499999999523e+02
3.250000000000000000e+02,5.156232300000000350e+02
3.260000000000000000e+02,5.159478100000000040e+02
3.270000000000000000e+02,5.162729500000000371e+02
3.280000000000000000e+02,5.165969199999999546e+02
3.290000000000000000e+02,5.169214500000000498e+02
3.300000000000000000e+02,5.172457299999999805e+02
3.310000000000000000e+02,5.175692699999999604e+02
3.320000000000000000e+02,5.178953900000000203e+02
3.330000000000000000e+02,5.182194200000000137e+02
3.340000000000000000e+02,5.185435800000000199e+02
3.350000000000000000e+02,5.188680399999999509e+02
3.360000000000000000e+02,5.191922600000000330e+02
3.370000000000000000e+02,5.195173999999999523e+02
3.380000000000000000e+02,5.198419199999999591e+02
3.390000000000000000e+02,5.201705899999999474e+02
3.400000000000000000e+02,5.204976199999999835e+02
3.410000000000000000e+02,5.208228100000000040e+02
3.420000000000000000e+02,5.211462400000000343e+02
3.430000000000000000e+02,5.214688700000000381e+02
3.440000000000000000e+02,5.217893100000000004e+02
3.450000000000000000e+02,5.221090699999999742e+02
3.460000000000000000e+02,5.224280999999999722e+02
3.470000000000000000e+02,5.227466399999999567e+02
3.480000000000000000e+02,5.230675700000000461e+02
3.490000000000000000e+02,5.233871500000000196e+02
3.500000000000000000e+02,5.237083099999999831e+02
3.510000000000000000e+02,5.240303999999999860e+02
3.520000000000000000e+02,5.243538200000000415e+02
3.530000000000000000e+02,5.246801100000000133e+02
3.540000000000000000e+02,5.250071400000000494e+02
3.550000000000000000e+02,5.253366099999999506e+02
3.560000000000000000e+02,5.256684599999999818e+02
3.570000000000000000e+02,5.260025000000000546e+02
3.580000000000000000e+02,5.263391699999999673e+02
3.590000000000000000e+02,5.266792599999999993e+02
3.600000000000000000e+02,5.270205700000000206e+02
3.610000000000000000e+02,5.273656600000000481e+02
3.620000000000000000e+02,5.277142300000000432e+02
3.630000000000000000e+02,5.280660400000000436e+02
3.640000000000000000e+02,5.284213899999999740e+02
3.650000000000000000e+02,5.287804599999999482e+02
3.660000000000000000e+02,5.291429399999999532e+02
3.670000000000000000e+02,5.295104400000000169e+02
3.680000000000000000e+02,5.298816500000000360e+02
3.690000000000000000e+02,5.302577499999999873e+02
3.700000000000000000e+02,5.306383100000000468e+02
3.710000000000000000e+02,5.310241099999999506e+02
3.720000000000000000e+02,5.314154099999999517e+02
3.730000000000000000e+02,5.318105500000000347e+02
3.740000000000000000e+02,5.322129499999999780e+02
3.750000000000000000e+02,5.326223099999999704e+02
3.760000000000000000e+02,5.330383299999999736e+02
3.770000000000000000e+02,5.334617899999999509e+02
3.780000000000000000e+02,5.338911699999999882e+02
3.790000000000000000e+02,5.343295299999999770e+02
3.800000000000000000e+02,5.347771000000000186e+02
3.810000000000000000e+02,5.352311999999999443e+02
3.820000000000000000e+02,5.356966599999999517e+02
3.830000000000000000e+02,5.361718100000000504e+02
3.840000000000000000e+02,5.366553999999999860e+02
3.850000000000000000e+02,5.371498400000000402e+02
3.860000000000000000e+02,5.376547199999999975e+02
3.870000000000000000e+02,5.381694899999999961e+02
3.880000000000000000e+02,5.386949499999999489e+02
3.890000000000000000e+02,5.392296099999999797e+02
3.900000000000000000e+02,5.397728899999999612e+02
3.910000000000000000e+02,5.403282500000000255e+02
3.920000000000000000e+02,5.408911100000000260e+02
3.930000000000000000e+02,5.414641699999999673e+02
3.940000000000000000e+02,5.420435199999999440e+02
3.950000000000000000e+02,5.426298799999999574e+02
3.960000000000000000e+02,5.432234499999999571e+02
3.970000000000000000e+02,5.438233599999999797e+02
3.980000000000000000e+02,5.444292599999999993e+02
3.990000000000000000e+02,5.450386399999999867e+02
