# Time [s], Convective Heat Transfer Coefficient [W/m2K]
1.000000000000000000e+00,0.000000000000000000e+00
2.000000000000000000e+00,0.000000000000000000e+00
3.000000000000000000e+00,0.000000000000000000e+00
4.000000000000000000e+00,0.000000000000000000e+00
5.000000000000000000e+00,0.000000000000000000e+00
6.000000000000000000e+00,0.000000000000000000e+00
7.000000000000000000e+00,2.412849599104084641e-02
8.000000000000000000e+00,3.574028725257893252e-02
9.000000000000000000e+00,5.446232763987680220e-02
1.000000000000000000e+01,7.835807837898799144e-02
1.100000000000000000e+01,1.081295564565561973e-01
1.200000000000000000e+01,1.441539670046533828e-01
1.300000000000000000e+01,1.864607758003966609e-01
1.400000000000000000e+01,2.348622081126609251e-01
1.500000000000000000e+01,2.890664208152959880e-01
1.600000000000000000e+01,3.486684715766604770e-01
1.700000000000000000e+01,4.131682989935965833e-01
1.800000000000000000e+01,4.820868665027233657e-01
1.900000000000000000e+01,5.549402035103230268e-01
2.000000000000000000e+01,6.312163700004357336e-01
2.100000000000000000e+01,7.104584502673979562e-01
2.200000000000000000e+01,7.922283119621548186e-01
2.300000000000000000e+01,8.761335148134030693e-01
2.400000000000000000e+01,9.618094357139416184e-01
2.500000000000000000e+01,1.048927688717403939e+00
2.600000000000000000e+01,1.137198120695525727e+00
2.700000000000000000e+01,1.226351341302256648e+00
2.800000000000000000e+01,1.316155204404837686e+00
2.900000000000000000e+01,1.406407213921356147e+00
3.000000000000000000e+01,1.496927027286627521e+00
3.100000000000000000e+01,1.587547636061964695e+00
3.200000000000000000e+01,1.678131602242903364e+00
3.300000000000000000e+01,1.768547144594251108e+00
3.400000000000000000e+01,1.858686063797573729e+00
3.500000000000000000e+01,1.948450152137862101e+00
3.600000000000000000e+01,2.037745962909685016e+00
3.700000000000000000e+01,2.126499881526147107e+00
3.800000000000000000e+01,2.214641433707577267e+00
3.900000000000000000e+01,2.302109320253233893e+00
4.000000000000000000e+01,2.388848086175915597e+00
4.100000000000000000e+01,2.474809419085827855e+00
4.200000000000000000e+01,2.562992170505531409e+00
4.300000000000000000e+01,2.648465055731712425e+00
4.400000000000000000e+01,2.732592333672316798e+00
4.500000000000000000e+01,2.815638404973774378e+00
4.600000000000000000e+01,2.897638533009177841e+00
4.700000000000000000e+01,2.978606906786773756e+00
4.800000000000000000e+01,3.058552902623087544e+00
4.900000000000000000e+01,3.137479302183510121e+00
5.000000000000000000e+01,3.215390703825047325e+00
5.100000000000000000e+01,3.292293292942383154e+00
5.200000000000000000e+01,3.368192602974428684e+00
5.300000000000000000e+01,3.443096986044904995e+00
5.400000000000000000e+01,3.517012751386988434e+00
5.500000000000000000e+01,3.589955003191727556e+00
5.600000000000000000e+01,3.661936321411513262e+00
5.700000000000000000e+01,3.732969318119524704e+00
5.800000000000000000e+01,3.803068650875536694e+00
5.900000000000000000e+01,3.872242857260105531e+00
6.000000000000000000e+01,3.940509737380053501e+00
6.100000000000000000e+01,4.007885650675247824e+00
6.200000000000000000e+01,4.074387810801330723e+00
6.300000000000000000e+01,4.140028507547637737e+00
6.400000000000000000e+01,4.204822907743242411e+00
6.500000000000000000e+01,4.268790850198082687e+00
6.600000000000000000e+01,4.331944732238365070e+00
6.700000000000000000e+01,4.394303694533856941e+00
6.800000000000000000e+01,4.455880481634990176e+00
6.900000000000000000e+01,4.516694109983005134e+00
7.000000000000000000e+01,4.576760777711445627e+00
7.100000000000000000e+01,4.636092154040234448e+00
7.200000000000000000e+01,4.694705718591748678e+00
7.300000000000000000e+01,4.752617380483879828e+00
7.400000000000000000e+01,4.809841826297386547e+00
7.500000000000000000e+01,4.866391636335965387e+00
7.600000000000000000e+01,4.922284688205206038e+00
7.700000000000000000e+01,4.977567874227352362e+00
7.800000000000000000e+01,5.032201424717501759e+00
7.900000000000000000e+01,5.086213250065728886e+00
8.000000000000000000e+01,5.139619371194314112e+00
8.100000000000000000e+01,5.192433006112922911e+00
8.200000000000000000e+01,5.244667510351910700e+00
8.300000000000000000e+01,5.296335470095280940e+00
8.400000000000000000e+01,5.347449087310386595e+00
8.500000000000000000e+01,5.398023093807554851e+00
8.600000000000000000e+01,5.448070957389829161e+00
8.700000000000000000e+01,5.497600568564971368e+00
8.800000000000000000e+01,5.546624195289109771e+00
8.900000000000000000e+01,5.595154841078520569e+00
9.000000000000000000e+01,5.643203711026955283e+00
9.100000000000000000e+01,5.690781691160364808e+00
9.200000000000000000e+01,5.737895384903191065e+00
9.300000000000000000e+01,5.784554796973283786e+00
9.400000000000000000e+01,5.830770234260904239e+00
9.500000000000000000e+01,5.876547124190310889e+00
9.600000000000000000e+01,5.921894459761642082e+00
9.700000000000000000e+01,5.966821665672733310e+00
9.800000000000000000e+01,6.011333184467282820e+00
9.900000000000000000e+01,6.055435761602090849e+00
1.000000000000000000e+02,6.099138464896652678e+00
1.010000000000000000e+02,6.142444357537198307e+00
1.020000000000000000e+02,6.185362567737691109e+00
1.030000000000000000e+02,6.227896644435138462e+00
1.040000000000000000e+02,6.270054754881489778e+00
1.050000000000000000e+02,6.311841060833700112e+00
1.060000000000000000e+02,6.353262763019660753e+00
1.070000000000000000e+02,6.394324692964172385e+00
1.080000000000000000e+02,6.435030873909203031e+00
1.090000000000000000e+02,6.475389398384931994e+00
1.100000000000000000e+02,6.515402690582376977e+00
1.110000000000000000e+02,6.555091194474468530e+00
1.120000000000000000e+02,6.594440507659027340e+00
1.130000000000000000e+02,6.633456899817166352e+00
1.140000000000000000e+02,6.672148229468325198e+00
1.150000000000000000e+02,6.710518653296533742e+00
1.160000000000000000e+02,6.748573460458402451e+00
1.170000000000000000e+02,6.786318754245859175e+00
1.180000000000000000e+02,6.823760652436244634e+00
1.190000000000000000e+02,6.860901804364951673e+00
1.200000000000000000e+02,6.897749202283919523e+00
1.210000000000000000e+02,6.934308108968336271e+00
1.220000000000000000e+02,6.970579015460685923e+00
1.230000000000000000e+02,7.006566946227237302e+00
1.240000000000000000e+02,7.042273438930480189e+00
1.250000000000000000e+02,7.077702793906954781e+00
1.260000000000000000e+02,7.112856152283863587e+00
1.270000000000000000e+02,7.147733711484080210e+00
1.280000000000000000e+02,7.182338853958062153e+00
1.290000000000000000e+02,7.216673274413200723e+00
1.300000000000000000e+02,7.250739730369833325e+00
1.310000000000000000e+02,7.284538903637702845e+00
1.320000000000000000e+02,7.318072117646131858e+00
1.330000000000000000e+02,7.351341740555763948e+00
1.340000000000000000e+02,7.384349420346588921e+00
1.350000000000000000e+02,7.417095690429234445e+00
1.360000000000000000e+02,7.449583603293365996e+00
1.370000000000000000e+02,7.481813602313438949e+00
1.380000000000000000e+02,7.513788193900555079e+00
1.390000000000000000e+02,7.545508159091109945e+00
1.400000000000000000e+02,7.576973848148284674e+00
1.410000000000000000e+02,7.608186410765263474e+00
1.420000000000000000e+02,7.639147762799093577e+00
1.430000000000000000e+02,7.669859162066217095e+00
1.440000000000000000e+02,7.700319654593304364e+00
1.450000000000000000e+02,7.730548098896576015e+00
1.460000000000000000e+02,7.760519813976038961e+00
1.470000000000000000e+02,7.790241926573493458e+00
1.480000000000000000e+02,7.819717706346449582e+00
1.490000000000000000e+02,7.848950511066733249e+00
1.500000000000000000e+02,7.877942840535646418e+00
1.510000000000000000e+02,7.906698802261293402e+00
1.520000000000000000e+02,7.935218104846003762e+00
1.530000000000000000e+02,7.963501382980276766e+00
1.540000000000000000e+02,7.991545215217913167e+00
1.550000000000000000e+02,8.019345540303445929e+00
1.560000000000000000e+02,8.046900027235823316e+00
1.570000000000000000e+02,8.074205859877055858e+00
1.580000000000000000e+02,8.101259751488171901e+00
1.590000000000000000e+02,8.128058844305005692e+00
1.600000000000000000e+02,8.154598405027794428e+00
1.610000000000000000e+02,8.180876255720432866e+00
1.620000000000000000e+02,8.206889040309610195e+00
1.630000000000000000e+02,8.232633814073503586e+00
1.640000000000000000e+02,8.258104938939428763e+00
1.650000000000000000e+02,8.283299963851307623e+00
1.660000000000000000e+02,8.308214607798355189e+00
1.670000000000000000e+02,8.332842980406793387e+00
1.680000000000000000e+02,8.357181648321558853e+00
1.690000000000000000e+02,8.381224228260126807e+00
1.700000000000000000e+02,8.404965775913181503e+00
1.710000000000000000e+02,8.428400105050812385e+00
1.720000000000000000e+02,8.451520801099915658e+00
1.730000000000000000e+02,8.474321222783446572e+00
1.740000000000000000e+02,8.496794016912014413e+00
1.750000000000000000e+02,8.518933067434415918e+00
1.760000000000000000e+02,8.540761702512270404e+00
1.770000000000000000e+02,8.562235668155237178e+00
1.780000000000000000e+02,8.583365878483309785e+00
1.790000000000000000e+02,8.604152065346747591e+00
1.800000000000000000e+02,8.624588242764543722e+00
1.810000000000000000e+02,8.644662681810819649e+00
1.820000000000000000e+02,8.664359907076354617e+00
1.830000000000000000e+02,8.683662788300114954e+00
1.840000000000000000e+02,8.702558282037935911e+00
1.850000000000000000e+02,8.721036560333912391e+00
1.860000000000000000e+02,8.739089399269760250e+00
1.870000000000000000e+02,8.756710289547065429e+00
1.880000000000000000e+02,8.773894394331394508e+00
1.890000000000000000e+02,8.790637146884160202e+00
1.900000000000000000e+02,8.806937409269576023e+00
1.910000000000000000e+02,8.822794247256910083e+00
1.920000000000000000e+02,8.838206624767288133e+00
1.930000000000000000e+02,8.853177585384480963e+00
1.940000000000000000e+02,8.867709717547448633e+00
1.950000000000000000e+02,8.881809021655350023e+00
1.960000000000000000e+02,8.895480568911411368e+00
1.970000000000000000e+02,8.908733386955404399e+00
1.980000000000000000e+02,8.921576729845845932e+00
1.990000000000000000e+02,8.934022428577742758e+00
2.000000000000000000e+02,8.946082377026554511e+00
2.010000000000000000e+02,8.957771312078026682e+00
2.020000000000000000e+02,8.969104749471876303e+00
2.030000000000000000e+02,8.980407439714502615e+00
2.040000000000000000e+02,8.991296167729119659e+00
2.050000000000000000e+02,9.001882679184289415e+00
2.060000000000000000e+02,9.012185934252828545e+00
2.070000000000000000e+02,9.022201803668311371e+00
2.080000000000000000e+02,9.031937624756769978e+00
2.090000000000000000e+02,9.041414656351312473e+00
2.100000000000000000e+02,9.050657223078358626e+00
2.110000000000000000e+02,9.059690556442619780e+00
2.120000000000000000e+02,9.068543359369305890e+00
2.130000000000000000e+02,9.077237128001035771e+00
2.140000000000000000e+02,9.085794879384435419e+00
2.150000000000000000e+02,9.094237888484677512e+00
2.160000000000000000e+02,9.102584438468628747e+00
2.170000000000000000e+02,9.110854647103966641e+00
2.180000000000000000e+02,9.119065948784149001e+00
2.190000000000000000e+02,9.127234666810480235e+00
2.200000000000000000e+02,9.135376165181114061e+00
2.210000000000000000e+02,9.143504438024869785e+00
2.220000000000000000e+02,9.151633519870259192e+00
2.230000000000000000e+02,9.159777903818389078e+00
2.240000000000000000e+02,9.167947801734712243e+00
2.250000000000000000e+02,9.176155298630096269e+00
2.260000000000000000e+02,9.184412392158288085e+00
2.270000000000000000e+02,9.192724204453753600e+00
2.280000000000000000e+02,9.202463389584654152e+00
2.290000000000000000e+02,9.211580416127425508e+00
2.300000000000000000e+02,9.220489285811684255e+00
2.310000000000000000e+02,9.229319956210785492e+00
2.320000000000000000e+02,9.238134857703885316e+00
2.330000000000000000e+02,9.246997860842155248e+00
2.340000000000000000e+02,9.255940919859144245e+00
2.350000000000000000e+02,9.264992874792785216e+00
2.360000000000000000e+02,9.274167226084067295e+00
2.370000000000000000e+02,9.283474233205964765e+00
2.380000000000000000e+02,9.292925010105035355e+00
2.390000000000000000e+02,9.302523532043164067e+00
2.400000000000000000e+02,9.312280475367790800e+00
2.410000000000000000e+02,9.322199405272233008e+00
2.420000000000000000e+02,9.332288676729360688e+00
2.430000000000000000e+02,9.342555077071835967e+00
2.440000000000000000e+02,9.353004375354064592e+00
2.450000000000000000e+02,9.363639728884635360e+00
2.460000000000000000e+02,9.374471035088227211e+00
2.470000000000000000e+02,9.385508073460439249e+00
2.480000000000000000e+02,9.396761165209531086e+00
2.490000000000000000e+02,9.408229391667955355e+00
2.500000000000000000e+02,9.419921176269850704e+00
2.510000000000000000e+02,9.431850877187134330e+00
2.520000000000000000e+02,9.444028206467429243e+00
2.530000000000000000e+02,9.456455403107149493e+00
2.540000000000000000e+02,9.469146779844900053e+00
2.550000000000000000e+02,9.486197000013815384e+00
2.560000000000000000e+02,9.500286967331465604e+00
2.570000000000000000e+02,9.513779172485206104e+00
2.580000000000000000e+02,9.527492948032435294e+00
2.590000000000000000e+02,9.541509137302366383e+00
2.600000000000000000e+02,9.555884122264549418e+00
2.610000000000000000e+02,9.570629436698842696e+00
2.620000000000000000e+02,9.585752429514089457e+00
2.630000000000000000e+02,9.601257591934503566e+00
2.640000000000000000e+02,9.617156343380482753e+00
2.650000000000000000e+02,9.633446601637578155e+00
2.660000000000000000e+02,9.650137643036652335e+00
2.670000000000000000e+02,9.667239005419929754e+00
2.680000000000000000e+02,9.684783313500899382e+00
2.690000000000000000e+02,9.702748127881340778e+00
2.700000000000000000e+02,9.721168687029202005e+00
2.710000000000000000e+02,9.740040196053124433e+00
2.720000000000000000e+02,9.759380526014286517e+00
2.730000000000000000e+02,9.779190221848004683e+00
2.740000000000000000e+02,9.799485509998740795e+00
2.750000000000000000e+02,9.820266769306838839e+00
2.760000000000000000e+02,9.841548827625649309e+00
2.770000000000000000e+02,9.863304087578036672e+00
2.780000000000000000e+02,9.885554141004222473e+00
2.790000000000000000e+02,9.908292954138774533e+00
2.800000000000000000e+02,9.931524397430509410e+00
2.810000000000000000e+02,9.955213941785737930e+00
2.820000000000000000e+02,9.979370334734690928e+00
2.830000000000000000e+02,1.000397123280863276e+01
2.840000000000000000e+02,1.002899608868220227e+01
2.850000000000000000e+02,1.005443677950499115e+01
2.860000000000000000e+02,1.008025744658667477e+01
2.870000000000000000e+02,1.010642559080337932e+01
2.880000000000000000e+02,1.013290437539743216e+01
2.890000000000000000e+02,1.015968463273075884e+01
2.900000000000000000e+02,1.019122004380508706e+01
2.910000000000000000e+02,1.021908493043820165e+01
2.920000000000000000e+02,1.024624477036936909e+01
2.930000000000000000e+02,1.027357925722361109e+01
2.940000000000000000e+02,1.030098319204327062e+01
2.950000000000000000e+02,1.032845739222559622e+01
2.960000000000000000e+02,1.035595440448142845e+01
2.970000000000000000e+02,1.038344503577682687e+01
2.980000000000000000e+02,1.041088807064819299e+01
2.990000000000000000e+02,1.043825379530068354e+01
3.000000000000000000e+02,1.046550414015787211e+01
3.010000000000000000e+02,1.049261788102589854e+01
3.020000000000000000e+02,1.051956925868096526e+01
3.030000000000000000e+02,1.054633240568208841e+01
3.040000000000000000e+02,1.057288835984619624e+01
3.050000000000000000e+02,1.059920998581832308e+01
3.060000000000000000e+02,1.062528964705548340e+01
3.070000000000000000e+02,1.065110735582720025e+01
3.080000000000000000e+02,1.067665858708162041e+01
3.090000000000000000e+02,1.070193233971215641e+01
3.100000000000000000e+02,1.072691911844485269e+01
3.110000000000000000e+02,1.075161302081219361e+01
3.120000000000000000e+02,1.077601326420359307e+01
3.130000000000000000e+02,1.080011493600224348e+01
3.140000000000000000e+02,1.082391987449397242e+01
3.150000000000000000e+02,1.084742657151395484e+01
3.160000000000000000e+02,1.087062925350765319e+01
3.170000000000000000e+02,1.089353947435155412e+01
3.180000000000000000e+02,1.091615913170756968e+01
3.190000000000000000e+02,1.093848781054883545e+01
3.200000000000000000e+02,1.096053179465187100e+01
3.210000000000000000e+02,1.098229636297477185e+01
3.220000000000000000e+02,1.100377537034910702e+01
3.230000000000000000e+02,1.102498305722679994e+01
3.240000000000000000e+02,1.104592670118889863e+01
3.250000000000000000e+02,1.106660809054423211e+01
3.260000000000000000e+02,1.108703134163272175e+01
3.270000000000000000e+02,1.110720247742258060e+01
3.280000000000000000e+02,1.112712343828457762e+01
3.290000000000000000e+02,1.114680402677378979e+01
3.300000000000000000e+02,1.116624768860468109e+01
3.310000000000000000e+02,1.118546060701379830e+01
3.320000000000000000e+02,1.120444951273939616e+01
3.330000000000000000e+02,1.122321628659796033e+01
3.340000000000000000e+02,1.124176619271466393e+01
3.350000000000000000e+02,1.126010403852102115e+01
3.360000000000000000e+02,1.127823234300556621e+01
3.370000000000000000e+02,1.129615953899175551e+01
3.380000000000000000e+02,1.131388909001387155e+01
3.390000000000000000e+02,1.133142586007923214e+01
3.400000000000000000e+02,1.134877527513952700e+01
3.410000000000000000e+02,1.136593579483040628e+01
3.420000000000000000e+02,1.138291726730268039e+01
3.430000000000000000e+02,1.139972013298124409e+01
3.440000000000000000e+02,1.141634750955863886e+01
3.450000000000000000e+02,1.143280694464861291e+01
3.460000000000000000e+02,1.144909669010606024e+01
3.470000000000000000e+02,1.146522667266768991e+01
3.480000000000000000e+02,1.148119133458858698e+01
3.490000000000000000e+02,1.149700137625068841e+01
3.500000000000000000e+02,1.151265226863008095e+01
3.510000000000000000e+02,1.152815528921107990e+01
3.520000000000000000e+02,1.154350594893639759e+01
3.530000000000000000e+02,1.155871031189366605e+01
3.540000000000000000e+02,1.157377375856170687e+01
3.550000000000000000e+02,1.158869541729179886e+01
3.560000000000000000e+02,1.160347572203470889e+01
3.570000000000000000e+02,1.161811925753343111e+01
3.580000000000000000e+02,1.163262856558655045e+01
3.590000000000000000e+02,1.164700330816622298e+01
3.600000000000000000e+02,1.166124650102280924e+01
3.610000000000000000e+02,1.167536189678773439e+01
3.620000000000000000e+02,1.168935097823690938e+01
3.630000000000000000e+02,1.170321512249470430e+01
3.640000000000000000e+02,1.171695543196501355e+01
3.650000000000000000e+02,1.173057503458554329e+01
3.660000000000000000e+02,1.174407269520444785e+01
3.670000000000000000e+02,1.175745057163260121e+01
3.680000000000000000e+02,1.177071290883777444e+01
3.690000000000000000e+02,1.178386028351886061e+01
3.700000000000000000e+02,1.179689494454625276e+01
3.710000000000000000e+02,1.180981659817855167e+01
3.720000000000000000e+02,1.182262603715749094e+01
3.730000000000000000e+02,1.183532379185775518e+01
3.740000000000000000e+02,1.184791597062810986e+01
3.750000000000000000e+02,1.186040072004958823e+01
3.760000000000000000e+02,1.187277985185291485e+01
3.770000000000000000e+02,1.188505234076215622e+01
3.780000000000000000e+02,1.189722312020949779e+01
3.790000000000000000e+02,1.190929014635827343e+01
3.800000000000000000e+02,1.192125509445991938e+01
3.810000000000000000e+02,1.193312085539505318e+01
3.820000000000000000e+02,1.194488537064814970e+01
3.830000000000000000e+02,1.195655486425476610e+01
3.840000000000000000e+02,1.196812627320133160e+01
3.850000000000000000e+02,1.197959989882236087e+01
3.860000000000000000e+02,1.199097953726040267e+01
3.870000000000000000e+02,1.200226423926594954e+01
3.880000000000000000e+02,1.201345354591920156e+01
3.890000000000000000e+02,1.202455331309149678e+01
3.900000000000000000e+02,1.203555965282575357e+01
3.910000000000000000e+02,1.204647741416413531e+01
3.920000000000000000e+02,1.205730222853359734e+01
3.930000000000000000e+02,1.206803948112219871e+01
3.940000000000000000e+02,1.207869098537706520e+01
3.950000000000000000e+02,1.208925197123049244e+01
3.960000000000000000e+02,1.209972713375531583e+01
3.970000000000000000e+02,1.211011889762399996e+01
3.980000000000000000e+02,1.212042424959982334e+01
