# Time [s], Temperature [C]
1.000000000000000000e+00,2.500000000000000000e+01
2.000000000000000000e+00,2.500000000000000000e+01
3.000000000000000000e+00,2.500000000000000000e+01
4.000000000000000000e+00,2.500000000000000000e+01
5.000000000000000000e+00,2.500000000000000000e+01
6.000000000000000000e+00,2.500000199999999850e+01
7.000000000000000000e+00,2.500000999999999962e+01
8.000000000000000000e+00,2.500003600000000148e+01
9.000000000000000000e+00,2.500011599999999845e+01
1.000000000000000000e+01,2.500032200000000060e+01
1.100000000000000000e+01,2.500078999999999851e+01
1.200000000000000000e+01,2.500175499999999928e+01
1.300000000000000000e+01,2.500356700000000032e+01
1.400000000000000000e+01,2.500672000000000139e+01
1.500000000000000000e+01,2.501184800000000052e+01
1.600000000000000000e+01,2.501973900000000128e+01
1.700000000000000000e+01,2.503129799999999960e+01
1.800000000000000000e+01,2.504753900000000044e+01
1.900000000000000000e+01,2.506955699999999965e+01
2.000000000000000000e+01,2.509849200000000025e+01
2.100000000000000000e+01,2.513551299999999955e+01
2.200000000000000000e+01,2.518178400000000039e+01
2.300000000000000000e+01,2.523844300000000018e+01
2.400000000000000000e+01,2.530659500000000151e+01
2.500000000000000000e+01,2.538727599999999995e+01
2.600000000000000000e+01,2.548146799999999956e+01
2.700000000000000000e+01,2.559007099999999824e+01
2.800000000000000000e+01,2.571390500000000046e+01
2.900000000000000000e+01,2.585371999999999915e+01
3.000000000000000000e+01,2.601016399999999962e+01
3.100000000000000000e+01,2.618381499999999917e+01
3.200000000000000000e+01,2.637517700000000076e+01
3.300000000000000000e+01,2.658466100000000054e+01
3.400000000000000000e+01,2.681261599999999845e+01
3.500000000000000000e+01,2.705932400000000015e+01
3.600000000000000000e+01,2.732498899999999864e+01
3.700000000000000000e+01,2.760976399999999842e+01
3.800000000000000000e+01,2.791375000000000028e+01
3.900000000000000000e+01,2.823698399999999964e+01
4.000000000000000000e+01,2.857945399999999836e+01
4.100000000000000000e+01,2.894112000000000151e+01
4.200000000000000000e+01,2.932189199999999829e+01
4.300000000000000000e+01,2.972163799999999867e+01
4.400000000000000000e+01,3.014019400000000104e+01
4.500000000000000000e+01,3.057736600000000138e+01
4.600000000000000000e+01,3.103294899999999856e+01
4.700000000000000000e+01,3.150667400000000029e+01
4.800000000000000000e+01,3.199825500000000034e+01
4.900000000000000000e+01,3.250740799999999808e+01
5.000000000000000000e+01,3.303382100000000321e+01
5.100000000000000000e+01,3.357713700000000046e+01
5.200000000000000000e+01,3.413699700000000092e+01
5.300000000000000000e+01,3.471303900000000198e+01
5.400000000000000000e+01,3.530485900000000044e+01
5.500000000000000000e+01,3.591207899999999853e+01
5.600000000000000000e+01,3.653425599999999918e+01
5.700000000000000000e+01,3.717099000000000331e+01
5.800000000000000000e+01,3.782183799999999962e+01
5.900000000000000000e+01,3.848636199999999974e+01
6.000000000000000000e+01,3.916412400000000105e+01
6.100000000000000000e+01,3.985468699999999842e+01
6.200000000000000000e+01,4.055758300000000105e+01
6.300000000000000000e+01,4.127238499999999988e+01
6.400000000000000000e+01,4.199863799999999969e+01
6.500000000000000000e+01,4.273588900000000024e+01
6.600000000000000000e+01,4.348371900000000068e+01
6.700000000000000000e+01,4.424168800000000346e+01
6.800000000000000000e+01,4.500935700000000139e+01
6.900000000000000000e+01,4.578634300000000223e+01
7.000000000000000000e+01,4.657222399999999851e+01
7.100000000000000000e+01,4.736661500000000302e+01
7.200000000000000000e+01,4.816912099999999697e+01
7.300000000000000000e+01,4.897937399999999997e+01
7.400000000000000000e+01,4.979700100000000162e+01
7.500000000000000000e+01,5.062166200000000060e+01
7.600000000000000000e+01,5.145305299999999704e+01
7.700000000000000000e+01,5.229081000000000046e+01
7.800000000000000000e+01,5.313462100000000277e+01
7.900000000000000000e+01,5.398418800000000317e+01
8.000000000000000000e+01,5.483923000000000059e+01
8.100000000000000000e+01,5.569947799999999916e+01
8.200000000000000000e+01,5.656468600000000180e+01
8.300000000000000000e+01,5.743462000000000245e+01
8.400000000000000000e+01,5.830901300000000020e+01
8.500000000000000000e+01,5.918762999999999863e+01
8.600000000000000000e+01,6.007027800000000184e+01
8.700000000000000000e+01,6.095677200000000084e+01
8.800000000000000000e+01,6.184693099999999788e+01
8.900000000000000000e+01,6.274052799999999763e+01
9.000000000000000000e+01,6.363740500000000111e+01
9.100000000000000000e+01,6.453741499999999576e+01
9.200000000000000000e+01,6.545438400000000456e+01
9.300000000000000000e+01,6.636602000000000601e+01
9.400000000000000000e+01,6.727833599999999592e+01
9.500000000000000000e+01,6.819255800000000534e+01
9.600000000000000000e+01,6.910881000000000540e+01
9.700000000000000000e+01,7.002708400000000211e+01
9.800000000000000000e+01,7.094735000000000014e+01
9.900000000000000000e+01,7.186958300000000577e+01
1.000000000000000000e+02,7.279369400000000212e+01
1.010000000000000000e+02,7.371965000000000146e+01
1.020000000000000000e+02,7.464742999999999995e+01
1.030000000000000000e+02,7.557692699999999775e+01
1.040000000000000000e+02,7.650810199999999384e+01
1.050000000000000000e+02,7.744091799999999637e+01
1.060000000000000000e+02,7.837526699999999380e+01
1.070000000000000000e+02,7.931108899999999551e+01
1.080000000000000000e+02,8.024833700000000647e+01
1.090000000000000000e+02,8.118689000000000533e+01
1.100000000000000000e+02,8.212667100000000175e+01
1.110000000000000000e+02,8.306763499999999567e+01
1.120000000000000000e+02,8.400967400000000396e+01
1.130000000000000000e+02,8.495272099999999682e+01
1.140000000000000000e+02,8.589671300000000542e+01
1.150000000000000000e+02,8.684158299999999997e+01
1.160000000000000000e+02,8.778725400000000434e+01
1.170000000000000000e+02,8.873368100000000425e+01
1.180000000000000000e+02,8.968079400000000589e+01
1.190000000000000000e+02,9.062855500000000575e+01
1.200000000000000000e+02,9.157688899999999421e+01
1.210000000000000000e+02,9.252574199999999394e+01
1.220000000000000000e+02,9.347507500000000391e+01
1.230000000000000000e+02,9.442482800000000509e+01
1.240000000000000000e+02,9.537494700000000591e+01
1.250000000000000000e+02,9.632540099999999939e+01
1.260000000000000000e+02,9.727612299999999834e+01
1.270000000000000000e+02,9.822708099999999831e+01
1.280000000000000000e+02,9.917820700000000045e+01
1.290000000000000000e+02,1.001294500000000056e+02
1.300000000000000000e+02,1.010807599999999979e+02
1.310000000000000000e+02,1.020321100000000030e+02
1.320000000000000000e+02,1.029834100000000063e+02
1.330000000000000000e+02,1.039346500000000049e+02
1.340000000000000000e+02,1.048868899999999940e+02
1.350000000000000000e+02,1.058383000000000038e+02
1.360000000000000000e+02,1.067892899999999941e+02
1.370000000000000000e+02,1.077399400000000043e+02
1.380000000000000000e+02,1.086902199999999965e+02
1.390000000000000000e+02,1.096401000000000039e+02
1.400000000000000000e+02,1.105895699999999948e+02
1.410000000000000000e+02,1.115386299999999977e+02
1.420000000000000000e+02,1.124872399999999999e+02
1.430000000000000000e+02,1.134353799999999950e+02
1.440000000000000000e+02,1.143829800000000034e+02
1.450000000000000000e+02,1.153299800000000062e+02
1.460000000000000000e+02,1.162763099999999952e+02
1.470000000000000000e+02,1.172218900000000019e+02
1.480000000000000000e+02,1.181665899999999993e+02
1.490000000000000000e+02,1.191103399999999937e+02
1.500000000000000000e+02,1.200529999999999973e+02
1.510000000000000000e+02,1.209944799999999958e+02
1.520000000000000000e+02,1.219346800000000002e+02
1.530000000000000000e+02,1.228734699999999975e+02
1.540000000000000000e+02,1.238107300000000066e+02
1.550000000000000000e+02,1.247463900000000052e+02
1.560000000000000000e+02,1.256802899999999994e+02
1.570000000000000000e+02,1.266123599999999954e+02
1.580000000000000000e+02,1.275424699999999945e+02
1.590000000000000000e+02,1.284704999999999870e+02
1.600000000000000000e+02,1.293963300000000061e+02
1.610000000000000000e+02,1.303198700000000088e+02
1.620000000000000000e+02,1.312409800000000075e+02
1.630000000000000000e+02,1.321595299999999895e+02
1.640000000000000000e+02,1.330754200000000083e+02
1.650000000000000000e+02,1.339884800000000098e+02
1.660000000000000000e+02,1.348985900000000129e+02
1.670000000000000000e+02,1.358056200000000047e+02
1.680000000000000000e+02,1.367094299999999976e+02
1.690000000000000000e+02,1.376098499999999945e+02
1.700000000000000000e+02,1.385067400000000077e+02
1.710000000000000000e+02,1.393999499999999898e+02
1.720000000000000000e+02,1.402893100000000004e+02
1.730000000000000000e+02,1.411747300000000109e+02
1.740000000000000000e+02,1.420559700000000021e+02
1.750000000000000000e+02,1.429329500000000053e+02
1.760000000000000000e+02,1.438055600000000140e+02
1.770000000000000000e+02,1.446737099999999998e+02
1.780000000000000000e+02,1.455372500000000002e+02
1.790000000000000000e+02,1.463960899999999867e+02
1.800000000000000000e+02,1.472499799999999937e+02
1.810000000000000000e+02,1.480987100000000112e+02
1.820000000000000000e+02,1.489419699999999978e+02
1.830000000000000000e+02,1.497794600000000003e+02
1.840000000000000000e+02,1.506108999999999867e+02
1.850000000000000000e+02,1.514359599999999944e+02
1.860000000000000000e+02,1.522543599999999913e+02
1.870000000000000000e+02,1.530658300000000054e+02
1.880000000000000000e+02,1.538700900000000047e+02
1.890000000000000000e+02,1.546668899999999951e+02
1.900000000000000000e+02,1.554559600000000046e+02
1.910000000000000000e+02,1.562370500000000106e+02
1.920000000000000000e+02,1.570098900000000128e+02
1.930000000000000000e+02,1.577742499999999950e+02
1.940000000000000000e+02,1.585298500000000104e+02
1.950000000000000000e+02,1.592764999999999986e+02
1.960000000000000000e+02,1.600139800000000037e+02
1.970000000000000000e+02,1.607420299999999997e+02
1.980000000000000000e+02,1.614604300000000023e+02
1.990000000000000000e+02,1.621689800000000048e+02
2.000000000000000000e+02,1.628674300000000130e+02
2.010000000000000000e+02,1.635556799999999953e+02
2.020000000000000000e+02,1.642334899999999891e+02
2.030000000000000000e+02,1.649006699999999910e+02
2.040000000000000000e+02,1.655571099999999944e+02
2.050000000000000000e+02,1.662026700000000119e+02
2.060000000000000000e+02,1.668371999999999957e+02
2.070000000000000000e+02,1.674606499999999869e+02
2.080000000000000000e+02,1.680728799999999978e+02
2.090000000000000000e+02,1.686766800000000046e+02
2.100000000000000000e+02,1.692683900000000108e+02
2.110000000000000000e+02,1.698490899999999897e+02
2.120000000000000000e+02,1.704191600000000051e+02
2.130000000000000000e+02,1.709786699999999939e+02
2.140000000000000000e+02,1.715274699999999939e+02
2.150000000000000000e+02,1.720653499999999951e+02
2.160000000000000000e+02,1.725921299999999974e+02
2.170000000000000000e+02,1.731077099999999973e+02
2.180000000000000000e+02,1.736121100000000013e+02
2.190000000000000000e+02,1.741054100000000062e+02
2.200000000000000000e+02,1.745877800000000093e+02
2.210000000000000000e+02,1.750594299999999919e+02
2.220000000000000000e+02,1.755206300000000113e+02
2.230000000000000000e+02,1.759716300000000047e+02
2.240000000000000000e+02,1.764127300000000105e+02
2.250000000000000000e+02,1.768442200000000071e+02
2.260000000000000000e+02,1.772664300000000139e+02
2.270000000000000000e+02,1.776796999999999969e+02
2.280000000000000000e+02,1.780843800000000101e+02
2.290000000000000000e+02,1.784807999999999879e+02
2.300000000000000000e+02,1.788693199999999877e+02
2.310000000000000000e+02,1.792503199999999879e+02
2.320000000000000000e+02,1.796241300000000081e+02
2.330000000000000000e+02,1.799911700000000110e+02
2.340000000000000000e+02,1.803517600000000130e+02
2.350000000000000000e+02,1.807063100000000020e+02
2.360000000000000000e+02,1.810551900000000103e+02
2.370000000000000000e+02,1.813987400000000036e+02
2.380000000000000000e+02,1.817373699999999985e+02
2.390000000000000000e+02,1.820714399999999955e+02
2.400000000000000000e+02,1.824013099999999952e+02
2.410000000000000000e+02,1.827465500000000134e+02
2.420000000000000000e+02,1.830802300000000002e+02
2.430000000000000000e+02,1.834094800000000021e+02
2.440000000000000000e+02,1.837355799999999988e+02
2.450000000000000000e+02,1.840581500000000119e+02
2.460000000000000000e+02,1.843771500000000003e+02
2.470000000000000000e+02,1.846927300000000116e+02
2.480000000000000000e+02,1.850052900000000022e+02
2.490000000000000000e+02,1.853153700000000015e+02
2.500000000000000000e+02,1.856234100000000069e+02
2.510000000000000000e+02,1.859300200000000132e+02
2.520000000000000000e+02,1.862355799999999988e+02
2.530000000000000000e+02,1.865404699999999991e+02
2.540000000000000000e+02,1.868449999999999989e+02
2.550000000000000000e+02,1.871495199999999954e+02
2.560000000000000000e+02,1.874542800000000113e+02
2.570000000000000000e+02,1.877595399999999870e+02
2.580000000000000000e+02,1.880654900000000112e+02
2.590000000000000000e+02,1.883724100000000021e+02
2.600000000000000000e+02,1.886803999999999917e+02
2.610000000000000000e+02,1.889897499999999866e+02
2.620000000000000000e+02,1.893006100000000060e+02
2.630000000000000000e+02,1.896131599999999935e+02
2.640000000000000000e+02,1.899275499999999965e+02
2.650000000000000000e+02,1.902438799999999901e+02
2.660000000000000000e+02,1.905623500000000092e+02
2.670000000000000000e+02,1.908831199999999910e+02
2.680000000000000000e+02,1.912063400000000115e+02
2.690000000000000000e+02,1.915320900000000108e+02
2.700000000000000000e+02,1.918605000000000018e+02
2.710000000000000000e+02,1.921917300000000068e+02
2.720000000000000000e+02,1.925259100000000103e+02
2.730000000000000000e+02,1.928631900000000030e+02
2.740000000000000000e+02,1.932665599999999984e+02
2.750000000000000000e+02,1.936415700000000015e+02
2.760000000000000000e+02,1.940085400000000107e+02
2.770000000000000000e+02,1.943719800000000077e+02
2.780000000000000000e+02,1.947331700000000012e+02
2.790000000000000000e+02,1.950942100000000039e+02
2.800000000000000000e+02,1.954567000000000121e+02
2.810000000000000000e+02,1.958218699999999899e+02
2.820000000000000000e+02,1.961905700000000081e+02
2.830000000000000000e+02,1.965632600000000139e+02
2.840000000000000000e+02,1.969403800000000047e+02
2.850000000000000000e+02,1.973221100000000092e+02
2.860000000000000000e+02,1.977086600000000089e+02
2.870000000000000000e+02,1.981001899999999978e+02
2.880000000000000000e+02,1.984968100000000106e+02
2.890000000000000000e+02,1.988987099999999941e+02
2.900000000000000000e+02,1.993060900000000117e+02
2.910000000000000000e+02,1.997189600000000098e+02
2.920000000000000000e+02,2.001374099999999885e+02
2.930000000000000000e+02,2.005616899999999987e+02
2.940000000000000000e+02,2.009918199999999899e+02
2.950000000000000000e+02,2.014280899999999974e+02
2.960000000000000000e+02,2.018706400000000087e+02
2.970000000000000000e+02,2.023195200000000114e+02
2.980000000000000000e+02,2.027751000000000090e+02
2.990000000000000000e+02,2.032376099999999894e+02
3.000000000000000000e+02,2.037069899999999905e+02
3.010000000000000000e+02,2.041835599999999999e+02
3.020000000000000000e+02,2.046675600000000088e+02
3.030000000000000000e+02,2.051593799999999987e+02
3.040000000000000000e+02,2.056588700000000074e+02
3.050000000000000000e+02,2.061663700000000006e+02
3.060000000000000000e+02,2.066821700000000135e+02
3.070000000000000000e+02,2.072067299999999932e+02
3.080000000000000000e+02,2.077400800000000061e+02
3.090000000000000000e+02,2.084842800000000125e+02
3.100000000000000000e+02,2.090938700000000097e+02
3.110000000000000000e+02,2.096649500000000046e+02
3.120000000000000000e+02,2.102337300000000084e+02
3.130000000000000000e+02,2.108086099999999874e+02
3.140000000000000000e+02,2.113944999999999936e+02
3.150000000000000000e+02,2.119924900000000036e+02
3.160000000000000000e+02,2.126037000000000035e+02
3.170000000000000000e+02,2.132281499999999994e+02
3.180000000000000000e+02,2.138662400000000048e+02
3.190000000000000000e+02,2.145183700000000044e+02
3.200000000000000000e+02,2.151842200000000105e+02
3.210000000000000000e+02,2.158641100000000108e+02
3.220000000000000000e+02,2.165588199999999972e+02
3.230000000000000000e+02,2.172685199999999952e+02
3.240000000000000000e+02,2.179939899999999966e+02
3.250000000000000000e+02,2.187355799999999988e+02
3.260000000000000000e+02,2.194937099999999930e+02
3.270000000000000000e+02,2.202690100000000086e+02
3.280000000000000000e+02,2.210620399999999961e+02
3.290000000000000000e+02,2.218733400000000131e+02
3.300000000000000000e+02,2.227036400000000071e+02
3.310000000000000000e+02,2.235535000000000139e+02
3.320000000000000000e+02,2.244239499999999907e+02
3.330000000000000000e+02,2.253156099999999924e+02
3.340000000000000000e+02,2.262295699999999954e+02
3.350000000000000000e+02,2.271661799999999971e+02
3.360000000000000000e+02,2.281258100000000013e+02
3.370000000000000000e+02,2.291106299999999862e+02
3.380000000000000000e+02,2.301209100000000092e+02
3.390000000000000000e+02,2.311573199999999986e+02
3.400000000000000000e+02,2.322213700000000074e+02
3.410000000000000000e+02,2.333135200000000111e+02
3.420000000000000000e+02,2.344349799999999959e+02
3.430000000000000000e+02,2.355869399999999985e+02
3.440000000000000000e+02,2.367701700000000073e+02
3.450000000000000000e+02,2.379859299999999962e+02
3.460000000000000000e+02,2.392352799999999888e+02
3.470000000000000000e+02,2.405189499999999896e+02
3.480000000000000000e+02,2.418380899999999940e+02
3.490000000000000000e+02,2.436646900000000073e+02
3.500000000000000000e+02,2.451282999999999959e+02
3.510000000000000000e+02,2.465454599999999914e+02
3.520000000000000000e+02,2.480062299999999880e+02
3.530000000000000000e+02,2.495079200000000128e+02
3.540000000000000000e+02,2.510527199999999937e+02
3.550000000000000000e+02,2.526407600000000002e+02
3.560000000000000000e+02,2.542722599999999886e+02
3.570000000000000000e+02,2.559476200000000006e+02
3.580000000000000000e+02,2.576666000000000167e+02
3.590000000000000000e+02,2.594288300000000049e+02
3.600000000000000000e+02,2.612350799999999822e+02
3.610000000000000000e+02,2.630854499999999803e+02
3.620000000000000000e+02,2.649788800000000037e+02
3.630000000000000000e+02,2.669156800000000089e+02
3.640000000000000000e+02,2.688947400000000130e+02
3.650000000000000000e+02,2.709150399999999763e+02
3.660000000000000000e+02,2.729757700000000114e+02
3.670000000000000000e+02,2.750754699999999957e+02
3.680000000000000000e+02,2.772130399999999781e+02
3.690000000000000000e+02,2.793859899999999925e+02
3.700000000000000000e+02,2.815921000000000163e+02
3.710000000000000000e+02,2.838301999999999907e+02
3.720000000000000000e+02,2.860987900000000081e+02
3.730000000000000000e+02,2.883933099999999854e+02
3.740000000000000000e+02,2.907130999999999972e+02
3.750000000000000000e+02,2.930542599999999993e+02
3.760000000000000000e+02,2.954153400000000147e+02
3.770000000000000000e+02,2.977922399999999925e+02
3.780000000000000000e+02,3.001828300000000240e+02
3.790000000000000000e+02,3.025851400000000240e+02
3.800000000000000000e+02,3.049962499999999750e+02
3.810000000000000000e+02,3.074128400000000170e+02
3.820000000000000000e+02,3.098336800000000153e+02
3.830000000000000000e+02,3.122556200000000217e+02
3.840000000000000000e+02,3.146766400000000203e+02
3.850000000000000000e+02,3.170947300000000268e+02
3.860000000000000000e+02,3.195079999999999814e+02
3.870000000000000000e+02,3.219146400000000199e+02
3.880000000000000000e+02,3.243125900000000001e+02
3.890000000000000000e+02,3.267013900000000035e+02
3.900000000000000000e+02,3.290794399999999769e+02
3.910000000000000000e+02,3.314458000000000197e+02
3.920000000000000000e+02,3.337990699999999720e+02
3.930000000000000000e+02,3.361379099999999767e+02
3.940000000000000000e+02,3.384626200000000154e+02
3.950000000000000000e+02,3.407719999999999914e+02
3.960000000000000000e+02,3.430657299999999736e+02
3.970000000000000000e+02,3.453429300000000239e+02
3.980000000000000000e+02,3.476040300000000229e+02
3.990000000000000000e+02,3.498482099999999946e+02
