# Time [s], Thickness [m]
1.000000000000000000e+00,8.000000400000000303e-03
2.000000000000000000e+00,8.000000400000000303e-03
3.000000000000000000e+00,8.000000400000000303e-03
4.000000000000000000e+00,8.000000400000000303e-03
5.000000000000000000e+00,8.000000400000000303e-03
6.000000000000000000e+00,8.000000400000000303e-03
7.000000000000000000e+00,8.000000400000000303e-03
8.000000000000000000e+00,8.000000400000000303e-03
9.000000000000000000e+00,8.000000400000000303e-03
1.000000000000000000e+01,8.000000400000000303e-03
1.100000000000000000e+01,8.000000400000000303e-03
1.200000000000000000e+01,7.999999400000000829e-03
1.300000000000000000e+01,7.999999400000000829e-03
1.400000000000000000e+01,7.999999400000000829e-03
1.500000000000000000e+01,7.999998499999999221e-03
1.600000000000000000e+01,7.999997599999999348e-03
1.700000000000000000e+01,7.999995700000000001e-03
1.800000000000000000e+01,7.999991999999999173e-03
1.900000000000000000e+01,7.999985500000000860e-03
2.000000000000000000e+01,7.999975200000000383e-03
2.100000000000000000e+01,7.999960299999999205e-03
2.200000000000000000e+01,7.999936100000000494e-03
2.300000000000000000e+01,7.999899799999999825e-03
2.400000000000000000e+01,7.999847600000000239e-03
2.500000000000000000e+01,7.999772199999999681e-03
2.600000000000000000e+01,7.999666000000000762e-03
2.700000000000000000e+01,7.999519800000000347e-03
2.800000000000000000e+01,7.999322399999999819e-03
2.900000000000000000e+01,7.999059700000000009e-03
3.000000000000000000e+01,7.998717900000000547e-03
3.100000000000000000e+01,7.998278399999999427e-03
3.200000000000000000e+01,7.997721399999999439e-03
3.300000000000000000e+01,7.997028499999999512e-03
3.400000000000000000e+01,7.996175399999999600e-03
3.500000000000000000e+01,7.995143499999999431e-03
3.600000000000000000e+01,7.993908600000000295e-03
3.700000000000000000e+01,7.992453899999999931e-03
3.800000000000000000e+01,7.990760700000000202e-03
3.900000000000000000e+01,7.988815200000000741e-03
4.000000000000000000e+01,7.986606099999999861e-03
4.100000000000000000e+01,7.984128800000000331e-03
4.200000000000000000e+01,7.981378600000000115e-03
4.300000000000000000e+01,7.978358300000000167e-03
4.400000000000000000e+01,7.975071699999999181e-03
4.500000000000000000e+01,7.971524299999999466e-03
4.600000000000000000e+01,7.967728199999999511e-03
4.700000000000000000e+01,7.963693699999999792e-03
4.800000000000000000e+01,7.959432000000000659e-03
4.900000000000000000e+01,7.954957000000000347e-03
5.000000000000000000e+01,7.950282700000000161e-03
5.100000000000000000e+01,7.945418399999999368e-03
5.200000000000000000e+01,7.940380800000000627e-03
5.300000000000000000e+01,7.935183099999999767e-03
5.400000000000000000e+01,7.929832700000000179e-03
5.500000000000000000e+01,7.924344399999999969e-03
5.600000000000000000e+01,7.918729399999999488e-03
5.700000000000000000e+01,7.912992500000000373e-03
5.800000000000000000e+01,7.907148500000000732e-03
5.900000000000000000e+01,7.901204699999999151e-03
6.000000000000000000e+01,7.895164200000000590e-03
6.100000000000000000e+01,7.889038900000000867e-03
6.200000000000000000e+01,7.882834400000000158e-03
6.300000000000000000e+01,7.876551699999999670e-03
6.400000000000000000e+01,7.870200100000000407e-03
6.500000000000000000e+01,7.863784199999999600e-03
6.600000000000000000e+01,7.857303100000000845e-03
6.700000000000000000e+01,7.850764300000000195e-03
6.800000000000000000e+01,7.844170600000000340e-03
6.900000000000000000e+01,7.837520000000000597e-03
7.000000000000000000e+01,7.830819100000000615e-03
7.100000000000000000e+01,7.824070799999999215e-03
7.200000000000000000e+01,7.817270200000000363e-03
7.300000000000000000e+01,7.810424100000000307e-03
7.400000000000000000e+01,7.803534200000000060e-03
7.500000000000000000e+01,7.796597199999999797e-03
7.600000000000000000e+01,7.789618800000000162e-03
7.700000000000000000e+01,7.782600800000000034e-03
7.800000000000000000e+01,7.775538599999999578e-03
7.900000000000000000e+01,7.768438699999999711e-03
8.000000000000000000e+01,7.761302900000000178e-03
8.100000000000000000e+01,7.754127000000000415e-03
8.200000000000000000e+01,7.746916700000000197e-03
8.300000000000000000e+01,7.739673800000000138e-03
8.400000000000000000e+01,7.732395500000000151e-03
8.500000000000000000e+01,7.725086100000000400e-03
8.600000000000000000e+01,7.717746800000000428e-03
8.700000000000000000e+01,7.710375400000000351e-03
8.800000000000000000e+01,7.702975499999999663e-03
8.900000000000000000e+01,7.695548699999999777e-03
9.000000000000000000e+01,7.688093000000000010e-03
9.100000000000000000e+01,7.680609799999999973e-03
9.200000000000000000e+01,7.673101499999999617e-03
9.300000000000000000e+01,7.665565699999999857e-03
9.400000000000000000e+01,7.658004300000000042e-03
9.500000000000000000e+01,7.650418200000000044e-03
9.600000000000000000e+01,7.642805100000000379e-03
9.700000000000000000e+01,7.635167299999999664e-03
9.800000000000000000e+01,7.627504900000000101e-03
9.900000000000000000e+01,7.619816300000000278e-03
1.000000000000000000e+02,7.612102699999999736e-03
1.010000000000000000e+02,7.604365200000000151e-03
1.020000000000000000e+02,7.596601700000000373e-03
1.030000000000000000e+02,7.588813100000000277e-03
1.040000000000000000e+02,7.581000699999999870e-03
1.050000000000000000e+02,7.573163100000000411e-03
1.060000000000000000e+02,7.563195200000000055e-03
1.070000000000000000e+02,7.554224200000000077e-03
1.080000000000000000e+02,7.545866499999999769e-03
1.090000000000000000e+02,7.537524200000000375e-03
1.100000000000000000e+02,7.529307600000000045e-03
1.110000000000000000e+02,7.521083999999999929e-03
1.120000000000000000e+02,7.512883300000000250e-03
1.130000000000000000e+02,7.504669500000000007e-03
1.140000000000000000e+02,7.496448200000000242e-03
1.150000000000000000e+02,7.488208399999999806e-03
1.160000000000000000e+02,7.479951299999999977e-03
1.170000000000000000e+02,7.471671800000000314e-03
1.180000000000000000e+02,7.463369099999999680e-03
1.190000000000000000e+02,7.455042099999999866e-03
1.200000000000000000e+02,7.446689499999999996e-03
1.210000000000000000e+02,7.438310000000000061e-03
1.220000000000000000e+02,7.429903800000000128e-03
1.230000000000000000e+02,7.421469800000000255e-03
1.240000000000000000e+02,7.413007800000000376e-03
1.250000000000000000e+02,7.404516899999999749e-03
1.260000000000000000e+02,7.395997599999999846e-03
1.270000000000000000e+02,7.387449499999999662e-03
1.280000000000000000e+02,7.378872499999999598e-03
1.290000000000000000e+02,7.370266099999999918e-03
1.300000000000000000e+02,7.361630400000000220e-03
1.310000000000000000e+02,7.352965399999999638e-03
1.320000000000000000e+02,7.344271500000000043e-03
1.330000000000000000e+02,7.335547399999999690e-03
1.340000000000000000e+02,7.326793899999999721e-03
1.350000000000000000e+02,7.318010599999999997e-03
1.360000000000000000e+02,7.309196999999999916e-03
1.370000000000000000e+02,7.300353100000000345e-03
1.380000000000000000e+02,7.291479000000000016e-03
1.390000000000000000e+02,7.282573700000000323e-03
1.400000000000000000e+02,7.273637700000000136e-03
1.410000000000000000e+02,7.264669500000000245e-03
1.420000000000000000e+02,7.255670100000000122e-03
1.430000000000000000e+02,7.246637700000000022e-03
1.440000000000000000e+02,7.237573199999999818e-03
1.450000000000000000e+02,7.228475499999999568e-03
1.460000000000000000e+02,7.219343900000000334e-03
1.470000000000000000e+02,7.210178799999999652e-03
1.480000000000000000e+02,7.200979199999999782e-03
1.490000000000000000e+02,7.191744600000000119e-03
1.500000000000000000e+02,7.182474700000000128e-03
1.510000000000000000e+02,7.173169400000000209e-03
1.520000000000000000e+02,7.163827799999999621e-03
1.530000000000000000e+02,7.154449400000000361e-03
1.540000000000000000e+02,7.144596900000000327e-03
1.550000000000000000e+02,7.134807299999999623e-03
1.560000000000000000e+02,7.125098699999999653e-03
1.570000000000000000e+02,7.115426000000000216e-03
1.580000000000000000e+02,7.105765899999999871e-03
1.590000000000000000e+02,7.096098700000000141e-03
1.600000000000000000e+02,7.086413899999999613e-03
1.610000000000000000e+02,7.076702500000000423e-03
1.620000000000000000e+02,7.066958600000000125e-03
1.630000000000000000e+02,7.057177399999999684e-03
1.640000000000000000e+02,7.047356599999999617e-03
1.650000000000000000e+02,7.037493399999999837e-03
1.660000000000000000e+02,7.027585499999999992e-03
1.670000000000000000e+02,7.017632000000000210e-03
1.680000000000000000e+02,7.007631000000000276e-03
1.690000000000000000e+02,6.997581999999999587e-03
1.700000000000000000e+02,6.987484199999999604e-03
1.710000000000000000e+02,6.977335999999999781e-03
1.720000000000000000e+02,6.967137099999999583e-03
1.730000000000000000e+02,6.956887000000000140e-03
1.740000000000000000e+02,6.946584700000000244e-03
1.750000000000000000e+02,6.936229300000000021e-03
1.760000000000000000e+02,6.925820400000000203e-03
1.770000000000000000e+02,6.915357399999999717e-03
1.780000000000000000e+02,6.904839500000000026e-03
1.790000000000000000e+02,6.894266199999999657e-03
1.800000000000000000e+02,6.883636599999999606e-03
1.810000000000000000e+02,6.872949700000000398e-03
1.820000000000000000e+02,6.862205500000000298e-03
1.830000000000000000e+02,6.851402999999999834e-03
1.840000000000000000e+02,6.840541999999999803e-03
1.850000000000000000e+02,6.829620800000000061e-03
1.860000000000000000e+02,6.818639100000000071e-03
1.870000000000000000e+02,6.807597399999999570e-03
1.880000000000000000e+02,6.796493699999999610e-03
1.890000000000000000e+02,6.785328499999999929e-03
1.900000000000000000e+02,6.774100899999999786e-03
1.910000000000000000e+02,6.762810499999999912e-03
1.920000000000000000e+02,6.751457199999999839e-03
1.930000000000000000e+02,6.740040600000000298e-03
1.940000000000000000e+02,6.728560199999999818e-03
1.950000000000000000e+02,6.716703499999999820e-03
1.960000000000000000e+02,6.704879900000000267e-03
1.970000000000000000e+02,6.693058600000000198e-03
1.980000000000000000e+02,6.681215899999999770e-03
1.990000000000000000e+02,6.669342499999999715e-03
2.000000000000000000e+02,6.657429500000000035e-03
2.010000000000000000e+02,6.645471299999999686e-03
2.020000000000000000e+02,6.633463299999999702e-03
2.030000000000000000e+02,6.621403599999999869e-03
2.040000000000000000e+02,6.609288999999999963e-03
2.050000000000000000e+02,6.597119799999999652e-03
2.060000000000000000e+02,6.584894400000000127e-03
2.070000000000000000e+02,6.572614000000000060e-03
2.080000000000000000e+02,6.560278600000000321e-03
2.090000000000000000e+02,6.547888699999999777e-03
2.100000000000000000e+02,6.535445299999999638e-03
2.110000000000000000e+02,6.522950700000000254e-03
2.120000000000000000e+02,6.510405300000000027e-03
2.130000000000000000e+02,6.497811099999999639e-03
2.140000000000000000e+02,6.485170699999999976e-03
2.150000000000000000e+02,6.472485099999999644e-03
2.160000000000000000e+02,6.459756799999999931e-03
2.170000000000000000e+02,6.446987900000000250e-03
2.180000000000000000e+02,6.434181199999999823e-03
2.190000000000000000e+02,6.421338799999999798e-03
2.200000000000000000e+02,6.408462299999999855e-03
2.210000000000000000e+02,6.395555100000000284e-03
2.220000000000000000e+02,6.382619499999999703e-03
2.230000000000000000e+02,6.369657800000000196e-03
2.240000000000000000e+02,6.356672800000000116e-03
2.250000000000000000e+02,6.343666900000000282e-03
2.260000000000000000e+02,6.330642800000000313e-03
2.270000000000000000e+02,6.317602900000000160e-03
2.280000000000000000e+02,6.304549100000000038e-03
2.290000000000000000e+02,6.291244599999999861e-03
2.300000000000000000e+02,6.277991900000000000e-03
2.310000000000000000e+02,6.264774100000000331e-03
2.320000000000000000e+02,6.251581499999999715e-03
2.330000000000000000e+02,6.238410199999999857e-03
2.340000000000000000e+02,6.225256699999999997e-03
2.350000000000000000e+02,6.212119500000000058e-03
2.360000000000000000e+02,6.198998100000000303e-03
2.370000000000000000e+02,6.185891599999999990e-03
2.380000000000000000e+02,6.172799999999999988e-03
2.390000000000000000e+02,6.159723700000000433e-03
2.400000000000000000e+02,6.146663800000000399e-03
2.410000000000000000e+02,6.133620200000000286e-03
2.420000000000000000e+02,6.120594200000000103e-03
2.430000000000000000e+02,6.107586899999999791e-03
2.440000000000000000e+02,6.094598700000000355e-03
2.450000000000000000e+02,6.081630900000000069e-03
2.460000000000000000e+02,6.068684599999999742e-03
2.470000000000000000e+02,6.055759699999999773e-03
2.480000000000000000e+02,6.042858600000000115e-03
2.490000000000000000e+02,6.029980699999999694e-03
2.500000000000000000e+02,6.017128000000000060e-03
2.510000000000000000e+02,6.004300899999999615e-03
2.520000000000000000e+02,5.991500299999999966e-03
2.530000000000000000e+02,5.978726799999999585e-03
2.540000000000000000e+02,5.965980699999999873e-03
2.550000000000000000e+02,5.953263000000000305e-03
2.560000000000000000e+02,5.940574700000000354e-03
2.570000000000000000e+02,5.927915700000000419e-03
2.580000000000000000e+02,5.915286500000000239e-03
2.590000000000000000e+02,5.902687999999999685e-03
2.600000000000000000e+02,5.890120799999999830e-03
2.610000000000000000e+02,5.877389099999999825e-03
2.620000000000000000e+02,5.864730999999999764e-03
2.630000000000000000e+02,5.852134400000000292e-03
2.640000000000000000e+02,5.839591800000000152e-03
2.650000000000000000e+02,5.827099999999999988e-03
2.660000000000000000e+02,5.814654300000000366e-03
2.670000000000000000e+02,5.802253700000000076e-03
2.680000000000000000e+02,5.789896000000000105e-03
2.690000000000000000e+02,5.777580200000000110e-03
2.700000000000000000e+02,5.765304899999999615e-03
2.710000000000000000e+02,5.753069700000000217e-03
2.720000000000000000e+02,5.740873999999999977e-03
2.730000000000000000e+02,5.728717900000000231e-03
2.740000000000000000e+02,5.716599999999999633e-03
2.750000000000000000e+02,5.704520700000000055e-03
2.760000000000000000e+02,5.692480100000000230e-03
2.770000000000000000e+02,5.680477700000000421e-03
2.780000000000000000e+02,5.668513899999999897e-03
2.790000000000000000e+02,5.656587900000000120e-03
2.800000000000000000e+02,5.644701000000000232e-03
2.810000000000000000e+02,5.632852199999999893e-03
2.820000000000000000e+02,5.621042100000000173e-03
2.830000000000000000e+02,5.609270700000000207e-03
2.840000000000000000e+02,5.597538800000000266e-03
2.850000000000000000e+02,5.585845600000000077e-03
2.860000000000000000e+02,5.574191899999999915e-03
2.870000000000000000e+02,5.562578299999999983e-03
2.880000000000000000e+02,5.551004299999999676e-03
2.890000000000000000e+02,5.539470799999999737e-03
2.900000000000000000e+02,5.527977800000000164e-03
2.910000000000000000e+02,5.516525799999999827e-03
2.920000000000000000e+02,5.505115300000000197e-03
2.930000000000000000e+02,5.493746600000000077e-03
2.940000000000000000e+02,5.482419900000000401e-03
2.950000000000000000e+02,5.471135999999999708e-03
2.960000000000000000e+02,5.459730500000000049e-03
2.970000000000000000e+02,5.448401000000000285e-03
2.980000000000000000e+02,5.437138000000000214e-03
2.990000000000000000e+02,5.425936999999999601e-03
3.000000000000000000e+02,5.414794700000000356e-03
3.010000000000000000e+02,5.403709599999999801e-03
3.020000000000000000e+02,5.392680900000000263e-03
3.030000000000000000e+02,5.381707099999999931e-03
3.040000000000000000e+02,5.370788700000000276e-03
3.050000000000000000e+02,5.359924900000000159e-03
3.060000000000000000e+02,5.349115500000000377e-03
3.070000000000000000e+02,5.338360999999999801e-03
3.080000000000000000e+02,5.327661499999999765e-03
3.090000000000000000e+02,5.317017400000000407e-03
3.100000000000000000e+02,5.306428799999999592e-03
3.110000000000000000e+02,5.295896900000000330e-03
3.120000000000000000e+02,5.285421400000000353e-03
3.130000000000000000e+02,5.275003599999999668e-03
3.140000000000000000e+02,5.264644500000000352e-03
3.150000000000000000e+02,5.254344499999999939e-03
3.160000000000000000e+02,5.244104700000000105e-03
3.170000000000000000e+02,5.233926199999999924e-03
3.180000000000000000e+02,5.223810700000000411e-03
3.190000000000000000e+02,5.213758399999999897e-03
3.200000000000000000e+02,5.203770899999999797e-03
3.210000000000000000e+02,5.193849599999999719e-03
3.220000000000000000e+02,5.183996199999999811e-03
3.230000000000000000e+02,5.174211700000000413e-03
3.240000000000000000e+02,5.164497500000000269e-03
3.250000000000000000e+02,5.154856000000000195e-03
3.260000000000000000e+02,5.145288500000000202e-03
3.270000000000000000e+02,5.135797000000000105e-03
3.280000000000000000e+02,5.126383200000000050e-03
3.290000000000000000e+02,5.117049400000000386e-03
3.300000000000000000e+02,5.107797199999999926e-03
3.310000000000000000e+02,5.098629300000000024e-03
3.320000000000000000e+02,5.089547500000000425e-03
3.330000000000000000e+02,5.080554200000000215e-03
3.340000000000000000e+02,5.071652099999999878e-03
3.350000000000000000e+02,5.062843699999999836e-03
3.360000000000000000e+02,5.054132099999999843e-03
3.370000000000000000e+02,5.045519200000000114e-03
3.380000000000000000e+02,5.036918900000000344e-03
3.390000000000000000e+02,5.028439699999999804e-03
3.400000000000000000e+02,5.020082500000000100e-03
3.410000000000000000e+02,5.011849599999999849e-03
3.420000000000000000e+02,5.003741899999999791e-03
3.430000000000000000e+02,4.995762400000000082e-03
3.440000000000000000e+02,4.987913200000000137e-03
3.450000000000000000e+02,4.980196200000000170e-03
3.460000000000000000e+02,4.972615300000000210e-03
3.470000000000000000e+02,4.965173500000000413e-03
3.480000000000000000e+02,4.957874800000000408e-03
3.490000000000000000e+02,4.950722700000000087e-03
3.500000000000000000e+02,4.943720999999999879e-03
3.510000000000000000e+02,4.936874400000000086e-03
3.520000000000000000e+02,4.930187899999999811e-03
3.530000000000000000e+02,4.923665899999999686e-03
3.540000000000000000e+02,4.917313300000000081e-03
3.550000000000000000e+02,4.911135399999999769e-03
3.560000000000000000e+02,4.905137700000000191e-03
3.570000000000000000e+02,4.899325799999999786e-03
3.580000000000000000e+02,4.893705199999999998e-03
3.590000000000000000e+02,4.888282600000000075e-03
3.600000000000000000e+02,4.883064000000000328e-03
3.610000000000000000e+02,4.878056700000000211e-03
3.620000000000000000e+02,4.873266900000000103e-03
3.630000000000000000e+02,4.868703000000000267e-03
3.640000000000000000e+02,4.864371400000000283e-03
3.650000000000000000e+02,4.860281000000000150e-03
3.660000000000000000e+02,4.856439300000000257e-03
3.670000000000000000e+02,4.852854600000000400e-03
3.680000000000000000e+02,4.849534899999999836e-03
3.690000000000000000e+02,4.846487200000000085e-03
3.700000000000000000e+02,4.843717400000000124e-03
3.710000000000000000e+02,4.841230299999999855e-03
3.720000000000000000e+02,4.839026800000000017e-03
3.730000000000000000e+02,4.837105500000000134e-03
3.740000000000000000e+02,4.835460300000000294e-03
3.750000000000000000e+02,4.834079199999999875e-03
3.760000000000000000e+02,4.832944799999999881e-03
3.770000000000000000e+02,4.832036300000000159e-03
3.780000000000000000e+02,4.831325699999999834e-03
3.790000000000000000e+02,4.830785100000000234e-03
3.800000000000000000e+02,4.830384200000000135e-03
3.810000000000000000e+02,4.830094499999999791e-03
3.820000000000000000e+02,4.829890600000000082e-03
3.830000000000000000e+02,4.829749900000000241e-03
3.840000000000000000e+02,4.829655399999999675e-03
3.850000000000000000e+02,4.829593000000000080e-03
3.860000000000000000e+02,4.829552499999999714e-03
3.870000000000000000e+02,4.829526899999999658e-03
3.880000000000000000e+02,4.829510999999999873e-03
3.890000000000000000e+02,4.829501299999999601e-03
3.900000000000000000e+02,4.829495700000000294e-03
3.910000000000000000e+02,4.829492399999999602e-03
3.920000000000000000e+02,4.829490599999999856e-03
3.930000000000000000e+02,4.829489200000000246e-03
3.940000000000000000e+02,4.829488699999999642e-03
3.950000000000000000e+02,4.829488199999999905e-03
3.960000000000000000e+02,4.829488199999999905e-03
3.970000000000000000e+02,4.829488199999999905e-03
3.980000000000000000e+02,4.829488199999999905e-03
3.990000000000000000e+02,4.829488199999999905e-03
