# Time [s], Thickness [m]
1.000000000000000000e+00,8.000000400000000303e-03
2.000000000000000000e+00,8.000000400000000303e-03
3.000000000000000000e+00,8.000000400000000303e-03
4.000000000000000000e+00,8.000000400000000303e-03
5.000000000000000000e+00,8.000000400000000303e-03
6.000000000000000000e+00,8.000000400000000303e-03
7.000000000000000000e+00,8.000000400000000303e-03
8.000000000000000000e+00,8.000000400000000303e-03
9.000000000000000000e+00,8.000000400000000303e-03
1.000000000000000000e+01,8.000000400000000303e-03
1.100000000000000000e+01,8.000000400000000303e-03
1.200000000000000000e+01,7.999999400000000829e-03
1.300000000000000000e+01,7.999999400000000829e-03
1.400000000000000000e+01,7.999999400000000829e-03
1.500000000000000000e+01,7.999998499999999221e-03
1.600000000000000000e+01,7.999996699999999475e-03
1.700000000000000000e+01,7.999993900000000255e-03
1.800000000000000000e+01,7.999990099999999826e-03
1.900000000000000000e+01,7.999982699999999905e-03
2.000000000000000000e+01,7.999971499999999555e-03
2.100000000000000000e+01,7.999953799999999157e-03
2.200000000000000000e+01,7.999928700000000573e-03
2.300000000000000000e+01,7.999890500000000557e-03
2.400000000000000000e+01,7.999836499999999490e-03
2.500000000000000000e+01,7.999760999999999331e-03
2.600000000000000000e+01,7.999656699999999759e-03
2.700000000000000000e+01,7.999515199999999646e-03
2.800000000000000000e+01,7.999326100000000647e-03
2.900000000000000000e+01,7.999078399999999880e-03
3.000000000000000000e+01,7.998758899999999783e-03
3.100000000000000000e+01,7.998351900000000639e-03
3.200000000000000000e+01,7.997841599999999662e-03
3.300000000000000000e+01,7.997210100000000724e-03
3.400000000000000000e+01,7.996438999999999284e-03
3.500000000000000000e+01,7.995511400000000421e-03
3.600000000000000000e+01,7.994407800000000522e-03
3.700000000000000000e+01,7.993113200000000543e-03
3.800000000000000000e+01,7.991613800000000115e-03
3.900000000000000000e+01,7.989897399999999414e-03
4.000000000000000000e+01,7.987956500000000654e-03
4.100000000000000000e+01,7.985783700000000443e-03
4.200000000000000000e+01,7.983379100000000117e-03
4.300000000000000000e+01,7.980742500000000475e-03
4.400000000000000000e+01,7.977877700000000211e-03
4.500000000000000000e+01,7.974789499999999226e-03
4.600000000000000000e+01,7.971486099999999450e-03
4.700000000000000000e+01,7.967975000000000405e-03
4.800000000000000000e+01,7.964265499999999623e-03
4.900000000000000000e+01,7.960366099999999570e-03
5.000000000000000000e+01,7.956287799999999660e-03
5.100000000000000000e+01,7.952038200000000751e-03
5.200000000000000000e+01,7.947628400000000121e-03
5.300000000000000000e+01,7.943066800000000635e-03
5.400000000000000000e+01,7.938359900000000607e-03
5.500000000000000000e+01,7.933517899999999179e-03
5.600000000000000000e+01,7.928546499999999594e-03
5.700000000000000000e+01,7.923453100000000041e-03
5.800000000000000000e+01,7.918244200000000566e-03
5.900000000000000000e+01,7.912926400000000818e-03
6.000000000000000000e+01,7.907503300000000290e-03
6.100000000000000000e+01,7.901980499999999158e-03
6.200000000000000000e+01,7.896364700000000139e-03
6.300000000000000000e+01,7.890658499999999784e-03
6.400000000000000000e+01,7.884865600000000654e-03
6.500000000000000000e+01,7.878990799999999184e-03
6.600000000000000000e+01,7.873036899999999796e-03
6.700000000000000000e+01,7.867007500000000250e-03
6.800000000000000000e+01,7.860906399999999239e-03
6.900000000000000000e+01,7.854735499999999579e-03
7.000000000000000000e+01,7.848498400000000763e-03
7.100000000000000000e+01,7.842197100000000004e-03
7.200000000000000000e+01,7.835834300000000391e-03
7.300000000000000000e+01,7.829412799999999409e-03
7.400000000000000000e+01,7.822936399999999221e-03
7.500000000000000000e+01,7.816404100000000355e-03
7.600000000000000000e+01,7.809819699999999768e-03
7.700000000000000000e+01,7.803186800000000423e-03
7.800000000000000000e+01,7.796504499999999845e-03
7.900000000000000000e+01,7.789776699999999797e-03
8.000000000000000000e+01,7.783005499999999695e-03
8.100000000000000000e+01,7.776190500000000269e-03
8.200000000000000000e+01,7.769335100000000077e-03
8.300000000000000000e+01,7.762440500000000396e-03
8.400000000000000000e+01,7.755506799999999958e-03
8.500000000000000000e+01,7.748536799999999718e-03
8.600000000000000000e+01,7.741531400000000417e-03
8.700000000000000000e+01,7.734490999999999589e-03
8.800000000000000000e+01,7.727417200000000382e-03
8.900000000000000000e+01,7.720311199999999735e-03
9.000000000000000000e+01,7.713173099999999852e-03
9.100000000000000000e+01,7.706004199999999874e-03
9.200000000000000000e+01,7.698805500000000142e-03
9.300000000000000000e+01,7.691576599999999653e-03
9.400000000000000000e+01,7.684318800000000151e-03
9.500000000000000000e+01,7.677033500000000378e-03
9.600000000000000000e+01,7.669719400000000326e-03
9.700000000000000000e+01,7.662378299999999740e-03
9.800000000000000000e+01,7.655010099999999887e-03
9.900000000000000000e+01,7.647614900000000368e-03
1.000000000000000000e+02,7.640193699999999789e-03
1.010000000000000000e+02,7.632746400000000285e-03
1.020000000000000000e+02,7.625273000000000120e-03
1.030000000000000000e+02,7.617774400000000036e-03
1.040000000000000000e+02,7.607406500000000321e-03
1.050000000000000000e+02,7.598455500000000223e-03
1.060000000000000000e+02,7.590099700000000130e-03
1.070000000000000000e+02,7.581803500000000411e-03
1.080000000000000000e+02,7.573652099999999762e-03
1.090000000000000000e+02,7.565511900000000331e-03
1.100000000000000000e+02,7.557414499999999882e-03
1.110000000000000000e+02,7.549316599999999697e-03
1.120000000000000000e+02,7.541227600000000378e-03
1.130000000000000000e+02,7.533132599999999880e-03
1.140000000000000000e+02,7.525033300000000085e-03
1.150000000000000000e+02,7.516922900000000407e-03
1.160000000000000000e+02,7.508801300000000380e-03
1.170000000000000000e+02,7.500665699999999915e-03
1.180000000000000000e+02,7.492514799999999871e-03
1.190000000000000000e+02,7.484347100000000169e-03
1.200000000000000000e+02,7.476161700000000070e-03
1.210000000000000000e+02,7.467957699999999699e-03
1.220000000000000000e+02,7.459734099999999583e-03
1.230000000000000000e+02,7.451489999999999850e-03
1.240000000000000000e+02,7.443225000000000362e-03
1.250000000000000000e+02,7.434938099999999911e-03
1.260000000000000000e+02,7.426629300000000232e-03
1.270000000000000000e+02,7.418297699999999717e-03
1.280000000000000000e+02,7.409942800000000364e-03
1.290000000000000000e+02,7.401564200000000301e-03
1.300000000000000000e+02,7.393161799999999929e-03
1.310000000000000000e+02,7.384734199999999638e-03
1.320000000000000000e+02,7.376282500000000235e-03
1.330000000000000000e+02,7.367804599999999704e-03
1.340000000000000000e+02,7.359301199999999585e-03
1.350000000000000000e+02,7.350771699999999673e-03
1.360000000000000000e+02,7.342215600000000231e-03
1.370000000000000000e+02,7.333632599999999856e-03
1.380000000000000000e+02,7.325021999999999610e-03
1.390000000000000000e+02,7.316383499999999825e-03
1.400000000000000000e+02,7.307716599999999896e-03
1.410000000000000000e+02,7.299021400000000291e-03
1.420000000000000000e+02,7.290296699999999734e-03
1.430000000000000000e+02,7.281542799999999628e-03
1.440000000000000000e+02,7.272758100000000295e-03
1.450000000000000000e+02,7.263943099999999736e-03
1.460000000000000000e+02,7.255097400000000418e-03
1.470000000000000000e+02,7.246220000000000265e-03
1.480000000000000000e+02,7.237310099999999871e-03
1.490000000000000000e+02,7.228368399999999909e-03
1.500000000000000000e+02,7.219393299999999833e-03
1.510000000000000000e+02,7.210384599999999575e-03
1.520000000000000000e+02,7.201341899999999865e-03
1.530000000000000000e+02,7.192265199999999838e-03
1.540000000000000000e+02,7.182294999999999999e-03
1.550000000000000000e+02,7.172435999999999916e-03
1.560000000000000000e+02,7.162713400000000376e-03
1.570000000000000000e+02,7.153066300000000127e-03
1.580000000000000000e+02,7.143461599999999592e-03
1.590000000000000000e+02,7.133875500000000196e-03
1.600000000000000000e+02,7.124292200000000019e-03
1.610000000000000000e+02,7.114701000000000185e-03
1.620000000000000000e+02,7.105092500000000089e-03
1.630000000000000000e+02,7.095462200000000365e-03
1.640000000000000000e+02,7.085804799999999640e-03
1.650000000000000000e+02,7.076117199999999892e-03
1.660000000000000000e+02,7.066396499999999699e-03
1.670000000000000000e+02,7.056640500000000045e-03
1.680000000000000000e+02,7.046847600000000385e-03
1.690000000000000000e+02,7.037016099999999705e-03
1.700000000000000000e+02,7.027144499999999662e-03
1.710000000000000000e+02,7.017231999999999983e-03
1.720000000000000000e+02,7.007276599999999987e-03
1.730000000000000000e+02,6.997278400000000141e-03
1.740000000000000000e+02,6.987235999999999968e-03
1.750000000000000000e+02,6.977147900000000257e-03
1.760000000000000000e+02,6.967013700000000004e-03
1.770000000000000000e+02,6.956831999999999600e-03
1.780000000000000000e+02,6.946603299999999648e-03
1.790000000000000000e+02,6.936325200000000198e-03
1.800000000000000000e+02,6.925997799999999982e-03
1.810000000000000000e+02,6.915620100000000395e-03
1.820000000000000000e+02,6.905191100000000227e-03
1.830000000000000000e+02,6.894710499999999812e-03
1.840000000000000000e+02,6.884177699999999810e-03
1.850000000000000000e+02,6.873590899999999608e-03
1.860000000000000000e+02,6.862950500000000210e-03
1.870000000000000000e+02,6.852256099999999746e-03
1.880000000000000000e+02,6.841505900000000202e-03
1.890000000000000000e+02,6.830700700000000118e-03
1.900000000000000000e+02,6.819839599999999620e-03
1.910000000000000000e+02,6.808921699999999702e-03
1.920000000000000000e+02,6.797947000000000364e-03
1.930000000000000000e+02,6.786915499999999872e-03
1.940000000000000000e+02,6.775826700000000223e-03
1.950000000000000000e+02,6.764680599999999683e-03
1.960000000000000000e+02,6.752839299999999732e-03
1.970000000000000000e+02,6.741095299999999568e-03
1.980000000000000000e+02,6.729391399999999634e-03
1.990000000000000000e+02,6.717696799999999836e-03
2.000000000000000000e+02,6.705996599999999863e-03
2.010000000000000000e+02,6.694279099999999628e-03
2.020000000000000000e+02,6.682536999999999679e-03
2.030000000000000000e+02,6.670764200000000102e-03
2.040000000000000000e+02,6.658956399999999866e-03
2.050000000000000000e+02,6.647110000000000345e-03
2.060000000000000000e+02,6.635224399999999599e-03
2.070000000000000000e+02,6.623297000000000212e-03
2.080000000000000000e+02,6.611327600000000380e-03
2.090000000000000000e+02,6.599316400000000173e-03
2.100000000000000000e+02,6.587262699999999783e-03
2.110000000000000000e+02,6.575167600000000022e-03
2.120000000000000000e+02,6.563032499999999630e-03
2.130000000000000000e+02,6.550856899999999740e-03
2.140000000000000000e+02,6.538643499999999970e-03
2.150000000000000000e+02,6.526392399999999920e-03
2.160000000000000000e+02,6.514106399999999679e-03
2.170000000000000000e+02,6.501786399999999987e-03
2.180000000000000000e+02,6.489434300000000190e-03
2.190000000000000000e+02,6.477051900000000036e-03
2.200000000000000000e+02,6.464640600000000001e-03
2.210000000000000000e+02,6.452203699999999910e-03
2.220000000000000000e+02,6.439742200000000104e-03
2.230000000000000000e+02,6.427258299999999598e-03
2.240000000000000000e+02,6.414753900000000342e-03
2.250000000000000000e+02,6.402231300000000083e-03
2.260000000000000000e+02,6.389692399999999904e-03
2.270000000000000000e+02,6.377139599999999756e-03
2.280000000000000000e+02,6.364574700000000251e-03
2.290000000000000000e+02,6.351999500000000271e-03
2.300000000000000000e+02,6.338922799999999712e-03
2.310000000000000000e+02,6.325944800000000284e-03
2.320000000000000000e+02,6.313028699999999847e-03
2.330000000000000000e+02,6.300158299999999816e-03
2.340000000000000000e+02,6.287325600000000063e-03
2.350000000000000000e+02,6.274524099999999674e-03
2.360000000000000000e+02,6.261750100000000423e-03
2.370000000000000000e+02,6.249000299999999883e-03
2.380000000000000000e+02,6.236273300000000179e-03
2.390000000000000000e+02,6.223567299999999830e-03
2.400000000000000000e+02,6.210881799999999966e-03
2.410000000000000000e+02,6.198216200000000384e-03
2.420000000000000000e+02,6.185570700000000283e-03
2.430000000000000000e+02,6.172944799999999926e-03
2.440000000000000000e+02,6.160339299999999588e-03
2.450000000000000000e+02,6.147753399999999861e-03
2.460000000000000000e+02,6.135188500000000357e-03
2.470000000000000000e+02,6.122644499999999740e-03
2.480000000000000000e+02,6.110121500000000212e-03
2.490000000000000000e+02,6.097620399999999913e-03
2.500000000000000000e+02,6.085141599999999845e-03
2.510000000000000000e+02,6.072685100000000009e-03
2.520000000000000000e+02,6.060252000000000347e-03
2.530000000000000000e+02,6.047842599999999659e-03
2.540000000000000000e+02,6.035456399999999944e-03
2.550000000000000000e+02,6.023094500000000275e-03
2.560000000000000000e+02,6.010757299999999921e-03
2.570000000000000000e+02,5.998444700000000150e-03
2.580000000000000000e+02,5.986157800000000036e-03
2.590000000000000000e+02,5.973896000000000241e-03
2.600000000000000000e+02,5.961659799999999634e-03
2.610000000000000000e+02,5.949449300000000419e-03
2.620000000000000000e+02,5.937265199999999798e-03
2.630000000000000000e+02,5.925107300000000306e-03
2.640000000000000000e+02,5.912595900000000397e-03
2.650000000000000000e+02,5.900181400000000138e-03
2.660000000000000000e+02,5.887840899999999961e-03
2.670000000000000000e+02,5.875562299999999641e-03
2.680000000000000000e+02,5.863338200000000125e-03
2.690000000000000000e+02,5.851164499999999581e-03
2.700000000000000000e+02,5.839036300000000242e-03
2.710000000000000000e+02,5.826951500000000089e-03
2.720000000000000000e+02,5.814907599999999573e-03
2.730000000000000000e+02,5.802902900000000280e-03
2.740000000000000000e+02,5.790935799999999932e-03
2.750000000000000000e+02,5.779005599999999590e-03
2.760000000000000000e+02,5.767110699999999576e-03
2.770000000000000000e+02,5.755250800000000222e-03
2.780000000000000000e+02,5.743425299999999588e-03
2.790000000000000000e+02,5.731632900000000266e-03
2.800000000000000000e+02,5.719874100000000260e-03
2.810000000000000000e+02,5.708147799999999626e-03
2.820000000000000000e+02,5.696453599999999964e-03
2.830000000000000000e+02,5.684791100000000270e-03
2.840000000000000000e+02,5.673160800000000281e-03
2.850000000000000000e+02,5.661561600000000055e-03
2.860000000000000000e+02,5.649994099999999797e-03
2.870000000000000000e+02,5.638457399999999634e-03
2.880000000000000000e+02,5.626952299999999837e-03
2.890000000000000000e+02,5.615478400000000272e-03
2.900000000000000000e+02,5.604035200000000334e-03
2.910000000000000000e+02,5.592623300000000228e-03
2.920000000000000000e+02,5.581242499999999884e-03
2.930000000000000000e+02,5.569892899999999772e-03
2.940000000000000000e+02,5.558574600000000358e-03
2.950000000000000000e+02,5.547287399999999841e-03
2.960000000000000000e+02,5.536031900000000158e-03
2.970000000000000000e+02,5.524808099999999576e-03
2.980000000000000000e+02,5.513616399999999966e-03
2.990000000000000000e+02,5.502456299999999856e-03
3.000000000000000000e+02,5.491019700000000434e-03
3.010000000000000000e+02,5.479667300000000234e-03
3.020000000000000000e+02,5.468383400000000408e-03
3.030000000000000000e+02,5.457159100000000089e-03
3.040000000000000000e+02,5.445989800000000311e-03
3.050000000000000000e+02,5.434872599999999651e-03
3.060000000000000000e+02,5.423804299999999620e-03
3.070000000000000000e+02,5.412783499999999741e-03
3.080000000000000000e+02,5.401808800000000403e-03
3.090000000000000000e+02,5.390879200000000399e-03
3.100000000000000000e+02,5.379993900000000322e-03
3.110000000000000000e+02,5.369152900000000173e-03
3.120000000000000000e+02,5.358354699999999873e-03
3.130000000000000000e+02,5.347599700000000428e-03
3.140000000000000000e+02,5.336887700000000033e-03
3.150000000000000000e+02,5.326218899999999624e-03
3.160000000000000000e+02,5.315592499999999797e-03
3.170000000000000000e+02,5.305010399999999897e-03
3.180000000000000000e+02,5.294471000000000246e-03
3.190000000000000000e+02,5.283976400000000261e-03
3.200000000000000000e+02,5.273526100000000202e-03
3.210000000000000000e+02,5.263120900000000345e-03
3.220000000000000000e+02,5.252761300000000425e-03
3.230000000000000000e+02,5.242448299999999915e-03
3.240000000000000000e+02,5.232182800000000425e-03
3.250000000000000000e+02,5.221965700000000092e-03
3.260000000000000000e+02,5.211797500000000388e-03
3.270000000000000000e+02,5.201680600000000397e-03
3.280000000000000000e+02,5.191614899999999651e-03
3.290000000000000000e+02,5.181602199999999631e-03
3.300000000000000000e+02,5.171643600000000278e-03
3.310000000000000000e+02,5.161741299999999741e-03
3.320000000000000000e+02,5.151896300000000095e-03
3.330000000000000000e+02,5.142110400000000220e-03
3.340000000000000000e+02,5.132385500000000329e-03
3.350000000000000000e+02,5.122723499999999770e-03
3.360000000000000000e+02,5.113127200000000365e-03
3.370000000000000000e+02,5.103598299999999657e-03
3.380000000000000000e+02,5.094139400000000269e-03
3.390000000000000000e+02,5.084753000000000016e-03
3.400000000000000000e+02,5.075442099999999922e-03
3.410000000000000000e+02,5.066012499999999683e-03
3.420000000000000000e+02,5.056693200000000193e-03
3.430000000000000000e+02,5.047482399999999973e-03
3.440000000000000000e+02,5.038380599999999626e-03
3.450000000000000000e+02,5.029389599999999766e-03
3.460000000000000000e+02,5.020510399999999866e-03
3.470000000000000000e+02,5.011745700000000414e-03
3.480000000000000000e+02,5.003099300000000103e-03
3.490000000000000000e+02,4.994575400000000366e-03
3.500000000000000000e+02,4.986179099999999906e-03
3.510000000000000000e+02,4.977915900000000164e-03
3.520000000000000000e+02,4.969791500000000049e-03
3.530000000000000000e+02,4.961812900000000214e-03
3.540000000000000000e+02,4.953988399999999584e-03
3.550000000000000000e+02,4.946325399999999817e-03
3.560000000000000000e+02,4.938832899999999644e-03
3.570000000000000000e+02,4.931521099999999942e-03
3.580000000000000000e+02,4.924399799999999716e-03
3.590000000000000000e+02,4.917480499999999852e-03
3.600000000000000000e+02,4.910775000000000036e-03
3.610000000000000000e+02,4.904295799999999761e-03
3.620000000000000000e+02,4.898056399999999727e-03
3.630000000000000000e+02,4.892071199999999641e-03
3.640000000000000000e+02,4.886354300000000407e-03
3.650000000000000000e+02,4.880920500000000134e-03
3.660000000000000000e+02,4.875784699999999999e-03
3.670000000000000000e+02,4.870962399999999651e-03
3.680000000000000000e+02,4.866466399999999984e-03
3.690000000000000000e+02,4.862309900000000296e-03
3.700000000000000000e+02,4.858503600000000332e-03
3.710000000000000000e+02,4.855054900000000014e-03
3.720000000000000000e+02,4.851967599999999770e-03
3.730000000000000000e+02,4.849241100000000262e-03
3.740000000000000000e+02,4.846868600000000041e-03
3.750000000000000000e+02,4.844836899999999807e-03
3.760000000000000000e+02,4.843127400000000159e-03
3.770000000000000000e+02,4.841714599999999771e-03
3.780000000000000000e+02,4.840568600000000159e-03
3.790000000000000000e+02,4.839655499999999735e-03
3.800000000000000000e+02,4.838940699999999713e-03
3.810000000000000000e+02,4.838389799999999637e-03
3.820000000000000000e+02,4.837971200000000006e-03
3.830000000000000000e+02,4.837656899999999947e-03
3.840000000000000000e+02,4.837423100000000017e-03
3.850000000000000000e+02,4.837249899999999936e-03
3.860000000000000000e+02,4.837122699999999928e-03
3.870000000000000000e+02,4.837029100000000102e-03
3.880000000000000000e+02,4.836960700000000196e-03
3.890000000000000000e+02,4.836909900000000220e-03
3.900000000000000000e+02,4.836872699999999678e-03
3.910000000000000000e+02,4.836845700000000012e-03
3.920000000000000000e+02,4.836825200000000394e-03
3.930000000000000000e+02,4.836809800000000346e-03
3.940000000000000000e+02,4.836798599999999997e-03
3.950000000000000000e+02,4.836790300000000202e-03
3.960000000000000000e+02,4.836783699999999686e-03
3.970000000000000000e+02,4.836778600000000115e-03
3.980000000000000000e+02,4.836774900000000155e-03
3.990000000000000000e+02,4.836772100000000067e-03
