# Time [s], Mass [Kg]
1.000000000000000000e+00,1.000000000000000000e+00
2.000000000000000000e+00,1.000000000000000000e+00
3.000000000000000000e+00,1.000000000000000000e+00
4.000000000000000000e+00,1.000000000000000000e+00
5.000000000000000000e+00,1.000000000000000000e+00
6.000000000000000000e+00,1.000000000000000000e+00
7.000000000000000000e+00,9.999998799999999521e-01
8.000000000000000000e+00,9.999995799999999990e-01
9.000000000000000000e+00,9.999983900000000148e-01
1.000000000000000000e+01,9.999948100000000117e-01
1.100000000000000000e+01,9.999850999999999601e-01
1.200000000000000000e+01,9.999609600000000098e-01
1.300000000000000000e+01,9.999078500000000425e-01
1.400000000000000000e+01,9.998025299999999671e-01
1.500000000000000000e+01,9.996122100000000010e-01
1.600000000000000000e+01,9.992981600000000464e-01
1.700000000000000000e+01,9.988253099999999662e-01
1.800000000000000000e+01,9.981678699999999571e-01
1.900000000000000000e+01,9.973330500000000542e-01
2.000000000000000000e+01,9.963415300000000308e-01
2.100000000000000000e+01,9.951854300000000375e-01
2.200000000000000000e+01,9.939271800000000212e-01
2.300000000000000000e+01,9.925837499999999869e-01
2.400000000000000000e+01,9.911027599999999715e-01
2.500000000000000000e+01,9.895849199999999790e-01
2.600000000000000000e+01,9.880189900000000414e-01
2.700000000000000000e+01,9.863253800000000293e-01
2.800000000000000000e+01,9.846206299999999967e-01
2.900000000000000000e+01,9.828827399999999770e-01
3.000000000000000000e+01,9.810211100000000295e-01
3.100000000000000000e+01,9.791417700000000224e-01
3.200000000000000000e+01,9.772368700000000352e-01
3.300000000000000000e+01,9.741399299999999872e-01
3.400000000000000000e+01,9.722655399999999837e-01
3.500000000000000000e+01,9.702565699999999849e-01
3.600000000000000000e+01,9.681930499999999995e-01
3.700000000000000000e+01,9.661335899999999866e-01
3.800000000000000000e+01,9.640409899999999865e-01
3.900000000000000000e+01,9.618954699999999747e-01
4.000000000000000000e+01,9.597139399999999876e-01
4.100000000000000000e+01,9.575328800000000307e-01
4.200000000000000000e+01,9.553115399999999591e-01
4.300000000000000000e+01,9.530756500000000520e-01
4.400000000000000000e+01,9.508381500000000486e-01
4.500000000000000000e+01,9.485804399999999692e-01
4.600000000000000000e+01,9.463082600000000122e-01
4.700000000000000000e+01,9.440322500000000172e-01
4.800000000000000000e+01,9.417411700000000163e-01
4.900000000000000000e+01,9.394388799999999762e-01
5.000000000000000000e+01,9.371344999999999814e-01
5.100000000000000000e+01,9.348245299999999869e-01
5.200000000000000000e+01,9.325118700000000205e-01
5.300000000000000000e+01,9.302027800000000068e-01
5.400000000000000000e+01,9.278951300000000124e-01
5.500000000000000000e+01,9.255883099999999697e-01
5.600000000000000000e+01,9.232845899999999606e-01
5.700000000000000000e+01,9.209812299999999841e-01
5.800000000000000000e+01,9.186769099999999577e-01
5.900000000000000000e+01,9.163738500000000453e-01
6.000000000000000000e+01,9.140713200000000205e-01
6.100000000000000000e+01,9.115628000000000064e-01
6.200000000000000000e+01,9.090933199999999825e-01
6.300000000000000000e+01,9.066994800000000021e-01
6.400000000000000000e+01,9.043585100000000043e-01
6.500000000000000000e+01,9.020449499999999565e-01
6.600000000000000000e+01,8.997510699999999861e-01
6.700000000000000000e+01,8.974675500000000028e-01
6.800000000000000000e+01,8.951913700000000418e-01
6.900000000000000000e+01,8.929198999999999886e-01
7.000000000000000000e+01,8.906524200000000002e-01
7.100000000000000000e+01,8.883889299999999656e-01
7.200000000000000000e+01,8.861303299999999661e-01
7.300000000000000000e+01,8.838762599999999692e-01
7.400000000000000000e+01,8.816270800000000074e-01
7.500000000000000000e+01,8.793832099999999707e-01
7.600000000000000000e+01,8.771440400000000137e-01
7.700000000000000000e+01,8.749086299999999650e-01
7.800000000000000000e+01,8.726770299999999647e-01
7.900000000000000000e+01,8.704487100000000144e-01
8.000000000000000000e+01,8.682231299999999541e-01
8.100000000000000000e+01,8.660005299999999906e-01
8.200000000000000000e+01,8.637813300000000138e-01
8.300000000000000000e+01,8.615657700000000085e-01
8.400000000000000000e+01,8.593537799999999560e-01
8.500000000000000000e+01,8.571461999999999692e-01
8.600000000000000000e+01,8.549426799999999549e-01
8.700000000000000000e+01,8.527429699999999890e-01
8.800000000000000000e+01,8.505465399999999621e-01
8.900000000000000000e+01,8.482516399999999734e-01
9.000000000000000000e+01,8.460115200000000169e-01
9.100000000000000000e+01,8.437928000000000095e-01
9.200000000000000000e+01,8.415875400000000228e-01
9.300000000000000000e+01,8.393912900000000121e-01
9.400000000000000000e+01,8.372023100000000051e-01
9.500000000000000000e+01,8.350187500000000318e-01
9.600000000000000000e+01,8.328397300000000003e-01
9.700000000000000000e+01,8.306643400000000010e-01
9.800000000000000000e+01,8.284920500000000354e-01
9.900000000000000000e+01,8.263219600000000220e-01
1.000000000000000000e+02,8.241532400000000091e-01
1.010000000000000000e+02,8.219858399999999676e-01
1.020000000000000000e+02,8.198190300000000041e-01
1.030000000000000000e+02,8.176530600000000426e-01
1.040000000000000000e+02,8.154874399999999524e-01
1.050000000000000000e+02,8.133227800000000229e-01
1.060000000000000000e+02,8.111584800000000151e-01
1.070000000000000000e+02,8.089946500000000373e-01
1.080000000000000000e+02,8.068311200000000127e-01
1.090000000000000000e+02,8.046679500000000207e-01
1.100000000000000000e+02,8.025046000000000124e-01
1.110000000000000000e+02,8.003408899999999715e-01
1.120000000000000000e+02,7.981762300000000421e-01
1.130000000000000000e+02,7.960107299999999997e-01
1.140000000000000000e+02,7.938439800000000046e-01
1.150000000000000000e+02,7.916755100000000267e-01
1.160000000000000000e+02,7.895054200000000133e-01
1.170000000000000000e+02,7.873337299999999539e-01
1.180000000000000000e+02,7.850728599999999835e-01
1.190000000000000000e+02,7.828538400000000230e-01
1.200000000000000000e+02,7.806507299999999594e-01
1.210000000000000000e+02,7.784546599999999650e-01
1.220000000000000000e+02,7.762612700000000032e-01
1.230000000000000000e+02,7.740682399999999630e-01
1.240000000000000000e+02,7.718739500000000309e-01
1.250000000000000000e+02,7.696775799999999723e-01
1.260000000000000000e+02,7.674784700000000237e-01
1.270000000000000000e+02,7.652759599999999773e-01
1.280000000000000000e+02,7.630697499999999911e-01
1.290000000000000000e+02,7.608594300000000032e-01
1.300000000000000000e+02,7.586448799999999659e-01
1.310000000000000000e+02,7.564255600000000523e-01
1.320000000000000000e+02,7.542009400000000419e-01
1.330000000000000000e+02,7.519708899999999474e-01
1.340000000000000000e+02,7.497349399999999608e-01
1.350000000000000000e+02,7.474929099999999549e-01
1.360000000000000000e+02,7.452442599999999917e-01
1.370000000000000000e+02,7.429887699999999651e-01
1.380000000000000000e+02,7.407260500000000247e-01
1.390000000000000000e+02,7.384557699999999558e-01
1.400000000000000000e+02,7.361776199999999770e-01
1.410000000000000000e+02,7.338914300000000113e-01
1.420000000000000000e+02,7.315968299999999758e-01
1.430000000000000000e+02,7.292934100000000308e-01
1.440000000000000000e+02,7.269804500000000003e-01
1.450000000000000000e+02,7.246578900000000267e-01
1.460000000000000000e+02,7.222447400000000517e-01
1.470000000000000000e+02,7.198584700000000280e-01
1.480000000000000000e+02,7.174776800000000065e-01
1.490000000000000000e+02,7.150940900000000156e-01
1.500000000000000000e+02,7.127040000000000042e-01
1.510000000000000000e+02,7.103047399999999900e-01
1.520000000000000000e+02,7.078948000000000462e-01
1.530000000000000000e+02,7.054727699999999713e-01
1.540000000000000000e+02,7.030377399999999666e-01
1.550000000000000000e+02,7.005889400000000489e-01
1.560000000000000000e+02,6.981258399999999975e-01
1.570000000000000000e+02,6.956477199999999694e-01
1.580000000000000000e+02,6.931538600000000105e-01
1.590000000000000000e+02,6.906437300000000112e-01
1.600000000000000000e+02,6.881168500000000021e-01
1.610000000000000000e+02,6.855728599999999506e-01
1.620000000000000000e+02,6.830112299999999692e-01
1.630000000000000000e+02,6.804314900000000277e-01
1.640000000000000000e+02,6.778335599999999461e-01
1.650000000000000000e+02,6.752171500000000437e-01
1.660000000000000000e+02,6.725819100000000050e-01
1.670000000000000000e+02,6.699281900000000345e-01
1.680000000000000000e+02,6.672557599999999756e-01
1.690000000000000000e+02,6.645648499999999848e-01
1.700000000000000000e+02,6.618555799999999989e-01
1.710000000000000000e+02,6.591282499999999711e-01
1.720000000000000000e+02,6.563107400000000036e-01
1.730000000000000000e+02,6.535071099999999467e-01
1.740000000000000000e+02,6.507018799999999548e-01
1.750000000000000000e+02,6.478896100000000047e-01
1.760000000000000000e+02,6.450681099999999724e-01
1.770000000000000000e+02,6.422364699999999482e-01
1.780000000000000000e+02,6.393948200000000304e-01
1.790000000000000000e+02,6.365436899999999953e-01
1.800000000000000000e+02,6.336837400000000509e-01
1.810000000000000000e+02,6.308161599999999591e-01
1.820000000000000000e+02,6.279418500000000236e-01
1.830000000000000000e+02,6.250622300000000520e-01
1.840000000000000000e+02,6.221783199999999514e-01
1.850000000000000000e+02,6.192913100000000393e-01
1.860000000000000000e+02,6.164023899999999667e-01
1.870000000000000000e+02,6.135127500000000511e-01
1.880000000000000000e+02,6.106236600000000125e-01
1.890000000000000000e+02,6.077358699999999558e-01
1.900000000000000000e+02,6.048506500000000452e-01
1.910000000000000000e+02,6.019687099999999624e-01
1.920000000000000000e+02,5.990908099999999736e-01
1.930000000000000000e+02,5.962179899999999755e-01
1.940000000000000000e+02,5.932850800000000202e-01
1.950000000000000000e+02,5.903825799999999902e-01
1.960000000000000000e+02,5.874999800000000327e-01
1.970000000000000000e+02,5.846325799999999573e-01
1.980000000000000000e+02,5.817782900000000312e-01
1.990000000000000000e+02,5.789358599999999688e-01
2.000000000000000000e+02,5.761048800000000414e-01
2.010000000000000000e+02,5.732852800000000082e-01
2.020000000000000000e+02,5.704768300000000458e-01
2.030000000000000000e+02,5.676795799999999614e-01
2.040000000000000000e+02,5.648938999999999488e-01
2.050000000000000000e+02,5.621198400000000373e-01
2.060000000000000000e+02,5.593576999999999577e-01
2.070000000000000000e+02,5.566077799999999964e-01
2.080000000000000000e+02,5.538705000000000434e-01
2.090000000000000000e+02,5.511460900000000329e-01
2.100000000000000000e+02,5.484350300000000455e-01
2.110000000000000000e+02,5.457378000000000506e-01
2.120000000000000000e+02,5.430548800000000176e-01
2.130000000000000000e+02,5.403866200000000397e-01
2.140000000000000000e+02,5.377339100000000371e-01
2.150000000000000000e+02,5.350971799999999501e-01
2.160000000000000000e+02,5.324772599999999523e-01
2.170000000000000000e+02,5.298245000000000315e-01
2.180000000000000000e+02,5.272073699999999530e-01
2.190000000000000000e+02,5.246197000000000221e-01
2.200000000000000000e+02,5.220590200000000403e-01
2.210000000000000000e+02,5.195246300000000428e-01
2.220000000000000000e+02,5.170161699999999971e-01
2.230000000000000000e+02,5.145341199999999837e-01
2.240000000000000000e+02,5.120794199999999519e-01
2.250000000000000000e+02,5.096529699999999830e-01
2.260000000000000000e+02,5.072560299999999689e-01
2.270000000000000000e+02,5.048901999999999557e-01
2.280000000000000000e+02,5.025571599999999473e-01
2.290000000000000000e+02,5.002586199999999872e-01
2.300000000000000000e+02,4.979968399999999962e-01
2.310000000000000000e+02,4.957738500000000159e-01
2.320000000000000000e+02,4.935919599999999963e-01
2.330000000000000000e+02,4.914535600000000115e-01
2.340000000000000000e+02,4.893611999999999962e-01
2.350000000000000000e+02,4.873173800000000222e-01
2.360000000000000000e+02,4.853248000000000006e-01
2.370000000000000000e+02,4.833860999999999852e-01
2.380000000000000000e+02,4.815038999999999847e-01
2.390000000000000000e+02,4.796806900000000207e-01
2.400000000000000000e+02,4.779189500000000090e-01
2.410000000000000000e+02,4.762208499999999733e-01
2.420000000000000000e+02,4.745883900000000266e-01
2.430000000000000000e+02,4.730233600000000038e-01
2.440000000000000000e+02,4.715270100000000242e-01
2.450000000000000000e+02,4.701003400000000054e-01
2.460000000000000000e+02,4.687482399999999827e-01
2.470000000000000000e+02,4.674642099999999911e-01
2.480000000000000000e+02,4.662494099999999753e-01
2.490000000000000000e+02,4.651031500000000207e-01
2.500000000000000000e+02,4.640242800000000112e-01
2.510000000000000000e+02,4.630110599999999743e-01
2.520000000000000000e+02,4.620614599999999794e-01
2.530000000000000000e+02,4.611732100000000001e-01
2.540000000000000000e+02,4.603437499999999960e-01
2.550000000000000000e+02,4.595703500000000163e-01
2.560000000000000000e+02,4.588501199999999725e-01
2.570000000000000000e+02,4.581800999999999791e-01
2.580000000000000000e+02,4.575573199999999896e-01
2.590000000000000000e+02,4.569788300000000025e-01
2.600000000000000000e+02,4.564417000000000058e-01
2.610000000000000000e+02,4.559431400000000245e-01
2.620000000000000000e+02,4.554804000000000075e-01
2.630000000000000000e+02,4.550509200000000254e-01
2.640000000000000000e+02,4.546522499999999800e-01
2.650000000000000000e+02,4.542820499999999928e-01
2.660000000000000000e+02,4.539382200000000034e-01
2.670000000000000000e+02,4.536186500000000121e-01
2.680000000000000000e+02,4.533215199999999778e-01
2.690000000000000000e+02,4.530450999999999784e-01
2.700000000000000000e+02,4.527877599999999836e-01
2.710000000000000000e+02,4.525479700000000216e-01
2.720000000000000000e+02,4.523244499999999890e-01
2.730000000000000000e+02,4.521158599999999805e-01
2.740000000000000000e+02,4.519211100000000148e-01
2.750000000000000000e+02,4.517390700000000203e-01
2.760000000000000000e+02,4.515688099999999872e-01
2.770000000000000000e+02,4.514094300000000004e-01
2.780000000000000000e+02,4.512601199999999868e-01
2.790000000000000000e+02,4.511201100000000186e-01
2.800000000000000000e+02,4.509887100000000149e-01
2.810000000000000000e+02,4.508653000000000244e-01
2.820000000000000000e+02,4.507492799999999744e-01
2.830000000000000000e+02,4.506401400000000224e-01
2.840000000000000000e+02,4.505373500000000031e-01
2.850000000000000000e+02,4.504405300000000056e-01
2.860000000000000000e+02,4.503492099999999998e-01
2.870000000000000000e+02,4.502630499999999980e-01
2.880000000000000000e+02,4.501816599999999835e-01
2.890000000000000000e+02,4.501047400000000032e-01
2.900000000000000000e+02,4.500319999999999876e-01
2.910000000000000000e+02,4.499631199999999942e-01
2.920000000000000000e+02,4.498979200000000067e-01
2.930000000000000000e+02,4.498360800000000270e-01
2.940000000000000000e+02,4.497774500000000231e-01
2.950000000000000000e+02,4.497218099999999996e-01
2.960000000000000000e+02,4.496689700000000012e-01
2.970000000000000000e+02,4.496187899999999904e-01
2.980000000000000000e+02,4.495710399999999773e-01
2.990000000000000000e+02,4.495256200000000146e-01
3.000000000000000000e+02,4.494824099999999989e-01
3.010000000000000000e+02,4.494412199999999746e-01
3.020000000000000000e+02,4.494019699999999840e-01
3.030000000000000000e+02,4.493645700000000187e-01
3.040000000000000000e+02,4.493288999999999755e-01
3.050000000000000000e+02,4.492948099999999889e-01
3.060000000000000000e+02,4.492622900000000086e-01
3.070000000000000000e+02,4.492312099999999919e-01
3.080000000000000000e+02,4.492014899999999811e-01
3.090000000000000000e+02,4.491730899999999971e-01
3.100000000000000000e+02,4.491458799999999973e-01
3.110000000000000000e+02,4.491198699999999766e-01
3.120000000000000000e+02,4.490949499999999928e-01
3.130000000000000000e+02,4.490710800000000114e-01
3.140000000000000000e+02,4.490481900000000137e-01
3.150000000000000000e+02,4.490262600000000104e-01
3.160000000000000000e+02,4.490052199999999827e-01
3.170000000000000000e+02,4.489850100000000177e-01
3.180000000000000000e+02,4.489656100000000150e-01
3.190000000000000000e+02,4.489470099999999797e-01
3.200000000000000000e+02,4.489291000000000254e-01
3.210000000000000000e+02,4.489119100000000251e-01
3.220000000000000000e+02,4.488953900000000052e-01
3.230000000000000000e+02,4.488794799999999974e-01
3.240000000000000000e+02,4.488641899999999962e-01
3.250000000000000000e+02,4.488494699999999726e-01
3.260000000000000000e+02,4.488352800000000031e-01
3.270000000000000000e+02,4.488216300000000269e-01
3.280000000000000000e+02,4.488084900000000044e-01
3.290000000000000000e+02,4.487958300000000067e-01
3.300000000000000000e+02,4.487836099999999995e-01
3.310000000000000000e+02,4.487718299999999827e-01
3.320000000000000000e+02,4.487604499999999774e-01
3.330000000000000000e+02,4.487494799999999784e-01
3.340000000000000000e+02,4.487388999999999961e-01
3.350000000000000000e+02,4.487286799999999909e-01
3.360000000000000000e+02,4.487188200000000182e-01
3.370000000000000000e+02,4.487092799999999881e-01
3.380000000000000000e+02,4.487000700000000064e-01
3.390000000000000000e+02,4.486911599999999778e-01
3.400000000000000000e+02,4.486825500000000133e-01
3.410000000000000000e+02,4.486742300000000072e-01
3.420000000000000000e+02,4.486661900000000203e-01
3.430000000000000000e+02,4.486583800000000233e-01
3.440000000000000000e+02,4.486508399999999952e-01
3.450000000000000000e+02,4.486435400000000073e-01
3.460000000000000000e+02,4.486364700000000094e-01
3.470000000000000000e+02,4.486296200000000067e-01
3.480000000000000000e+02,4.486229999999999940e-01
3.490000000000000000e+02,4.486165599999999976e-01
3.500000000000000000e+02,4.486103399999999963e-01
3.510000000000000000e+02,4.486042900000000166e-01
3.520000000000000000e+02,4.485984399999999872e-01
3.530000000000000000e+02,4.485927499999999846e-01
3.540000000000000000e+02,4.485872399999999982e-01
3.550000000000000000e+02,4.485818999999999779e-01
3.560000000000000000e+02,4.485767199999999844e-01
3.570000000000000000e+02,4.485716799999999727e-01
3.580000000000000000e+02,4.485667899999999930e-01
3.590000000000000000e+02,4.485620300000000005e-01
3.600000000000000000e+02,4.485574099999999897e-01
3.610000000000000000e+02,4.485529400000000111e-01
3.620000000000000000e+02,4.485485900000000248e-01
3.630000000000000000e+02,4.485443199999999964e-01
3.640000000000000000e+02,4.485402099999999947e-01
3.650000000000000000e+02,4.485362199999999855e-01
3.660000000000000000e+02,4.485323099999999896e-01
3.670000000000000000e+02,4.485285299999999808e-01
3.680000000000000000e+02,4.485248299999999855e-01
3.690000000000000000e+02,4.485212599999999772e-01
3.700000000000000000e+02,4.485177699999999823e-01
3.710000000000000000e+02,4.485143699999999956e-01
3.720000000000000000e+02,4.485110600000000169e-01
3.730000000000000000e+02,4.485078499999999857e-01
3.740000000000000000e+02,4.485046899999999837e-01
3.750000000000000000e+02,4.485016499999999740e-01
3.760000000000000000e+02,4.484986699999999882e-01
3.770000000000000000e+02,4.484957500000000263e-01
3.780000000000000000e+02,4.484929400000000066e-01
3.790000000000000000e+02,4.484901700000000213e-01
3.800000000000000000e+02,4.484874899999999887e-01
3.810000000000000000e+02,4.484848699999999799e-01
3.820000000000000000e+02,4.484823000000000004e-01
3.830000000000000000e+02,4.484797999999999840e-01
3.840000000000000000e+02,4.484773899999999758e-01
3.850000000000000000e+02,4.484750000000000125e-01
3.860000000000000000e+02,4.484726800000000124e-01
3.870000000000000000e+02,4.484704099999999860e-01
3.880000000000000000e+02,4.484682099999999783e-01
3.890000000000000000e+02,4.484660599999999997e-01
3.900000000000000000e+02,4.484639500000000001e-01
3.910000000000000000e+02,4.484618899999999742e-01
3.920000000000000000e+02,4.484598900000000277e-01
3.930000000000000000e+02,4.484579300000000046e-01
3.940000000000000000e+02,4.484559900000000265e-01
3.950000000000000000e+02,4.484541100000000169e-01
3.960000000000000000e+02,4.484522899999999757e-01
3.970000000000000000e+02,4.484505100000000244e-01
3.980000000000000000e+02,4.484487500000000071e-01
3.990000000000000000e+02,4.484470500000000137e-01
