# Time [s], Convective Heat Transfer Coefficient [W/m2K]
1.000000000000000000e+00,0.000000000000000000e+00
2.000000000000000000e+00,0.000000000000000000e+00
3.000000000000000000e+00,0.000000000000000000e+00
4.000000000000000000e+00,0.000000000000000000e+00
5.000000000000000000e+00,2.762023300960968902e-02
6.000000000000000000e+00,4.774898591629385403e-02
7.000000000000000000e+00,7.700011469006323717e-02
8.000000000000000000e+00,1.161328829941634805e-01
9.000000000000000000e+00,1.659342436612658289e-01
1.000000000000000000e+01,2.265496079000230423e-01
1.100000000000000000e+01,2.976489051320310164e-01
1.200000000000000000e+01,3.784289268352322710e-01
1.300000000000000000e+01,4.678494190107495010e-01
1.400000000000000000e+01,5.647624025670009429e-01
1.500000000000000000e+01,6.680008360753060259e-01
1.600000000000000000e+01,7.764447003636090194e-01
1.700000000000000000e+01,8.890658087610346927e-01
1.800000000000000000e+01,1.004947489911917513e+00
1.900000000000000000e+01,1.123283322281999563e+00
2.000000000000000000e+01,1.243385417469690335e+00
2.100000000000000000e+01,1.364655963949464867e+00
2.200000000000000000e+01,1.486597952256973221e+00
2.300000000000000000e+01,1.608782538150282049e+00
2.400000000000000000e+01,1.730860988941894663e+00
2.500000000000000000e+01,1.852533013025529085e+00
2.600000000000000000e+01,1.973551476085734224e+00
2.700000000000000000e+01,2.093711918192124433e+00
2.800000000000000000e+01,2.212848983739295949e+00
2.900000000000000000e+01,2.330827842245906556e+00
3.000000000000000000e+01,2.447539086020495080e+00
3.100000000000000000e+01,2.562888095742036576e+00
3.200000000000000000e+01,2.676811804177348986e+00
3.300000000000000000e+01,2.789253434668903520e+00
3.400000000000000000e+01,2.900172204048634850e+00
3.500000000000000000e+01,3.009538093478847376e+00
3.600000000000000000e+01,3.117329364961622051e+00
3.700000000000000000e+01,3.223537636769060022e+00
3.800000000000000000e+01,3.328160007068969861e+00
3.900000000000000000e+01,3.431188985428367921e+00
4.000000000000000000e+01,3.532638229714972322e+00
4.100000000000000000e+01,3.632510103323624229e+00
4.200000000000000000e+01,3.730814039931187764e+00
4.300000000000000000e+01,3.827572087574254489e+00
4.400000000000000000e+01,3.922795284945766348e+00
4.500000000000000000e+01,4.016503311436942170e+00
4.600000000000000000e+01,4.108706322884962070e+00
4.700000000000000000e+01,4.199429795362386031e+00
4.800000000000000000e+01,4.288695921401745714e+00
4.900000000000000000e+01,4.376516565725252050e+00
5.000000000000000000e+01,4.462919078572441300e+00
5.100000000000000000e+01,4.547916717633080808e+00
5.200000000000000000e+01,4.631536056057891315e+00
5.300000000000000000e+01,4.713793528827560309e+00
5.400000000000000000e+01,4.794708824315811135e+00
5.500000000000000000e+01,4.874301993012160494e+00
5.600000000000000000e+01,4.952593831965329763e+00
5.700000000000000000e+01,5.029603295161802379e+00
5.800000000000000000e+01,5.105350716994630389e+00
5.900000000000000000e+01,5.179857394267519233e+00
6.000000000000000000e+01,5.253144017647819020e+00
6.100000000000000000e+01,5.325223958194565732e+00
6.200000000000000000e+01,5.396121532936858145e+00
6.300000000000000000e+01,5.465859160529826788e+00
6.400000000000000000e+01,5.534451175662057132e+00
6.500000000000000000e+01,5.601922969298997579e+00
6.600000000000000000e+01,5.668289448321916169e+00
6.700000000000000000e+01,5.733575507563508644e+00
6.800000000000000000e+01,5.797796939483713885e+00
6.900000000000000000e+01,5.860979398611749325e+00
7.000000000000000000e+01,5.923136507991851651e+00
7.100000000000000000e+01,5.984294067392539773e+00
7.200000000000000000e+01,6.044470515344169570e+00
7.300000000000000000e+01,6.103681549140253182e+00
7.400000000000000000e+01,6.161952568150810272e+00
7.500000000000000000e+01,6.219301417449200287e+00
7.600000000000000000e+01,6.275745505321571827e+00
7.700000000000000000e+01,6.331307083144541714e+00
7.800000000000000000e+01,6.386003088740199729e+00
7.900000000000000000e+01,6.439853318202765742e+00
8.000000000000000000e+01,6.492873548173658804e+00
8.100000000000000000e+01,6.545087082632679021e+00
8.200000000000000000e+01,6.596509634907882003e+00
8.300000000000000000e+01,6.647157563994863239e+00
8.400000000000000000e+01,6.697049911064362426e+00
8.500000000000000000e+01,6.746203830571295690e+00
8.600000000000000000e+01,6.794635487403068552e+00
8.700000000000000000e+01,6.842359877080204100e+00
8.800000000000000000e+01,6.889394112848887808e+00
8.900000000000000000e+01,6.935754365428334012e+00
9.000000000000000000e+01,6.981455688204980525e+00
9.100000000000000000e+01,7.026510195430141437e+00
9.200000000000000000e+01,7.070935912155015934e+00
9.300000000000000000e+01,7.114745774484839025e+00
9.400000000000000000e+01,7.157952512145815405e+00
9.500000000000000000e+01,7.200569566333395954e+00
9.600000000000000000e+01,7.242611051336471206e+00
9.700000000000000000e+01,7.284088190089511805e+00
9.800000000000000000e+01,7.325014279681076879e+00
9.900000000000000000e+01,7.365401991051069963e+00
1.000000000000000000e+02,7.405259778203828525e+00
1.010000000000000000e+02,7.444602031836635270e+00
1.020000000000000000e+02,7.483439993862279316e+00
1.030000000000000000e+02,7.521781095848464105e+00
1.040000000000000000e+02,7.559639189984164176e+00
1.050000000000000000e+02,7.597050257949233831e+00
1.060000000000000000e+02,7.633979552551366510e+00
1.070000000000000000e+02,7.670449524682722675e+00
1.080000000000000000e+02,7.706471096553825895e+00
1.090000000000000000e+02,7.742055920451758055e+00
1.100000000000000000e+02,7.777211898589763805e+00
1.110000000000000000e+02,7.811951218687321230e+00
1.120000000000000000e+02,7.846281422472886291e+00
1.130000000000000000e+02,7.880216166854645543e+00
1.140000000000000000e+02,7.913762444080417069e+00
1.150000000000000000e+02,7.946932357336478070e+00
1.160000000000000000e+02,7.979730779730754620e+00
1.170000000000000000e+02,8.012166774685402615e+00
1.180000000000000000e+02,8.044246555708312485e+00
1.190000000000000000e+02,8.075975575566594955e+00
1.200000000000000000e+02,8.107360516306155063e+00
1.210000000000000000e+02,8.138403941516560991e+00
1.220000000000000000e+02,8.169112521735788945e+00
1.230000000000000000e+02,8.199491484797906793e+00
1.240000000000000000e+02,8.229544497553144211e+00
1.250000000000000000e+02,8.259277155284159733e+00
1.260000000000000000e+02,8.288694358078927849e+00
1.270000000000000000e+02,8.317799321437973958e+00
1.280000000000000000e+02,8.346597668236872991e+00
1.290000000000000000e+02,8.375095511557043793e+00
1.300000000000000000e+02,8.403294135150931154e+00
1.310000000000000000e+02,8.431198223977224515e+00
1.320000000000000000e+02,8.458813135277628348e+00
1.330000000000000000e+02,8.486142277343569518e+00
1.340000000000000000e+02,8.513190080203326460e+00
1.350000000000000000e+02,8.539959396153843585e+00
1.360000000000000000e+02,8.566454261394301994e+00
1.370000000000000000e+02,8.592678274938014837e+00
1.380000000000000000e+02,8.618634612734476619e+00
1.390000000000000000e+02,8.644326197679577106e+00
1.400000000000000000e+02,8.669756174874546417e+00
1.410000000000000000e+02,8.694927750904492214e+00
1.420000000000000000e+02,8.719843576915154770e+00
1.430000000000000000e+02,8.744505918030935021e+00
1.440000000000000000e+02,8.768917121264660608e+00
1.450000000000000000e+02,8.793080067797415467e+00
1.460000000000000000e+02,8.816998460041919117e+00
1.470000000000000000e+02,8.840673505235592700e+00
1.480000000000000000e+02,8.864107259907102687e+00
1.490000000000000000e+02,8.887301125621588582e+00
1.500000000000000000e+02,8.910257635475305804e+00
1.510000000000000000e+02,8.932978518368491549e+00
1.520000000000000000e+02,8.955465595448124816e+00
1.530000000000000000e+02,8.977748227747268217e+00
1.540000000000000000e+02,8.999784509695455625e+00
1.550000000000000000e+02,9.021588850370179102e+00
1.560000000000000000e+02,9.043166200465787341e+00
1.570000000000000000e+02,9.064519688379677476e+00
1.580000000000000000e+02,9.085651089451468820e+00
1.590000000000000000e+02,9.106565939421047418e+00
1.600000000000000000e+02,9.127264315951814311e+00
1.610000000000000000e+02,9.147746697807052740e+00
1.620000000000000000e+02,9.168014512757396872e+00
1.630000000000000000e+02,9.188065956832861758e+00
1.640000000000000000e+02,9.207899515726477802e+00
1.650000000000000000e+02,9.227515744877665682e+00
1.660000000000000000e+02,9.246911885942733278e+00
1.670000000000000000e+02,9.266088888428349435e+00
1.680000000000000000e+02,9.285044407808797473e+00
1.690000000000000000e+02,9.303779768851553555e+00
1.700000000000000000e+02,9.322292348444856103e+00
1.710000000000000000e+02,9.340583166665389570e+00
1.720000000000000000e+02,9.358651602638085265e+00
1.730000000000000000e+02,9.376497023588733271e+00
1.740000000000000000e+02,9.394120110985104688e+00
1.750000000000000000e+02,9.411517945900410353e+00
1.760000000000000000e+02,9.428691448371772310e+00
1.770000000000000000e+02,9.445640058937685879e+00
1.780000000000000000e+02,9.462362941514385284e+00
1.790000000000000000e+02,9.478857424259153674e+00
1.800000000000000000e+02,9.495123574760590657e+00
1.810000000000000000e+02,9.511160917419742233e+00
1.820000000000000000e+02,9.526967152470204425e+00
1.830000000000000000e+02,9.542541784727273324e+00
1.840000000000000000e+02,9.557883146151414877e+00
1.850000000000000000e+02,9.572989563483163877e+00
1.860000000000000000e+02,9.587860248706407518e+00
1.870000000000000000e+02,9.602493253318836963e+00
1.880000000000000000e+02,9.616887510237797088e+00
1.890000000000000000e+02,9.631041179101426764e+00
1.900000000000000000e+02,9.644954550925833203e+00
1.910000000000000000e+02,9.658625248568990074e+00
1.920000000000000000e+02,9.672051892485235669e+00
1.930000000000000000e+02,9.685233461836816105e+00
1.940000000000000000e+02,9.698214467604589828e+00
1.950000000000000000e+02,9.710934650920572508e+00
1.960000000000000000e+02,9.723411364556127978e+00
1.970000000000000000e+02,9.735650882194608613e+00
1.980000000000000000e+02,9.747654332892487616e+00
1.990000000000000000e+02,9.759420961168524755e+00
2.000000000000000000e+02,9.770947904304117415e+00
2.010000000000000000e+02,9.782231439393124006e+00
2.020000000000000000e+02,9.793268578205250208e+00
2.030000000000000000e+02,9.804057909639313451e+00
2.040000000000000000e+02,9.814598852008908025e+00
2.050000000000000000e+02,9.824890552042608860e+00
2.060000000000000000e+02,9.834936001943040296e+00
2.070000000000000000e+02,9.844736444563439548e+00
2.080000000000000000e+02,9.854295128577584606e+00
2.090000000000000000e+02,9.863615485151829176e+00
2.100000000000000000e+02,9.872700046725993772e+00
2.110000000000000000e+02,9.881554052981716296e+00
2.120000000000000000e+02,9.890180641271662410e+00
2.130000000000000000e+02,9.898584450782921706e+00
2.140000000000000000e+02,9.906770537915797092e+00
2.150000000000000000e+02,9.914743660304898398e+00
2.160000000000000000e+02,9.922508756743885883e+00
2.170000000000000000e+02,9.930070710221809094e+00
2.180000000000000000e+02,9.937435654143603969e+00
2.190000000000000000e+02,9.944609071246091503e+00
2.200000000000000000e+02,9.951596864216439187e+00
2.210000000000000000e+02,9.958404528481677787e+00
2.220000000000000000e+02,9.965038335781741807e+00
2.230000000000000000e+02,9.971504271401155250e+00
2.240000000000000000e+02,9.977809331404250415e+00
2.250000000000000000e+02,9.983958464926921295e+00
2.260000000000000000e+02,9.989958576621113195e+00
2.270000000000000000e+02,9.995816290631287515e+00
2.280000000000000000e+02,1.000153830519064435e+01
2.290000000000000000e+02,1.000738329308470220e+01
2.300000000000000000e+02,1.001300149685462237e+01
2.310000000000000000e+02,1.001848756233036397e+01
2.320000000000000000e+02,1.002386230795951505e+01
2.330000000000000000e+02,1.002912539002794112e+01
2.340000000000000000e+02,1.003427692425364803e+01
2.350000000000000000e+02,1.003932003857983268e+01
2.360000000000000000e+02,1.004425934998376491e+01
2.370000000000000000e+02,1.004910142161680930e+01
2.380000000000000000e+02,1.005385301736324344e+01
2.390000000000000000e+02,1.005852272191965646e+01
2.400000000000000000e+02,1.006311723452739137e+01
2.410000000000000000e+02,1.006764368857775160e+01
2.420000000000000000e+02,1.007210838131598152e+01
2.430000000000000000e+02,1.007651804655868766e+01
2.440000000000000000e+02,1.008087789528714495e+01
2.450000000000000000e+02,1.008519357936983063e+01
2.460000000000000000e+02,1.008947038520530448e+01
2.470000000000000000e+02,1.009371277611112028e+01
2.480000000000000000e+02,1.009792462571745553e+01
2.490000000000000000e+02,1.010211059714643156e+01
2.500000000000000000e+02,1.010627419157315288e+01
2.510000000000000000e+02,1.011041924191509800e+01
2.520000000000000000e+02,1.011454911064135409e+01
2.530000000000000000e+02,1.011866692046112171e+01
2.540000000000000000e+02,1.012277566961286013e+01
2.550000000000000000e+02,1.012687811827728446e+01
2.560000000000000000e+02,1.013097713173426939e+01
2.570000000000000000e+02,1.013507533807321259e+01
2.580000000000000000e+02,1.013917433207316954e+01
2.590000000000000000e+02,1.014327763756199374e+01
2.600000000000000000e+02,1.014738637958824086e+01
2.610000000000000000e+02,1.015150361060349127e+01
2.620000000000000000e+02,1.015641886667119032e+01
2.630000000000000000e+02,1.016094536199345733e+01
2.640000000000000000e+02,1.016535262050987498e+01
2.650000000000000000e+02,1.016970739100811549e+01
2.660000000000000000e+02,1.017402055016808227e+01
2.670000000000000000e+02,1.017830892542314025e+01
2.680000000000000000e+02,1.018258341624071406e+01
2.690000000000000000e+02,1.018685601341651648e+01
2.700000000000000000e+02,1.019113506079318121e+01
2.710000000000000000e+02,1.019542695972541146e+01
2.720000000000000000e+02,1.019973752733488936e+01
2.730000000000000000e+02,1.020407098694377090e+01
2.740000000000000000e+02,1.020843019927454165e+01
2.750000000000000000e+02,1.021281790263904021e+01
2.760000000000000000e+02,1.021723604049214096e+01
2.770000000000000000e+02,1.022168654898572804e+01
2.780000000000000000e+02,1.022617012553825333e+01
2.790000000000000000e+02,1.023068835914321184e+01
2.800000000000000000e+02,1.023524350287155471e+01
2.810000000000000000e+02,1.023983579139345679e+01
2.820000000000000000e+02,1.024446623842587378e+01
2.830000000000000000e+02,1.024913596453415288e+01
2.840000000000000000e+02,1.025384675323923034e+01
2.850000000000000000e+02,1.025859893442768644e+01
2.860000000000000000e+02,1.026339450259979991e+01
2.870000000000000000e+02,1.026823411134104802e+01
2.880000000000000000e+02,1.027311796686420742e+01
2.890000000000000000e+02,1.027804882202645942e+01
2.900000000000000000e+02,1.028302631802574041e+01
2.910000000000000000e+02,1.028805308216191783e+01
2.920000000000000000e+02,1.029312952021891547e+01
2.930000000000000000e+02,1.029825614518807342e+01
2.940000000000000000e+02,1.030343556149041007e+01
2.950000000000000000e+02,1.030866970043224384e+01
2.960000000000000000e+02,1.031395784261026805e+01
2.970000000000000000e+02,1.032131418982080007e+01
2.980000000000000000e+02,1.032739341792733789e+01
2.990000000000000000e+02,1.033307806102587278e+01
3.000000000000000000e+02,1.033869523714625949e+01
3.010000000000000000e+02,1.034429603272930898e+01
3.020000000000000000e+02,1.034992508349541573e+01
3.030000000000000000e+02,1.035560729144339120e+01
3.040000000000000000e+02,1.036135687137178607e+01
3.050000000000000000e+02,1.036717947716727650e+01
3.060000000000000000e+02,1.037308258360593882e+01
3.070000000000000000e+02,1.037906645572419606e+01
3.080000000000000000e+02,1.038513558628098288e+01
3.090000000000000000e+02,1.039129227446955284e+01
3.100000000000000000e+02,1.039753609689737601e+01
3.110000000000000000e+02,1.040387214300705310e+01
3.120000000000000000e+02,1.041029974758722254e+01
3.130000000000000000e+02,1.041682342166614816e+01
3.140000000000000000e+02,1.042344473907889579e+01
3.150000000000000000e+02,1.043016579781160580e+01
3.160000000000000000e+02,1.043699029087974672e+01
3.170000000000000000e+02,1.044392156354049384e+01
3.180000000000000000e+02,1.045096272201580234e+01
3.190000000000000000e+02,1.045811781170445975e+01
3.200000000000000000e+02,1.046538903105173013e+01
3.210000000000000000e+02,1.047277909167739196e+01
3.220000000000000000e+02,1.048029707588228376e+01
3.230000000000000000e+02,1.048794476761503347e+01
3.240000000000000000e+02,1.049572605538421399e+01
3.250000000000000000e+02,1.050364606707769610e+01
3.260000000000000000e+02,1.051170967620827490e+01
3.270000000000000000e+02,1.051992361792961184e+01
3.280000000000000000e+02,1.052829330457516832e+01
3.290000000000000000e+02,1.053682578648549395e+01
3.300000000000000000e+02,1.054552584204593835e+01
3.310000000000000000e+02,1.055440093342460628e+01
3.320000000000000000e+02,1.056345792984789433e+01
3.330000000000000000e+02,1.057270583285250254e+01
3.340000000000000000e+02,1.058215105060419070e+01
3.350000000000000000e+02,1.059180430471492151e+01
3.360000000000000000e+02,1.060167069321405542e+01
3.370000000000000000e+02,1.061176460460438342e+01
3.380000000000000000e+02,1.062660320997217056e+01
3.390000000000000000e+02,1.063798008458735289e+01
3.400000000000000000e+02,1.064878888511826815e+01
3.410000000000000000e+02,1.065983230607088750e+01
3.420000000000000000e+02,1.067113775577196222e+01
3.430000000000000000e+02,1.068277904338241058e+01
3.440000000000000000e+02,1.069474167011490806e+01
3.450000000000000000e+02,1.070705684576481076e+01
3.460000000000000000e+02,1.071972649230156449e+01
3.470000000000000000e+02,1.073276971369387311e+01
3.480000000000000000e+02,1.074619926522967717e+01
3.490000000000000000e+02,1.076003415778324701e+01
3.500000000000000000e+02,1.077429543048779514e+01
3.510000000000000000e+02,1.078899947000400594e+01
3.520000000000000000e+02,1.080417209700934578e+01
3.530000000000000000e+02,1.081983601571428544e+01
3.540000000000000000e+02,1.083601362702746762e+01
3.550000000000000000e+02,1.085273764476514380e+01
3.560000000000000000e+02,1.087003218359628320e+01
3.570000000000000000e+02,1.088792757686582213e+01
3.580000000000000000e+02,1.090645463332378817e+01
3.590000000000000000e+02,1.092564821979635958e+01
3.600000000000000000e+02,1.094553747432611068e+01
3.610000000000000000e+02,1.096615686577406379e+01
3.620000000000000000e+02,1.098753887299447207e+01
3.630000000000000000e+02,1.100971744967543131e+01
3.640000000000000000e+02,1.103272342230770953e+01
3.650000000000000000e+02,1.105658651244769786e+01
3.660000000000000000e+02,1.108133111359053125e+01
3.670000000000000000e+02,1.110697455762726094e+01
3.680000000000000000e+02,1.113353148669011894e+01
3.690000000000000000e+02,1.116100232570892814e+01
3.700000000000000000e+02,1.118937641670749450e+01
3.710000000000000000e+02,1.121862216335159523e+01
3.720000000000000000e+02,1.124869028634355494e+01
3.730000000000000000e+02,1.127950478445619353e+01
3.740000000000000000e+02,1.131096438994751274e+01
3.750000000000000000e+02,1.134293337476660568e+01
3.760000000000000000e+02,1.137524300982490111e+01
3.770000000000000000e+02,1.140769874512894155e+01
3.780000000000000000e+02,1.144008381484878889e+01
3.790000000000000000e+02,1.147217093487177308e+01
3.800000000000000000e+02,1.150374352218186758e+01
3.810000000000000000e+02,1.153461402234152544e+01
3.820000000000000000e+02,1.156463529758606334e+01
3.830000000000000000e+02,1.159371671464173303e+01
3.840000000000000000e+02,1.162181806020594799e+01
3.850000000000000000e+02,1.164894417053640119e+01
3.860000000000000000e+02,1.167513045797891635e+01
3.870000000000000000e+02,1.170043566956412029e+01
3.880000000000000000e+02,1.172491726488023822e+01
3.890000000000000000e+02,1.174864127017042925e+01
3.900000000000000000e+02,1.177166655176034382e+01
3.910000000000000000e+02,1.179404670765905117e+01
3.920000000000000000e+02,1.181582972123077191e+01
3.930000000000000000e+02,1.183705593972809567e+01
3.940000000000000000e+02,1.185776224517396393e+01
3.950000000000000000e+02,1.187797973958366526e+01
3.960000000000000000e+02,1.189773494356015426e+01
3.970000000000000000e+02,1.191705220034072710e+01
3.980000000000000000e+02,1.193595274183648058e+01
