# Time [s], Temperature [C]
1.000000000000000000e+00,2.499997099999999861e+01
2.000000000000000000e+00,6.858773800000000165e+01
3.000000000000000000e+00,9.232891100000000506e+01
4.000000000000000000e+00,1.116049299999999960e+02
5.000000000000000000e+00,1.275277600000000007e+02
6.000000000000000000e+00,1.414372999999999934e+02
7.000000000000000000e+00,1.538151699999999948e+02
8.000000000000000000e+00,1.650338299999999947e+02
9.000000000000000000e+00,1.753163900000000126e+02
1.000000000000000000e+01,1.848288900000000012e+02
1.100000000000000000e+01,1.936914800000000128e+02
1.200000000000000000e+01,2.019971500000000049e+02
1.300000000000000000e+01,2.098170000000000073e+02
1.400000000000000000e+01,2.172100199999999859e+02
1.500000000000000000e+01,2.242253000000000043e+02
1.600000000000000000e+01,2.309019299999999930e+02
1.700000000000000000e+01,2.372778900000000135e+02
1.800000000000000000e+01,2.433843200000000024e+02
1.900000000000000000e+01,2.492487600000000043e+02
2.000000000000000000e+01,2.548965499999999906e+02
2.100000000000000000e+01,2.603436899999999810e+02
2.200000000000000000e+01,2.656032099999999900e+02
2.300000000000000000e+01,2.706791400000000181e+02
2.400000000000000000e+01,2.755682699999999841e+02
2.500000000000000000e+01,2.802703200000000265e+02
2.600000000000000000e+01,2.847849699999999871e+02
2.700000000000000000e+01,2.891110800000000154e+02
2.800000000000000000e+01,2.932558300000000031e+02
2.900000000000000000e+01,2.972254300000000171e+02
3.000000000000000000e+01,3.010198399999999879e+02
3.100000000000000000e+01,3.046420600000000150e+02
3.200000000000000000e+01,3.080982099999999946e+02
3.300000000000000000e+01,3.113859899999999925e+02
3.400000000000000000e+01,3.145048499999999763e+02
3.500000000000000000e+01,3.174630999999999972e+02
3.600000000000000000e+01,3.202551300000000083e+02
3.700000000000000000e+01,3.228847000000000094e+02
3.800000000000000000e+01,3.253635899999999879e+02
3.900000000000000000e+01,3.276885100000000079e+02
4.000000000000000000e+01,3.298692599999999970e+02
4.100000000000000000e+01,3.319267899999999827e+02
4.200000000000000000e+01,3.338510400000000118e+02
4.300000000000000000e+01,3.356631199999999922e+02
4.400000000000000000e+01,3.373865400000000250e+02
4.500000000000000000e+01,3.390094599999999900e+02
4.600000000000000000e+01,3.405522199999999771e+02
4.700000000000000000e+01,3.420410800000000222e+02
4.800000000000000000e+01,3.434552899999999909e+02
4.900000000000000000e+01,3.448205600000000004e+02
5.000000000000000000e+01,3.461614999999999895e+02
5.100000000000000000e+01,3.474447900000000118e+02
5.200000000000000000e+01,3.487011100000000283e+02
5.300000000000000000e+01,3.499549600000000282e+02
5.400000000000000000e+01,3.511245999999999867e+02
5.500000000000000000e+01,3.489261500000000069e+02
5.600000000000000000e+01,3.505964999999999918e+02
5.700000000000000000e+01,3.514451599999999871e+02
5.800000000000000000e+01,3.526581699999999842e+02
5.900000000000000000e+01,3.537791700000000219e+02
6.000000000000000000e+01,3.549296299999999746e+02
6.100000000000000000e+01,3.560594500000000266e+02
6.200000000000000000e+01,3.572269600000000196e+02
6.300000000000000000e+01,3.583581199999999853e+02
6.400000000000000000e+01,3.594917599999999993e+02
6.500000000000000000e+01,3.606544200000000160e+02
6.600000000000000000e+01,3.617836599999999976e+02
6.700000000000000000e+01,3.629137600000000248e+02
6.800000000000000000e+01,3.640760500000000093e+02
6.900000000000000000e+01,3.651977200000000039e+02
7.000000000000000000e+01,3.663193999999999733e+02
7.100000000000000000e+01,3.674721400000000244e+02
7.200000000000000000e+01,3.685839500000000157e+02
7.300000000000000000e+01,3.696961099999999760e+02
7.400000000000000000e+01,3.708334699999999771e+02
7.500000000000000000e+01,3.719287400000000048e+02
7.600000000000000000e+01,3.730202300000000264e+02
7.700000000000000000e+01,3.741441699999999742e+02
7.800000000000000000e+01,3.752151499999999942e+02
7.900000000000000000e+01,3.762860099999999761e+02
8.000000000000000000e+01,3.773821699999999737e+02
8.100000000000000000e+01,3.784363700000000108e+02
8.200000000000000000e+01,3.794813199999999824e+02
8.300000000000000000e+01,3.805554500000000075e+02
8.400000000000000000e+01,3.815873700000000213e+02
8.500000000000000000e+01,3.826141400000000203e+02
8.600000000000000000e+01,3.836697100000000091e+02
8.700000000000000000e+01,3.846775499999999965e+02
8.800000000000000000e+01,3.856870099999999866e+02
8.900000000000000000e+01,3.867235999999999763e+02
9.000000000000000000e+01,3.877198500000000081e+02
9.100000000000000000e+01,3.887182900000000245e+02
9.200000000000000000e+01,3.897333399999999983e+02
9.300000000000000000e+01,3.907221099999999865e+02
9.400000000000000000e+01,3.917048300000000154e+02
9.500000000000000000e+01,3.927151499999999942e+02
9.600000000000000000e+01,3.936845099999999888e+02
9.700000000000000000e+01,3.946626899999999978e+02
9.800000000000000000e+01,3.956535000000000082e+02
9.900000000000000000e+01,3.966231399999999780e+02
1.000000000000000000e+02,3.975811199999999985e+02
1.010000000000000000e+02,3.985696699999999737e+02
1.020000000000000000e+02,3.995217000000000098e+02
1.030000000000000000e+02,4.004717699999999923e+02
1.040000000000000000e+02,4.014455899999999815e+02
1.050000000000000000e+02,4.023836400000000140e+02
1.060000000000000000e+02,4.033333099999999831e+02
1.070000000000000000e+02,4.042850999999999999e+02
1.080000000000000000e+02,4.052150300000000129e+02
1.090000000000000000e+02,4.061510900000000106e+02
1.100000000000000000e+02,4.070892600000000243e+02
1.110000000000000000e+02,4.080124500000000012e+02
1.120000000000000000e+02,4.096268900000000031e+02
1.130000000000000000e+02,4.033436599999999999e+02
1.140000000000000000e+02,4.047272600000000011e+02
1.150000000000000000e+02,4.047738600000000133e+02
1.160000000000000000e+02,4.058736299999999915e+02
1.170000000000000000e+02,4.066548799999999915e+02
1.180000000000000000e+02,4.076741599999999721e+02
1.190000000000000000e+02,4.086277499999999918e+02
1.200000000000000000e+02,4.096220700000000079e+02
1.210000000000000000e+02,4.105929300000000239e+02
1.220000000000000000e+02,4.115817599999999743e+02
1.230000000000000000e+02,4.125571899999999914e+02
1.240000000000000000e+02,4.135247499999999832e+02
1.250000000000000000e+02,4.144888599999999883e+02
1.260000000000000000e+02,4.154477200000000039e+02
1.270000000000000000e+02,4.163877299999999764e+02
1.280000000000000000e+02,4.173352100000000178e+02
1.290000000000000000e+02,4.182685200000000236e+02
1.300000000000000000e+02,4.191871300000000247e+02
1.310000000000000000e+02,4.201104399999999828e+02
1.320000000000000000e+02,4.210231600000000185e+02
1.330000000000000000e+02,4.219200999999999908e+02
1.340000000000000000e+02,4.228268100000000231e+02
1.350000000000000000e+02,4.237154199999999946e+02
1.360000000000000000e+02,4.245981100000000197e+02
1.370000000000000000e+02,4.254806199999999876e+02
1.380000000000000000e+02,4.263563199999999824e+02
1.390000000000000000e+02,4.272224400000000060e+02
1.400000000000000000e+02,4.280906100000000265e+02
1.410000000000000000e+02,4.289405499999999734e+02
1.420000000000000000e+02,4.297974899999999820e+02
1.430000000000000000e+02,4.306438600000000179e+02
1.440000000000000000e+02,4.314880699999999933e+02
1.450000000000000000e+02,4.323277899999999931e+02
1.460000000000000000e+02,4.331602199999999812e+02
1.470000000000000000e+02,4.339908399999999915e+02
1.480000000000000000e+02,4.348115500000000111e+02
1.490000000000000000e+02,4.356341899999999896e+02
1.500000000000000000e+02,4.364461400000000140e+02
1.510000000000000000e+02,4.372547900000000141e+02
1.520000000000000000e+02,4.380629000000000133e+02
1.530000000000000000e+02,4.388657200000000103e+02
1.540000000000000000e+02,4.396592699999999923e+02
1.550000000000000000e+02,4.404545299999999770e+02
1.560000000000000000e+02,4.412441099999999778e+02
1.570000000000000000e+02,4.420289300000000026e+02
1.580000000000000000e+02,4.428061799999999835e+02
1.590000000000000000e+02,4.428313899999999990e+02
1.600000000000000000e+02,4.431864600000000110e+02
1.610000000000000000e+02,4.436756899999999746e+02
1.620000000000000000e+02,4.443215599999999768e+02
1.630000000000000000e+02,4.450018000000000029e+02
1.640000000000000000e+02,4.457369100000000230e+02
1.650000000000000000e+02,4.464807400000000257e+02
1.660000000000000000e+02,4.472421600000000126e+02
1.670000000000000000e+02,4.480026899999999728e+02
1.680000000000000000e+02,4.487720899999999915e+02
1.690000000000000000e+02,4.495386700000000246e+02
1.700000000000000000e+02,4.503049300000000130e+02
1.710000000000000000e+02,4.510668000000000006e+02
1.720000000000000000e+02,4.518192399999999793e+02
1.730000000000000000e+02,4.525729400000000169e+02
1.740000000000000000e+02,4.533240700000000061e+02
1.750000000000000000e+02,4.540651899999999728e+02
1.760000000000000000e+02,4.548041099999999801e+02
1.770000000000000000e+02,4.555330500000000029e+02
1.780000000000000000e+02,4.562604699999999980e+02
1.790000000000000000e+02,4.569833100000000172e+02
1.800000000000000000e+02,4.577023599999999988e+02
1.810000000000000000e+02,4.584188800000000015e+02
1.820000000000000000e+02,4.591261299999999892e+02
1.830000000000000000e+02,4.598315099999999802e+02
1.840000000000000000e+02,4.605298500000000104e+02
1.850000000000000000e+02,4.612284500000000094e+02
1.860000000000000000e+02,4.619176299999999742e+02
1.870000000000000000e+02,4.626033300000000281e+02
1.880000000000000000e+02,4.632848799999999869e+02
1.890000000000000000e+02,4.639667699999999968e+02
1.900000000000000000e+02,4.646382800000000088e+02
1.910000000000000000e+02,4.653078899999999862e+02
1.920000000000000000e+02,4.659744900000000030e+02
1.930000000000000000e+02,4.666339399999999955e+02
1.940000000000000000e+02,4.672920799999999986e+02
1.950000000000000000e+02,4.679480300000000170e+02
1.960000000000000000e+02,4.685938699999999812e+02
1.970000000000000000e+02,4.692383100000000127e+02
1.980000000000000000e+02,4.695623199999999997e+02
1.990000000000000000e+02,4.699992399999999861e+02
2.000000000000000000e+02,4.705691800000000171e+02
2.010000000000000000e+02,4.710837099999999964e+02
2.020000000000000000e+02,4.716605500000000006e+02
2.030000000000000000e+02,4.722368799999999851e+02
2.040000000000000000e+02,4.728270299999999793e+02
2.050000000000000000e+02,4.734250200000000177e+02
2.060000000000000000e+02,4.740262500000000045e+02
2.070000000000000000e+02,4.746382800000000088e+02
2.080000000000000000e+02,4.752411799999999857e+02
2.090000000000000000e+02,4.758510999999999740e+02
2.100000000000000000e+02,4.764533999999999878e+02
2.110000000000000000e+02,4.770640300000000025e+02
2.120000000000000000e+02,4.776616500000000087e+02
2.130000000000000000e+02,4.782594900000000280e+02
2.140000000000000000e+02,4.788562600000000202e+02
2.150000000000000000e+02,4.794500100000000202e+02
2.160000000000000000e+02,4.800400399999999763e+02
2.170000000000000000e+02,4.806213700000000131e+02
2.180000000000000000e+02,4.812057500000000232e+02
2.190000000000000000e+02,4.817867100000000278e+02
2.200000000000000000e+02,4.823577900000000227e+02
2.210000000000000000e+02,4.829300499999999943e+02
2.220000000000000000e+02,4.834961500000000001e+02
2.230000000000000000e+02,4.840601500000000215e+02
2.240000000000000000e+02,4.846154500000000098e+02
2.250000000000000000e+02,4.851761200000000258e+02
2.260000000000000000e+02,4.857273599999999760e+02
2.270000000000000000e+02,4.862741700000000264e+02
2.280000000000000000e+02,4.868233299999999986e+02
2.290000000000000000e+02,4.873595300000000066e+02
2.300000000000000000e+02,4.879025899999999751e+02
2.310000000000000000e+02,4.883638300000000072e+02
2.320000000000000000e+02,4.887630300000000148e+02
2.330000000000000000e+02,4.892140200000000050e+02
2.340000000000000000e+02,4.896738899999999717e+02
2.350000000000000000e+02,4.901415999999999826e+02
2.360000000000000000e+02,4.906205699999999865e+02
2.370000000000000000e+02,4.910982999999999947e+02
2.380000000000000000e+02,4.915865200000000073e+02
2.390000000000000000e+02,4.920681500000000028e+02
2.400000000000000000e+02,4.925620700000000056e+02
2.410000000000000000e+02,4.930498000000000047e+02
2.420000000000000000e+02,4.935431500000000256e+02
2.430000000000000000e+02,4.940356400000000008e+02
2.440000000000000000e+02,4.945204499999999825e+02
2.450000000000000000e+02,4.950118100000000254e+02
2.460000000000000000e+02,4.954956399999999803e+02
2.470000000000000000e+02,4.959824800000000096e+02
2.480000000000000000e+02,4.964603299999999990e+02
2.490000000000000000e+02,4.969451599999999871e+02
2.500000000000000000e+02,4.974234900000000152e+02
2.510000000000000000e+02,4.978986800000000130e+02
2.520000000000000000e+02,4.983733500000000163e+02
2.530000000000000000e+02,4.988387500000000045e+02
2.540000000000000000e+02,4.993113099999999918e+02
2.550000000000000000e+02,4.997767900000000054e+02
2.560000000000000000e+02,5.002380999999999744e+02
2.570000000000000000e+02,5.006999500000000012e+02
2.580000000000000000e+02,5.011589099999999917e+02
2.590000000000000000e+02,5.016095300000000066e+02
2.600000000000000000e+02,5.020660399999999868e+02
2.610000000000000000e+02,5.025168499999999767e+02
2.620000000000000000e+02,5.029626200000000154e+02
2.630000000000000000e+02,5.033897699999999986e+02
2.640000000000000000e+02,5.037637899999999718e+02
2.650000000000000000e+02,5.041462700000000154e+02
2.660000000000000000e+02,5.045415300000000229e+02
2.670000000000000000e+02,5.049346300000000269e+02
2.680000000000000000e+02,5.053360299999999938e+02
2.690000000000000000e+02,5.057398400000000152e+02
2.700000000000000000e+02,5.061450800000000072e+02
2.710000000000000000e+02,5.065537100000000237e+02
2.720000000000000000e+02,5.069625899999999774e+02
2.730000000000000000e+02,5.073693200000000161e+02
2.740000000000000000e+02,5.077796599999999785e+02
2.750000000000000000e+02,5.081907699999999863e+02
2.760000000000000000e+02,5.086029399999999896e+02
2.770000000000000000e+02,5.090132800000000088e+02
2.780000000000000000e+02,5.094205900000000042e+02
2.790000000000000000e+02,5.098298300000000154e+02
2.800000000000000000e+02,5.102377599999999802e+02
2.810000000000000000e+02,5.106472499999999854e+02
2.820000000000000000e+02,5.110537100000000237e+02
2.830000000000000000e+02,5.114551700000000096e+02
2.840000000000000000e+02,5.118580299999999852e+02
2.850000000000000000e+02,5.122626299999999446e+02
2.860000000000000000e+02,5.126639400000000251e+02
2.870000000000000000e+02,5.130666499999999814e+02
2.880000000000000000e+02,5.134625899999999774e+02
2.890000000000000000e+02,5.138610200000000532e+02
2.900000000000000000e+02,5.142592200000000275e+02
2.910000000000000000e+02,5.146545999999999594e+02
2.920000000000000000e+02,5.150490700000000288e+02
2.930000000000000000e+02,5.154440899999999601e+02
2.940000000000000000e+02,5.158327600000000075e+02
2.950000000000000000e+02,5.162240600000000086e+02
2.960000000000000000e+02,5.166181000000000267e+02
2.970000000000000000e+02,5.170049999999999955e+02
2.980000000000000000e+02,5.173878200000000334e+02
2.990000000000000000e+02,5.177501800000000003e+02
3.000000000000000000e+02,5.181025399999999763e+02
3.010000000000000000e+02,5.184549600000000282e+02
3.020000000000000000e+02,5.188119500000000244e+02
3.030000000000000000e+02,5.191700399999999718e+02
3.040000000000000000e+02,5.195312500000000000e+02
3.050000000000000000e+02,5.198920900000000529e+02
3.060000000000000000e+02,5.202560999999999467e+02
3.070000000000000000e+02,5.206216399999999567e+02
3.080000000000000000e+02,5.209907200000000103e+02
3.090000000000000000e+02,5.213635900000000447e+02
3.100000000000000000e+02,5.217330899999999474e+02
3.110000000000000000e+02,5.221062600000000202e+02
3.120000000000000000e+02,5.224804699999999684e+02
3.130000000000000000e+02,5.228557100000000446e+02
3.140000000000000000e+02,5.232318099999999959e+02
3.150000000000000000e+02,5.236083399999999983e+02
3.160000000000000000e+02,5.239866299999999910e+02
3.170000000000000000e+02,5.243620600000000422e+02
3.180000000000000000e+02,5.247415799999999990e+02
3.190000000000000000e+02,5.251226799999999457e+02
3.200000000000000000e+02,5.255053100000000086e+02
3.210000000000000000e+02,5.258878799999999956e+02
3.220000000000000000e+02,5.262712400000000343e+02
3.230000000000000000e+02,5.266577099999999518e+02
3.240000000000000000e+02,5.270434599999999818e+02
3.250000000000000000e+02,5.274274900000000343e+02
3.260000000000000000e+02,5.278176899999999705e+02
3.270000000000000000e+02,5.282073400000000447e+02
3.280000000000000000e+02,5.285986900000000333e+02
3.290000000000000000e+02,5.289931599999999889e+02
3.300000000000000000e+02,5.293879399999999578e+02
3.310000000000000000e+02,5.297846700000000055e+02
3.320000000000000000e+02,5.301815800000000536e+02
3.330000000000000000e+02,5.305821499999999560e+02
3.340000000000000000e+02,5.309855999999999767e+02
3.350000000000000000e+02,5.313932499999999663e+02
3.360000000000000000e+02,5.318015699999999697e+02
3.370000000000000000e+02,5.322098999999999478e+02
3.380000000000000000e+02,5.326251800000000003e+02
3.390000000000000000e+02,5.330422399999999925e+02
3.400000000000000000e+02,5.334628300000000536e+02
3.410000000000000000e+02,5.338813499999999976e+02
3.420000000000000000e+02,5.342925999999999931e+02
3.430000000000000000e+02,5.347078900000000203e+02
3.440000000000000000e+02,5.351281699999999546e+02
3.450000000000000000e+02,5.355547500000000127e+02
3.460000000000000000e+02,5.359836400000000367e+02
3.470000000000000000e+02,5.364224199999999882e+02
3.480000000000000000e+02,5.368673700000000508e+02
3.490000000000000000e+02,5.373172600000000330e+02
3.500000000000000000e+02,5.377762500000000045e+02
3.510000000000000000e+02,5.382446300000000292e+02
3.520000000000000000e+02,5.387175300000000107e+02
3.530000000000000000e+02,5.392028199999999742e+02
3.540000000000000000e+02,5.396945799999999736e+02
3.550000000000000000e+02,5.401945799999999736e+02
3.560000000000000000e+02,5.407051999999999907e+02
3.570000000000000000e+02,5.412250400000000354e+02
3.580000000000000000e+02,5.417559800000000223e+02
3.590000000000000000e+02,5.422950399999999718e+02
3.600000000000000000e+02,5.428486299999999574e+02
3.610000000000000000e+02,5.434133299999999736e+02
3.620000000000000000e+02,5.439871200000000044e+02
3.630000000000000000e+02,5.445761099999999715e+02
3.640000000000000000e+02,5.451773699999999963e+02
3.650000000000000000e+02,5.457953499999999849e+02
3.660000000000000000e+02,5.464224900000000389e+02
3.670000000000000000e+02,5.470692099999999982e+02
3.680000000000000000e+02,5.477278400000000147e+02
3.690000000000000000e+02,5.484068600000000515e+02
3.700000000000000000e+02,5.491028400000000147e+02
3.710000000000000000e+02,5.498151900000000296e+02
3.720000000000000000e+02,5.505487100000000282e+02
3.730000000000000000e+02,5.513007199999999557e+02
3.740000000000000000e+02,5.520743999999999687e+02
3.750000000000000000e+02,5.528670700000000124e+02
3.760000000000000000e+02,5.536843900000000076e+02
3.770000000000000000e+02,5.545237399999999752e+02
3.780000000000000000e+02,5.553837899999999763e+02
3.790000000000000000e+02,5.562695899999999938e+02
3.800000000000000000e+02,5.571771899999999960e+02
3.810000000000000000e+02,5.581066299999999956e+02
3.820000000000000000e+02,5.590568799999999783e+02
3.830000000000000000e+02,5.600346100000000433e+02
3.840000000000000000e+02,5.610253900000000158e+02
3.850000000000000000e+02,5.620397299999999632e+02
3.860000000000000000e+02,5.630658600000000433e+02
3.870000000000000000e+02,5.641095000000000255e+02
3.880000000000000000e+02,5.651608899999999949e+02
3.890000000000000000e+02,5.662271700000000010e+02
3.900000000000000000e+02,5.672922999999999547e+02
3.910000000000000000e+02,5.683674300000000130e+02
3.920000000000000000e+02,5.694431200000000217e+02
3.930000000000000000e+02,5.705209999999999582e+02
3.940000000000000000e+02,5.715926500000000487e+02
3.950000000000000000e+02,5.726644300000000385e+02
3.960000000000000000e+02,5.737276600000000144e+02
3.970000000000000000e+02,5.747823499999999513e+02
3.980000000000000000e+02,5.758325800000000072e+02
3.990000000000000000e+02,5.768724999999999454e+02
