# Time [s], Thickness [m]
1.000000000000000000e+00,8.000000400000000303e-03
2.000000000000000000e+00,8.000000400000000303e-03
3.000000000000000000e+00,8.000000400000000303e-03
4.000000000000000000e+00,8.000000400000000303e-03
5.000000000000000000e+00,8.000000400000000303e-03
6.000000000000000000e+00,8.000000400000000303e-03
7.000000000000000000e+00,8.000000400000000303e-03
8.000000000000000000e+00,8.000000400000000303e-03
9.000000000000000000e+00,7.999999400000000829e-03
1.000000000000000000e+01,7.999999400000000829e-03
1.100000000000000000e+01,7.999999400000000829e-03
1.200000000000000000e+01,7.999999400000000829e-03
1.300000000000000000e+01,7.999998499999999221e-03
1.400000000000000000e+01,7.999996699999999475e-03
1.500000000000000000e+01,7.999994800000000128e-03
1.600000000000000000e+01,7.999991999999999173e-03
1.700000000000000000e+01,7.999987300000000606e-03
1.800000000000000000e+01,7.999979900000000685e-03
1.900000000000000000e+01,7.999968700000000335e-03
2.000000000000000000e+01,7.999953799999999157e-03
2.100000000000000000e+01,7.999931499999999793e-03
2.200000000000000000e+01,7.999901699999999172e-03
2.300000000000000000e+01,7.999859800000000062e-03
2.400000000000000000e+01,7.999803899999999648e-03
2.500000000000000000e+01,7.999728399999999490e-03
2.600000000000000000e+01,7.999629700000000093e-03
2.700000000000000000e+01,7.999502099999999949e-03
2.800000000000000000e+01,7.999337299999999262e-03
2.900000000000000000e+01,7.999128700000000119e-03
3.000000000000000000e+01,7.998866999999999783e-03
3.100000000000000000e+01,7.998541899999999510e-03
3.200000000000000000e+01,7.998144299999999235e-03
3.300000000000000000e+01,7.997660000000000186e-03
3.400000000000000000e+01,7.997078799999999751e-03
3.500000000000000000e+01,7.996387799999999171e-03
3.600000000000000000e+01,7.995572899999999275e-03
3.700000000000000000e+01,7.994624800000000794e-03
3.800000000000000000e+01,7.993531400000000037e-03
3.900000000000000000e+01,7.992278800000000502e-03
4.000000000000000000e+01,7.990863200000000027e-03
4.100000000000000000e+01,7.989279000000000172e-03
4.200000000000000000e+01,7.987509500000000012e-03
4.300000000000000000e+01,7.985562099999999469e-03
4.400000000000000000e+01,7.983437700000000151e-03
4.500000000000000000e+01,7.981116899999999778e-03
4.600000000000000000e+01,7.978616299999999675e-03
4.700000000000000000e+01,7.975947100000000192e-03
4.800000000000000000e+01,7.973074900000000007e-03
4.900000000000000000e+01,7.970035099999999914e-03
5.000000000000000000e+01,7.966839700000000538e-03
5.100000000000000000e+01,7.963442200000000332e-03
5.200000000000000000e+01,7.959891099999999789e-03
5.300000000000000000e+01,7.956202100000000360e-03
5.400000000000000000e+01,7.952311099999999702e-03
5.500000000000000000e+01,7.948281200000000685e-03
5.600000000000000000e+01,7.944129399999999563e-03
5.700000000000000000e+01,7.939775499999999347e-03
5.800000000000000000e+01,7.935296700000000342e-03
5.900000000000000000e+01,7.930710000000000537e-03
6.000000000000000000e+01,7.925920200000000429e-03
6.100000000000000000e+01,7.921016799999999747e-03
6.200000000000000000e+01,7.916017399999999288e-03
6.300000000000000000e+01,7.910814099999999988e-03
6.400000000000000000e+01,7.905505599999999508e-03
6.500000000000000000e+01,7.900111399999999728e-03
6.600000000000000000e+01,7.894512299999999899e-03
6.700000000000000000e+01,7.888815400000000547e-03
6.800000000000000000e+01,7.883040200000000081e-03
6.900000000000000000e+01,7.877063899999999994e-03
7.000000000000000000e+01,7.870991699999999730e-03
7.100000000000000000e+01,7.864849599999999483e-03
7.200000000000000000e+01,7.858511099999999916e-03
7.300000000000000000e+01,7.852080299999999666e-03
7.400000000000000000e+01,7.845585199999999607e-03
7.500000000000000000e+01,7.838901100000000149e-03
7.600000000000000000e+01,7.832127600000000564e-03
7.700000000000000000e+01,7.825296400000000818e-03
7.800000000000000000e+01,7.818288200000000562e-03
7.900000000000000000e+01,7.811192399999999925e-03
8.000000000000000000e+01,7.804044500000000169e-03
8.100000000000000000e+01,7.796735499999999687e-03
8.200000000000000000e+01,7.789341699999999778e-03
8.300000000000000000e+01,7.781901400000000059e-03
8.400000000000000000e+01,7.774316699999999671e-03
8.500000000000000000e+01,7.766651500000000020e-03
8.600000000000000000e+01,7.758945199999999799e-03
8.700000000000000000e+01,7.751112299999999775e-03
8.800000000000000000e+01,7.743204499999999796e-03
8.900000000000000000e+01,7.735258899999999938e-03
9.000000000000000000e+01,7.727204399999999807e-03
9.100000000000000000e+01,7.719080399999999828e-03
9.200000000000000000e+01,7.710922499999999999e-03
9.300000000000000000e+01,7.700707799999999617e-03
9.400000000000000000e+01,7.691501199999999962e-03
9.500000000000000000e+01,7.682737900000000120e-03
9.600000000000000000e+01,7.674162699999999802e-03
9.700000000000000000e+01,7.665718400000000321e-03
9.800000000000000000e+01,7.657326300000000426e-03
9.900000000000000000e+01,7.648900200000000212e-03
1.000000000000000000e+02,7.640440899999999952e-03
1.010000000000000000e+02,7.631968200000000327e-03
1.020000000000000000e+02,7.623432200000000367e-03
1.030000000000000000e+02,7.614848700000000255e-03
1.040000000000000000e+02,7.606238599999999746e-03
1.050000000000000000e+02,7.597569400000000334e-03
1.060000000000000000e+02,7.588852200000000166e-03
1.070000000000000000e+02,7.580106599999999854e-03
1.080000000000000000e+02,7.571308900000000425e-03
1.090000000000000000e+02,7.562467399999999937e-03
1.100000000000000000e+02,7.553598400000000046e-03
1.110000000000000000e+02,7.544684200000000354e-03
1.120000000000000000e+02,7.535730499999999769e-03
1.130000000000000000e+02,7.526751600000000132e-03
1.140000000000000000e+02,7.517734100000000343e-03
1.150000000000000000e+02,7.508681199999999757e-03
1.160000000000000000e+02,7.499605000000000334e-03
1.170000000000000000e+02,7.490495699999999597e-03
1.180000000000000000e+02,7.481354800000000228e-03
1.190000000000000000e+02,7.472191900000000296e-03
1.200000000000000000e+02,7.463000699999999821e-03
1.210000000000000000e+02,7.453781999999999942e-03
1.220000000000000000e+02,7.444542400000000310e-03
1.230000000000000000e+02,7.435277100000000153e-03
1.240000000000000000e+02,7.425986699999999677e-03
1.250000000000000000e+02,7.416677699999999797e-03
1.260000000000000000e+02,7.407345299999999744e-03
1.270000000000000000e+02,7.397989699999999585e-03
1.280000000000000000e+02,7.388615000000000287e-03
1.290000000000000000e+02,7.379219400000000366e-03
1.300000000000000000e+02,7.369802800000000223e-03
1.310000000000000000e+02,7.360367999999999945e-03
1.320000000000000000e+02,7.350914200000000127e-03
1.330000000000000000e+02,7.341440299999999961e-03
1.340000000000000000e+02,7.331949200000000000e-03
1.350000000000000000e+02,7.321862999999999636e-03
1.360000000000000000e+02,7.311871699999999974e-03
1.370000000000000000e+02,7.301984800000000352e-03
1.380000000000000000e+02,7.292183100000000293e-03
1.390000000000000000e+02,7.282438199999999653e-03
1.400000000000000000e+02,7.272730600000000024e-03
1.410000000000000000e+02,7.263043900000000150e-03
1.420000000000000000e+02,7.253365599999999670e-03
1.430000000000000000e+02,7.243688699999999668e-03
1.440000000000000000e+02,7.234006200000000358e-03
1.450000000000000000e+02,7.224313399999999705e-03
1.460000000000000000e+02,7.214609099999999900e-03
1.470000000000000000e+02,7.204890700000000058e-03
1.480000000000000000e+02,7.195155100000000421e-03
1.490000000000000000e+02,7.185401899999999988e-03
1.500000000000000000e+02,7.175631400000000160e-03
1.510000000000000000e+02,7.165841800000000324e-03
1.520000000000000000e+02,7.156032599999999876e-03
1.530000000000000000e+02,7.146203400000000414e-03
1.540000000000000000e+02,7.136354699999999940e-03
1.550000000000000000e+02,7.126485499999999848e-03
1.560000000000000000e+02,7.116595300000000401e-03
1.570000000000000000e+02,7.106684099999999865e-03
1.580000000000000000e+02,7.096752100000000042e-03
1.590000000000000000e+02,7.086797599999999919e-03
1.600000000000000000e+02,7.076822200000000042e-03
1.610000000000000000e+02,7.066824900000000069e-03
1.620000000000000000e+02,7.056805299999999864e-03
1.630000000000000000e+02,7.046763800000000431e-03
1.640000000000000000e+02,7.036699000000000426e-03
1.650000000000000000e+02,7.026611399999999584e-03
1.660000000000000000e+02,7.016500900000000041e-03
1.670000000000000000e+02,7.006366299999999651e-03
1.680000000000000000e+02,6.996207400000000083e-03
1.690000000000000000e+02,6.986024799999999806e-03
1.700000000000000000e+02,6.975816999999999608e-03
1.710000000000000000e+02,6.965584099999999959e-03
1.720000000000000000e+02,6.955326099999999991e-03
1.730000000000000000e+02,6.945041499999999625e-03
1.740000000000000000e+02,6.934327100000000146e-03
1.750000000000000000e+02,6.923728599999999858e-03
1.760000000000000000e+02,6.913177700000000189e-03
1.770000000000000000e+02,6.902648600000000148e-03
1.780000000000000000e+02,6.892126999999999629e-03
1.790000000000000000e+02,6.881602100000000152e-03
1.800000000000000000e+02,6.871068400000000277e-03
1.810000000000000000e+02,6.860520200000000228e-03
1.820000000000000000e+02,6.849953899999999644e-03
1.830000000000000000e+02,6.839365699999999833e-03
1.840000000000000000e+02,6.828753699999999711e-03
1.850000000000000000e+02,6.818115700000000265e-03
1.860000000000000000e+02,6.807448800000000071e-03
1.870000000000000000e+02,6.796752999999999996e-03
1.880000000000000000e+02,6.786026100000000158e-03
1.890000000000000000e+02,6.775267399999999884e-03
1.900000000000000000e+02,6.764475699999999633e-03
1.910000000000000000e+02,6.753651000000000272e-03
1.920000000000000000e+02,6.742791300000000251e-03
1.930000000000000000e+02,6.731897100000000175e-03
1.940000000000000000e+02,6.720967100000000034e-03
1.950000000000000000e+02,6.710001699999999965e-03
1.960000000000000000e+02,6.698999599999999957e-03
1.970000000000000000e+02,6.687962000000000420e-03
1.980000000000000000e+02,6.676888100000000215e-03
1.990000000000000000e+02,6.665776899999999866e-03
2.000000000000000000e+02,6.654628999999999579e-03
2.010000000000000000e+02,6.643444800000000358e-03
2.020000000000000000e+02,6.632223300000000127e-03
2.030000000000000000e+02,6.620965399999999626e-03
2.040000000000000000e+02,6.609671299999999791e-03
2.050000000000000000e+02,6.598339899999999814e-03
2.060000000000000000e+02,6.586972600000000171e-03
2.070000000000000000e+02,6.575569499999999595e-03
2.080000000000000000e+02,6.564131499999999696e-03
2.090000000000000000e+02,6.552658500000000004e-03
2.100000000000000000e+02,6.540799499999999655e-03
2.110000000000000000e+02,6.529025699999999738e-03
2.120000000000000000e+02,6.517284100000000392e-03
2.130000000000000000e+02,6.505552199999999584e-03
2.140000000000000000e+02,6.493818499999999896e-03
2.150000000000000000e+02,6.482075900000000210e-03
2.160000000000000000e+02,6.470320300000000427e-03
2.170000000000000000e+02,6.458548799999999993e-03
2.180000000000000000e+02,6.446760099999999764e-03
2.190000000000000000e+02,6.434952800000000132e-03
2.200000000000000000e+02,6.423126900000000229e-03
2.210000000000000000e+02,6.411282800000000191e-03
2.220000000000000000e+02,6.399419600000000145e-03
2.230000000000000000e+02,6.387539200000000306e-03
2.240000000000000000e+02,6.375641599999999805e-03
2.250000000000000000e+02,6.363728100000000387e-03
2.260000000000000000e+02,6.351798300000000182e-03
2.270000000000000000e+02,6.339855000000000143e-03
2.280000000000000000e+02,6.327898700000000008e-03
2.290000000000000000e+02,6.315929799999999913e-03
2.300000000000000000e+02,6.303950699999999810e-03
2.310000000000000000e+02,6.291962199999999970e-03
2.320000000000000000e+02,6.279965900000000073e-03
2.330000000000000000e+02,6.267963399999999796e-03
2.340000000000000000e+02,6.255954999999999676e-03
2.350000000000000000e+02,6.243943200000000131e-03
2.360000000000000000e+02,6.231927800000000225e-03
2.370000000000000000e+02,6.219911399999999979e-03
2.380000000000000000e+02,6.207894499999999996e-03
2.390000000000000000e+02,6.195878600000000354e-03
2.400000000000000000e+02,6.183864499999999591e-03
2.410000000000000000e+02,6.171854200000000124e-03
2.420000000000000000e+02,6.159544500000000040e-03
2.430000000000000000e+02,6.147330200000000397e-03
2.440000000000000000e+02,6.135175900000000397e-03
2.450000000000000000e+02,6.123064999999999584e-03
2.460000000000000000e+02,6.110988099999999958e-03
2.470000000000000000e+02,6.098939599999999607e-03
2.480000000000000000e+02,6.086916199999999576e-03
2.490000000000000000e+02,6.074915600000000380e-03
2.500000000000000000e+02,6.062935600000000404e-03
2.510000000000000000e+02,6.050975499999999840e-03
2.520000000000000000e+02,6.039034999999999889e-03
2.530000000000000000e+02,6.027114099999999683e-03
2.540000000000000000e+02,6.015212300000000352e-03
2.550000000000000000e+02,6.003328599999999821e-03
2.560000000000000000e+02,5.991464499999999901e-03
2.570000000000000000e+02,5.979619000000000253e-03
2.580000000000000000e+02,5.967792599999999746e-03
2.590000000000000000e+02,5.955985300000000114e-03
2.600000000000000000e+02,5.944197499999999759e-03
2.610000000000000000e+02,5.932429300000000016e-03
2.620000000000000000e+02,5.920681199999999755e-03
2.630000000000000000e+02,5.908952999999999775e-03
2.640000000000000000e+02,5.897244900000000144e-03
2.650000000000000000e+02,5.885556800000000394e-03
2.660000000000000000e+02,5.873889200000000262e-03
2.670000000000000000e+02,5.862242099999999748e-03
2.680000000000000000e+02,5.850615899999999855e-03
2.690000000000000000e+02,5.839010700000000186e-03
2.700000000000000000e+02,5.827426900000000007e-03
2.710000000000000000e+02,5.815864500000000187e-03
2.720000000000000000e+02,5.804324100000000063e-03
2.730000000000000000e+02,5.792804999999999829e-03
2.740000000000000000e+02,5.781308300000000296e-03
2.750000000000000000e+02,5.769577799999999965e-03
2.760000000000000000e+02,5.757938100000000239e-03
2.770000000000000000e+02,5.746364099999999933e-03
2.780000000000000000e+02,5.734841800000000343e-03
2.790000000000000000e+02,5.723363700000000213e-03
2.800000000000000000e+02,5.711924799999999573e-03
2.810000000000000000e+02,5.700521600000000265e-03
2.820000000000000000e+02,5.689151600000000135e-03
2.830000000000000000e+02,5.677813700000000109e-03
2.840000000000000000e+02,5.666505999999999973e-03
2.850000000000000000e+02,5.655228600000000196e-03
2.860000000000000000e+02,5.643979599999999694e-03
2.870000000000000000e+02,5.632759499999999940e-03
2.880000000000000000e+02,5.621567400000000193e-03
2.890000000000000000e+02,5.610403600000000122e-03
2.900000000000000000e+02,5.599267300000000322e-03
2.910000000000000000e+02,5.588158999999999661e-03
2.920000000000000000e+02,5.577078600000000275e-03
2.930000000000000000e+02,5.566026100000000428e-03
2.940000000000000000e+02,5.555001999999999857e-03
2.950000000000000000e+02,5.544005900000000160e-03
2.960000000000000000e+02,5.533037700000000003e-03
2.970000000000000000e+02,5.522098399999999727e-03
2.980000000000000000e+02,5.511187899999999730e-03
2.990000000000000000e+02,5.500306400000000082e-03
3.000000000000000000e+02,5.489454099999999982e-03
3.010000000000000000e+02,5.478631200000000367e-03
3.020000000000000000e+02,5.467839099999999980e-03
3.030000000000000000e+02,5.457077200000000350e-03
3.040000000000000000e+02,5.446346500000000083e-03
3.050000000000000000e+02,5.435647899999999921e-03
3.060000000000000000e+02,5.424980999999999727e-03
3.070000000000000000e+02,5.414346700000000241e-03
3.080000000000000000e+02,5.403745899999999602e-03
3.090000000000000000e+02,5.393178200000000276e-03
3.100000000000000000e+02,5.382435399999999787e-03
3.110000000000000000e+02,5.371781499999999689e-03
3.120000000000000000e+02,5.361198000000000179e-03
3.130000000000000000e+02,5.350675899999999922e-03
3.140000000000000000e+02,5.340210199999999817e-03
3.150000000000000000e+02,5.329797499999999570e-03
3.160000000000000000e+02,5.319435600000000167e-03
3.170000000000000000e+02,5.309123100000000262e-03
3.180000000000000000e+02,5.298859900000000255e-03
3.190000000000000000e+02,5.288645199999999873e-03
3.200000000000000000e+02,5.278478799999999915e-03
3.210000000000000000e+02,5.268361899999999924e-03
3.220000000000000000e+02,5.258294799999999568e-03
3.230000000000000000e+02,5.248277899999999850e-03
3.240000000000000000e+02,5.238312299999999845e-03
3.250000000000000000e+02,5.228398799999999826e-03
3.260000000000000000e+02,5.218539399999999606e-03
3.270000000000000000e+02,5.208734900000000327e-03
3.280000000000000000e+02,5.198986299999999727e-03
3.290000000000000000e+02,5.189295899999999892e-03
3.300000000000000000e+02,5.179664599999999827e-03
3.310000000000000000e+02,5.170095199999999620e-03
3.320000000000000000e+02,5.160589200000000216e-03
3.330000000000000000e+02,5.151148900000000232e-03
3.340000000000000000e+02,5.141776100000000280e-03
3.350000000000000000e+02,5.132473499999999980e-03
3.360000000000000000e+02,5.123243199999999616e-03
3.370000000000000000e+02,5.114087800000000072e-03
3.380000000000000000e+02,5.105009800000000035e-03
3.390000000000000000e+02,5.096012300000000127e-03
3.400000000000000000e+02,5.087097199999999694e-03
3.410000000000000000e+02,5.078268700000000170e-03
3.420000000000000000e+02,5.069529199999999770e-03
3.430000000000000000e+02,5.060882299999999723e-03
3.440000000000000000e+02,5.052331400000000319e-03
3.450000000000000000e+02,5.043880100000000186e-03
3.460000000000000000e+02,5.035531700000000013e-03
3.470000000000000000e+02,5.027290400000000367e-03
3.480000000000000000e+02,5.019159500000000204e-03
3.490000000000000000e+02,5.011143600000000226e-03
3.500000000000000000e+02,5.003183100000000057e-03
3.510000000000000000e+02,4.995362799999999992e-03
3.520000000000000000e+02,4.987683599999999905e-03
3.530000000000000000e+02,4.980146399999999668e-03
3.540000000000000000e+02,4.972752599999999759e-03
3.550000000000000000e+02,4.965505599999999603e-03
3.560000000000000000e+02,4.958406999999999745e-03
3.570000000000000000e+02,4.951460300000000078e-03
3.580000000000000000e+02,4.944669500000000231e-03
3.590000000000000000e+02,4.938037600000000360e-03
3.600000000000000000e+02,4.931568199999999957e-03
3.610000000000000000e+02,4.925264500000000115e-03
3.620000000000000000e+02,4.919129900000000256e-03
3.630000000000000000e+02,4.913167100000000002e-03
3.640000000000000000e+02,4.907378500000000171e-03
3.650000000000000000e+02,4.901766800000000382e-03
3.660000000000000000e+02,4.896333899999999982e-03
3.670000000000000000e+02,4.891080800000000180e-03
3.680000000000000000e+02,4.886008800000000117e-03
3.690000000000000000e+02,4.881118900000000135e-03
3.700000000000000000e+02,4.876410099999999893e-03
3.710000000000000000e+02,4.871882999999999596e-03
3.720000000000000000e+02,4.867535600000000295e-03
3.730000000000000000e+02,4.863366499999999780e-03
3.740000000000000000e+02,4.859374399999999775e-03
3.750000000000000000e+02,4.855555499999999851e-03
3.760000000000000000e+02,4.851907499999999658e-03
3.770000000000000000e+02,4.848426200000000366e-03
3.780000000000000000e+02,4.845108400000000017e-03
3.790000000000000000e+02,4.841948900000000305e-03
3.800000000000000000e+02,4.838943499999999800e-03
3.810000000000000000e+02,4.836087600000000403e-03
3.820000000000000000e+02,4.833375600000000202e-03
3.830000000000000000e+02,4.830802300000000028e-03
3.840000000000000000e+02,4.828361800000000037e-03
3.850000000000000000e+02,4.826049300000000326e-03
3.860000000000000000e+02,4.823859300000000322e-03
3.870000000000000000e+02,4.821785700000000112e-03
3.880000000000000000e+02,4.819823400000000126e-03
3.890000000000000000e+02,4.817966800000000188e-03
3.900000000000000000e+02,4.816210399999999725e-03
3.910000000000000000e+02,4.814549799999999838e-03
3.920000000000000000e+02,4.812979099999999816e-03
3.930000000000000000e+02,4.811494099999999961e-03
3.940000000000000000e+02,4.810090199999999573e-03
3.950000000000000000e+02,4.808762099999999880e-03
3.960000000000000000e+02,4.807506199999999653e-03
3.970000000000000000e+02,4.806318300000000064e-03
3.980000000000000000e+02,4.805194700000000284e-03
3.990000000000000000e+02,4.804131100000000147e-03
