# Time [s], Temperature [C]
1.000000000000000000e+00,2.500000000000000000e+01
2.000000000000000000e+00,2.500000000000000000e+01
3.000000000000000000e+00,2.500000000000000000e+01
4.000000000000000000e+00,2.500000000000000000e+01
5.000000000000000000e+00,2.500000800000000112e+01
6.000000000000000000e+00,2.500004399999999904e+01
7.000000000000000000e+00,2.500019299999999944e+01
8.000000000000000000e+00,2.500068299999999866e+01
9.000000000000000000e+00,2.500202600000000075e+01
1.000000000000000000e+01,2.500520699999999863e+01
1.100000000000000000e+01,2.501186600000000126e+01
1.200000000000000000e+01,2.502443099999999987e+01
1.300000000000000000e+01,2.504618299999999920e+01
1.400000000000000000e+01,2.508119999999999905e+01
1.500000000000000000e+01,2.513424099999999939e+01
1.600000000000000000e+01,2.521056700000000106e+01
1.700000000000000000e+01,2.531574799999999925e+01
1.800000000000000000e+01,2.545546500000000023e+01
1.900000000000000000e+01,2.563531700000000058e+01
2.000000000000000000e+01,2.586070799999999892e+01
2.100000000000000000e+01,2.613669200000000004e+01
2.200000000000000000e+01,2.646791800000000094e+01
2.300000000000000000e+01,2.685855300000000057e+01
2.400000000000000000e+01,2.731225200000000086e+01
2.500000000000000000e+01,2.783215699999999870e+01
2.600000000000000000e+01,2.842089299999999952e+01
2.700000000000000000e+01,2.908048399999999845e+01
2.800000000000000000e+01,2.981241400000000041e+01
2.900000000000000000e+01,3.061771999999999849e+01
3.000000000000000000e+01,3.149694600000000122e+01
3.100000000000000000e+01,3.245007700000000028e+01
3.200000000000000000e+01,3.347673000000000343e+01
3.300000000000000000e+01,3.457602299999999929e+01
3.400000000000000000e+01,3.574679199999999923e+01
3.500000000000000000e+01,3.698753399999999658e+01
3.600000000000000000e+01,3.829650900000000036e+01
3.700000000000000000e+01,3.967164600000000263e+01
3.800000000000000000e+01,4.111081300000000027e+01
3.900000000000000000e+01,4.261162600000000111e+01
4.000000000000000000e+01,4.417172200000000259e+01
4.100000000000000000e+01,4.578859700000000288e+01
4.200000000000000000e+01,4.745981199999999944e+01
4.300000000000000000e+01,4.918294099999999958e+01
4.400000000000000000e+01,5.095542499999999819e+01
4.500000000000000000e+01,5.277504700000000071e+01
4.600000000000000000e+01,5.463935899999999890e+01
4.700000000000000000e+01,5.654617300000000313e+01
4.800000000000000000e+01,5.849340800000000229e+01
4.900000000000000000e+01,6.047904199999999975e+01
5.000000000000000000e+01,6.250102199999999897e+01
5.100000000000000000e+01,6.455749500000000296e+01
5.200000000000000000e+01,6.664669800000000066e+01
5.300000000000000000e+01,6.876695300000000088e+01
5.400000000000000000e+01,7.092466699999999946e+01
5.500000000000000000e+01,7.310547599999999591e+01
5.600000000000000000e+01,7.531113399999999558e+01
5.700000000000000000e+01,7.754106899999999314e+01
5.800000000000000000e+01,7.979381600000000674e+01
5.900000000000000000e+01,8.206820700000000102e+01
6.000000000000000000e+01,8.436309099999999717e+01
6.100000000000000000e+01,8.667728400000000022e+01
6.200000000000000000e+01,8.900967400000000396e+01
6.300000000000000000e+01,9.135946699999999510e+01
6.400000000000000000e+01,9.372572300000000212e+01
6.500000000000000000e+01,9.610755199999999832e+01
6.600000000000000000e+01,9.850400500000000648e+01
6.700000000000000000e+01,1.009142099999999971e+02
6.800000000000000000e+01,1.033372899999999959e+02
6.900000000000000000e+01,1.057724199999999968e+02
7.000000000000000000e+01,1.082188000000000017e+02
7.100000000000000000e+01,1.106756400000000014e+02
7.200000000000000000e+01,1.131422400000000010e+02
7.300000000000000000e+01,1.156179000000000059e+02
7.400000000000000000e+01,1.181020100000000070e+02
7.500000000000000000e+01,1.205938900000000018e+02
7.600000000000000000e+01,1.230929699999999940e+02
7.700000000000000000e+01,1.255988799999999941e+02
7.800000000000000000e+01,1.281108600000000024e+02
7.900000000000000000e+01,1.306283400000000086e+02
8.000000000000000000e+01,1.331509900000000073e+02
8.100000000000000000e+01,1.356780100000000004e+02
8.200000000000000000e+01,1.382088500000000124e+02
8.300000000000000000e+01,1.407431200000000047e+02
8.400000000000000000e+01,1.432800900000000013e+02
8.500000000000000000e+01,1.458192300000000046e+02
8.600000000000000000e+01,1.483602099999999950e+02
8.700000000000000000e+01,1.509023599999999874e+02
8.800000000000000000e+01,1.534488699999999994e+02
8.900000000000000000e+01,1.559937400000000025e+02
9.000000000000000000e+01,1.585379499999999950e+02
9.100000000000000000e+01,1.610815000000000055e+02
9.200000000000000000e+01,1.636243100000000084e+02
9.300000000000000000e+01,1.661659699999999873e+02
9.400000000000000000e+01,1.687062200000000018e+02
9.500000000000000000e+01,1.712448899999999981e+02
9.600000000000000000e+01,1.737813299999999970e+02
9.700000000000000000e+01,1.763150200000000041e+02
9.800000000000000000e+01,1.788455999999999904e+02
9.900000000000000000e+01,1.813723899999999958e+02
1.000000000000000000e+02,1.838950000000000102e+02
1.010000000000000000e+02,1.864132199999999955e+02
1.020000000000000000e+02,1.889265699999999981e+02
1.030000000000000000e+02,1.914349100000000021e+02
1.040000000000000000e+02,1.939378399999999942e+02
1.050000000000000000e+02,1.964351299999999867e+02
1.060000000000000000e+02,1.989263599999999883e+02
1.070000000000000000e+02,2.014111599999999953e+02
1.080000000000000000e+02,2.038891299999999944e+02
1.090000000000000000e+02,2.063599399999999946e+02
1.100000000000000000e+02,2.088230700000000013e+02
1.110000000000000000e+02,2.112781200000000013e+02
1.120000000000000000e+02,2.137247199999999907e+02
1.130000000000000000e+02,2.161624500000000069e+02
1.140000000000000000e+02,2.185909000000000049e+02
1.150000000000000000e+02,2.210096900000000062e+02
1.160000000000000000e+02,2.234184700000000134e+02
1.170000000000000000e+02,2.258168499999999881e+02
1.180000000000000000e+02,2.282044799999999896e+02
1.190000000000000000e+02,2.305809500000000014e+02
1.200000000000000000e+02,2.329457899999999881e+02
1.210000000000000000e+02,2.352986099999999965e+02
1.220000000000000000e+02,2.376388699999999972e+02
1.230000000000000000e+02,2.399683699999999931e+02
1.240000000000000000e+02,2.422831299999999999e+02
1.250000000000000000e+02,2.445836500000000058e+02
1.260000000000000000e+02,2.468697500000000105e+02
1.270000000000000000e+02,2.491414599999999950e+02
1.280000000000000000e+02,2.513986500000000035e+02
1.290000000000000000e+02,2.536405799999999999e+02
1.300000000000000000e+02,2.558660900000000140e+02
1.310000000000000000e+02,2.580742799999999875e+02
1.320000000000000000e+02,2.602640400000000227e+02
1.330000000000000000e+02,2.624347200000000271e+02
1.340000000000000000e+02,2.645854800000000182e+02
1.350000000000000000e+02,2.667155200000000264e+02
1.360000000000000000e+02,2.688240999999999872e+02
1.370000000000000000e+02,2.709101900000000001e+02
1.380000000000000000e+02,2.729729300000000194e+02
1.390000000000000000e+02,2.750113499999999931e+02
1.400000000000000000e+02,2.770242900000000077e+02
1.410000000000000000e+02,2.790108000000000175e+02
1.420000000000000000e+02,2.809698200000000270e+02
1.430000000000000000e+02,2.829001799999999776e+02
1.440000000000000000e+02,2.848007499999999936e+02
1.450000000000000000e+02,2.866701400000000035e+02
1.460000000000000000e+02,2.885071399999999926e+02
1.470000000000000000e+02,2.903104200000000219e+02
1.480000000000000000e+02,2.920784899999999880e+02
1.490000000000000000e+02,2.938099700000000212e+02
1.500000000000000000e+02,2.955036000000000058e+02
1.510000000000000000e+02,2.971578099999999836e+02
1.520000000000000000e+02,2.987714500000000157e+02
1.530000000000000000e+02,3.003483600000000138e+02
1.540000000000000000e+02,3.018829999999999814e+02
1.550000000000000000e+02,3.033767700000000218e+02
1.560000000000000000e+02,3.048292500000000018e+02
1.570000000000000000e+02,3.062384900000000130e+02
1.580000000000000000e+02,3.076015899999999874e+02
1.590000000000000000e+02,3.089167499999999791e+02
1.600000000000000000e+02,3.101834400000000187e+02
1.610000000000000000e+02,3.114023099999999999e+02
1.620000000000000000e+02,3.125744599999999878e+02
1.630000000000000000e+02,3.137010200000000282e+02
1.640000000000000000e+02,3.147833299999999781e+02
1.650000000000000000e+02,3.158226000000000226e+02
1.660000000000000000e+02,3.168204299999999876e+02
1.670000000000000000e+02,3.177783200000000079e+02
1.680000000000000000e+02,3.186979400000000169e+02
1.690000000000000000e+02,3.195809600000000046e+02
1.700000000000000000e+02,3.204290799999999990e+02
1.710000000000000000e+02,3.212441400000000158e+02
1.720000000000000000e+02,3.220280200000000264e+02
1.730000000000000000e+02,3.227825599999999895e+02
1.740000000000000000e+02,3.235097700000000032e+02
1.750000000000000000e+02,3.242116100000000074e+02
1.760000000000000000e+02,3.248901399999999740e+02
1.770000000000000000e+02,3.255474199999999882e+02
1.780000000000000000e+02,3.262366299999999910e+02
1.790000000000000000e+02,3.268909600000000069e+02
1.800000000000000000e+02,3.275246900000000210e+02
1.810000000000000000e+02,3.281387899999999718e+02
1.820000000000000000e+02,3.287320599999999899e+02
1.830000000000000000e+02,3.293070399999999722e+02
1.840000000000000000e+02,3.298681599999999889e+02
1.850000000000000000e+02,3.304205600000000231e+02
1.860000000000000000e+02,3.309675599999999918e+02
1.870000000000000000e+02,3.315118400000000065e+02
1.880000000000000000e+02,3.320551100000000133e+02
1.890000000000000000e+02,3.325985400000000141e+02
1.900000000000000000e+02,3.331433099999999854e+02
1.910000000000000000e+02,3.336901199999999790e+02
1.920000000000000000e+02,3.342395900000000211e+02
1.930000000000000000e+02,3.347922100000000114e+02
1.940000000000000000e+02,3.353482399999999757e+02
1.950000000000000000e+02,3.359078999999999837e+02
1.960000000000000000e+02,3.364718899999999735e+02
1.970000000000000000e+02,3.370402799999999957e+02
1.980000000000000000e+02,3.376138000000000261e+02
1.990000000000000000e+02,3.381928100000000086e+02
2.000000000000000000e+02,3.387780799999999886e+02
2.010000000000000000e+02,3.393699599999999919e+02
2.020000000000000000e+02,3.399691199999999753e+02
2.030000000000000000e+02,3.407667500000000018e+02
2.040000000000000000e+02,3.414573100000000068e+02
2.050000000000000000e+02,3.421060200000000009e+02
2.060000000000000000e+02,3.427377299999999991e+02
2.070000000000000000e+02,3.433620900000000233e+02
2.080000000000000000e+02,3.439925200000000132e+02
2.090000000000000000e+02,3.446380599999999959e+02
2.100000000000000000e+02,3.453009299999999939e+02
2.110000000000000000e+02,3.459816299999999956e+02
2.120000000000000000e+02,3.466799300000000130e+02
2.130000000000000000e+02,3.473956000000000017e+02
2.140000000000000000e+02,3.481279299999999921e+02
2.150000000000000000e+02,3.488766800000000217e+02
2.160000000000000000e+02,3.496418199999999956e+02
2.170000000000000000e+02,3.504233100000000150e+02
2.180000000000000000e+02,3.512217400000000112e+02
2.190000000000000000e+02,3.520371700000000033e+02
2.200000000000000000e+02,3.528706700000000183e+02
2.210000000000000000e+02,3.537232700000000136e+02
2.220000000000000000e+02,3.545964700000000107e+02
2.230000000000000000e+02,3.554914600000000178e+02
2.240000000000000000e+02,3.564098799999999869e+02
2.250000000000000000e+02,3.573530900000000088e+02
2.260000000000000000e+02,3.583220200000000091e+02
2.270000000000000000e+02,3.593196399999999926e+02
2.280000000000000000e+02,3.603470500000000243e+02
2.290000000000000000e+02,3.614060699999999997e+02
2.300000000000000000e+02,3.624982899999999972e+02
2.310000000000000000e+02,3.642590599999999768e+02
2.320000000000000000e+02,3.654854100000000017e+02
2.330000000000000000e+02,3.666245999999999867e+02
2.340000000000000000e+02,3.678013599999999883e+02
2.350000000000000000e+02,3.690600299999999834e+02
2.360000000000000000e+02,3.703987399999999752e+02
2.370000000000000000e+02,3.718135100000000079e+02
2.380000000000000000e+02,3.733037400000000048e+02
2.390000000000000000e+02,3.748697500000000105e+02
2.400000000000000000e+02,3.765169700000000148e+02
2.410000000000000000e+02,3.782514300000000276e+02
2.420000000000000000e+02,3.800801399999999717e+02
2.430000000000000000e+02,3.820140099999999848e+02
2.440000000000000000e+02,3.840648800000000165e+02
2.450000000000000000e+02,3.862451800000000048e+02
2.460000000000000000e+02,3.885716600000000085e+02
2.470000000000000000e+02,3.910601500000000215e+02
2.480000000000000000e+02,3.937323900000000094e+02
2.490000000000000000e+02,3.966082200000000171e+02
2.500000000000000000e+02,3.997157000000000266e+02
2.510000000000000000e+02,4.030776099999999929e+02
2.520000000000000000e+02,4.067181699999999864e+02
2.530000000000000000e+02,4.106549699999999916e+02
2.540000000000000000e+02,4.148871199999999817e+02
2.550000000000000000e+02,4.193851300000000037e+02
2.560000000000000000e+02,4.240777299999999741e+02
2.570000000000000000e+02,4.288373399999999833e+02
2.580000000000000000e+02,4.335016499999999837e+02
2.590000000000000000e+02,4.379319199999999910e+02
2.600000000000000000e+02,4.420853000000000179e+02
2.610000000000000000e+02,4.460058900000000222e+02
2.620000000000000000e+02,4.497501500000000192e+02
2.630000000000000000e+02,4.533513800000000060e+02
2.640000000000000000e+02,4.568304099999999721e+02
2.650000000000000000e+02,4.602043499999999767e+02
2.660000000000000000e+02,4.634845599999999877e+02
2.670000000000000000e+02,4.666804200000000264e+02
2.680000000000000000e+02,4.698002000000000180e+02
2.690000000000000000e+02,4.728500700000000165e+02
2.700000000000000000e+02,4.758356899999999996e+02
2.710000000000000000e+02,4.787614699999999743e+02
2.720000000000000000e+02,4.816315299999999979e+02
2.730000000000000000e+02,4.844497400000000198e+02
2.740000000000000000e+02,4.872191199999999753e+02
2.750000000000000000e+02,4.899422299999999950e+02
2.760000000000000000e+02,4.926216400000000135e+02
2.770000000000000000e+02,4.952599200000000224e+02
2.780000000000000000e+02,4.978585499999999797e+02
2.790000000000000000e+02,5.004197700000000282e+02
2.800000000000000000e+02,5.029451000000000249e+02
2.810000000000000000e+02,5.054358199999999783e+02
2.820000000000000000e+02,5.078937099999999987e+02
2.830000000000000000e+02,5.103200400000000059e+02
2.840000000000000000e+02,5.127160000000000082e+02
2.850000000000000000e+02,5.150827000000000453e+02
2.860000000000000000e+02,5.174210199999999986e+02
2.870000000000000000e+02,5.197319899999999961e+02
2.880000000000000000e+02,5.220165399999999636e+02
2.890000000000000000e+02,5.242752100000000155e+02
2.900000000000000000e+02,5.265090300000000525e+02
2.910000000000000000e+02,5.287184399999999869e+02
2.920000000000000000e+02,5.309042399999999589e+02
2.930000000000000000e+02,5.330669599999999946e+02
2.940000000000000000e+02,5.352074599999999691e+02
2.950000000000000000e+02,5.373256199999999581e+02
2.960000000000000000e+02,5.394223600000000260e+02
2.970000000000000000e+02,5.414981099999999969e+02
2.980000000000000000e+02,5.435533400000000483e+02
2.990000000000000000e+02,5.455888099999999667e+02
3.000000000000000000e+02,5.476041300000000547e+02
3.010000000000000000e+02,5.495999100000000226e+02
3.020000000000000000e+02,5.515766599999999471e+02
3.030000000000000000e+02,5.535343000000000302e+02
3.040000000000000000e+02,5.554736900000000333e+02
3.050000000000000000e+02,5.573949000000000069e+02
3.060000000000000000e+02,5.592980300000000398e+02
3.070000000000000000e+02,5.611834700000000566e+02
3.080000000000000000e+02,5.630512099999999691e+02
3.090000000000000000e+02,5.649018600000000561e+02
3.100000000000000000e+02,5.667353500000000395e+02
3.110000000000000000e+02,5.685521899999999960e+02
3.120000000000000000e+02,5.703524200000000519e+02
3.130000000000000000e+02,5.721361699999999928e+02
3.140000000000000000e+02,5.739036300000000210e+02
3.150000000000000000e+02,5.756552100000000110e+02
3.160000000000000000e+02,5.773908099999999877e+02
3.170000000000000000e+02,5.791107799999999770e+02
3.180000000000000000e+02,5.808152499999999918e+02
3.190000000000000000e+02,5.825040900000000192e+02
3.200000000000000000e+02,5.841778000000000475e+02
3.210000000000000000e+02,5.858364900000000262e+02
3.220000000000000000e+02,5.874803500000000440e+02
3.230000000000000000e+02,5.891093799999999874e+02
3.240000000000000000e+02,5.907236299999999574e+02
3.250000000000000000e+02,5.923234300000000303e+02
3.260000000000000000e+02,5.939086899999999787e+02
3.270000000000000000e+02,5.954794900000000553e+02
3.280000000000000000e+02,5.970363200000000461e+02
3.290000000000000000e+02,5.985791600000000017e+02
3.300000000000000000e+02,6.001081500000000233e+02
3.310000000000000000e+02,6.016233499999999594e+02
3.320000000000000000e+02,6.031248799999999619e+02
3.330000000000000000e+02,6.046127900000000182e+02
3.340000000000000000e+02,6.060874599999999646e+02
3.350000000000000000e+02,6.075487100000000282e+02
3.360000000000000000e+02,6.089966399999999567e+02
3.370000000000000000e+02,6.104315199999999777e+02
3.380000000000000000e+02,6.118533899999999903e+02
3.390000000000000000e+02,6.132625100000000202e+02
3.400000000000000000e+02,6.146588699999999790e+02
3.410000000000000000e+02,6.160424799999999550e+02
3.420000000000000000e+02,6.174133900000000494e+02
3.430000000000000000e+02,6.187720900000000483e+02
3.440000000000000000e+02,6.201182300000000396e+02
3.450000000000000000e+02,6.214522100000000364e+02
3.460000000000000000e+02,6.227741700000000264e+02
3.470000000000000000e+02,6.240839799999999968e+02
3.480000000000000000e+02,6.253817099999999982e+02
3.490000000000000000e+02,6.266677899999999681e+02
3.500000000000000000e+02,6.279418899999999439e+02
3.510000000000000000e+02,6.292044100000000526e+02
3.520000000000000000e+02,6.304553799999999910e+02
3.530000000000000000e+02,6.316948200000000497e+02
3.540000000000000000e+02,6.329228500000000395e+02
3.550000000000000000e+02,6.341395899999999983e+02
3.560000000000000000e+02,6.353452099999999518e+02
3.570000000000000000e+02,6.365397299999999632e+02
3.580000000000000000e+02,6.377232099999999946e+02
3.590000000000000000e+02,6.388957500000000209e+02
3.600000000000000000e+02,6.400574299999999539e+02
3.610000000000000000e+02,6.412083699999999453e+02
3.620000000000000000e+02,6.423487499999999955e+02
3.630000000000000000e+02,6.434786400000000413e+02
3.640000000000000000e+02,6.445980200000000195e+02
3.650000000000000000e+02,6.457067899999999554e+02
3.660000000000000000e+02,6.468054200000000264e+02
3.670000000000000000e+02,6.478939199999999801e+02
3.680000000000000000e+02,6.489720499999999674e+02
3.690000000000000000e+02,6.500402800000000525e+02
3.700000000000000000e+02,6.510986299999999574e+02
3.710000000000000000e+02,6.521469700000000103e+02
3.720000000000000000e+02,6.531856099999999969e+02
3.730000000000000000e+02,6.542145400000000564e+02
3.740000000000000000e+02,6.552336400000000367e+02
3.750000000000000000e+02,6.562433499999999640e+02
3.760000000000000000e+02,6.572435299999999643e+02
3.770000000000000000e+02,6.582343799999999874e+02
3.780000000000000000e+02,6.592158799999999701e+02
3.790000000000000000e+02,6.601882900000000518e+02
3.800000000000000000e+02,6.611514300000000048e+02
3.810000000000000000e+02,6.621054699999999684e+02
3.820000000000000000e+02,6.630506599999999935e+02
3.830000000000000000e+02,6.639867600000000039e+02
3.840000000000000000e+02,6.649140599999999495e+02
3.850000000000000000e+02,6.658327000000000453e+02
3.860000000000000000e+02,6.667425500000000511e+02
3.870000000000000000e+02,6.676438000000000557e+02
3.880000000000000000e+02,6.685366199999999708e+02
3.890000000000000000e+02,6.694208999999999605e+02
3.900000000000000000e+02,6.702968100000000504e+02
3.910000000000000000e+02,6.711643100000000004e+02
3.920000000000000000e+02,6.720236200000000508e+02
3.930000000000000000e+02,6.728747600000000375e+02
3.940000000000000000e+02,6.737178999999999860e+02
3.950000000000000000e+02,6.745529800000000478e+02
3.960000000000000000e+02,6.753801300000000083e+02
3.970000000000000000e+02,6.761993400000000065e+02
3.980000000000000000e+02,6.770107400000000553e+02
3.990000000000000000e+02,6.778143300000000409e+02
