# Time [s], Convective Heat Transfer Coefficient [W/m2K]
1.000000000000000000e+00,0.000000000000000000e+00
2.000000000000000000e+00,0.000000000000000000e+00
3.000000000000000000e+00,0.000000000000000000e+00
4.000000000000000000e+00,0.000000000000000000e+00
5.000000000000000000e+00,0.000000000000000000e+00
6.000000000000000000e+00,1.915079995362458862e-02
7.000000000000000000e+00,3.274740728807139234e-02
8.000000000000000000e+00,5.018929418388579089e-02
9.000000000000000000e+00,7.413038420798434558e-02
1.000000000000000000e+01,1.041826848279205908e-01
1.100000000000000000e+01,1.405138990736344573e-01
1.200000000000000000e+01,1.833450945916361707e-01
1.300000000000000000e+01,2.322440649916364119e-01
1.400000000000000000e+01,2.868357940032650877e-01
1.500000000000000000e+01,3.465175776533092056e-01
1.600000000000000000e+01,4.107888404322496689e-01
1.700000000000000000e+01,4.790150037998242571e-01
1.800000000000000000e+01,5.506305061417741120e-01
1.900000000000000000e+01,6.251110877151804246e-01
2.000000000000000000e+01,7.019571037443236294e-01
2.100000000000000000e+01,7.807354653618343576e-01
2.200000000000000000e+01,8.610508631616132780e-01
2.300000000000000000e+01,9.425515538434099394e-01
2.400000000000000000e+01,1.024940396695971145e+00
2.500000000000000000e+01,1.107942229555370917e+00
2.600000000000000000e+01,1.191331789140923858e+00
2.700000000000000000e+01,1.274906528248090698e+00
2.800000000000000000e+01,1.358491928815724670e+00
2.900000000000000000e+01,1.441945147449586129e+00
3.000000000000000000e+01,1.525132410470065869e+00
3.100000000000000000e+01,1.607946275772448308e+00
3.200000000000000000e+01,1.690297391733430965e+00
3.300000000000000000e+01,1.772103341536646948e+00
3.400000000000000000e+01,1.853299140569360404e+00
3.500000000000000000e+01,1.933830838541316766e+00
3.600000000000000000e+01,2.013649547186055599e+00
3.700000000000000000e+01,2.092717791912118486e+00
3.800000000000000000e+01,2.171005965376282987e+00
3.900000000000000000e+01,2.248487299737572886e+00
4.000000000000000000e+01,2.325140404999552324e+00
4.100000000000000000e+01,2.400951980264988350e+00
4.200000000000000000e+01,2.475910213159665307e+00
4.300000000000000000e+01,2.550005695309796483e+00
4.400000000000000000e+01,2.623232341522981681e+00
4.500000000000000000e+01,2.695586687578538587e+00
4.600000000000000000e+01,2.767069958094381832e+00
4.700000000000000000e+01,2.837679028741082909e+00
4.800000000000000000e+01,2.907413765416837492e+00
4.900000000000000000e+01,2.976278685737490992e+00
5.000000000000000000e+01,3.044277970433465264e+00
5.100000000000000000e+01,3.111413298560169682e+00
5.200000000000000000e+01,3.177689181283386066e+00
5.300000000000000000e+01,3.243112136499264775e+00
5.400000000000000000e+01,3.307685980578003893e+00
5.500000000000000000e+01,3.371419194888268134e+00
5.600000000000000000e+01,3.434314920646215796e+00
5.700000000000000000e+01,3.496382113242904488e+00
5.800000000000000000e+01,3.557626486291090906e+00
5.900000000000000000e+01,3.618055230709932513e+00
6.000000000000000000e+01,3.677676245829854640e+00
6.100000000000000000e+01,3.736498019351417899e+00
6.200000000000000000e+01,3.794526849323669904e+00
6.300000000000000000e+01,3.851772767038609935e+00
6.400000000000000000e+01,3.908243639130585922e+00
6.500000000000000000e+01,3.963947634595624603e+00
6.600000000000000000e+01,4.018895438673704135e+00
6.700000000000000000e+01,4.073095979818114110e+00
6.800000000000000000e+01,4.126558113315931031e+00
6.900000000000000000e+01,4.179294265867210534e+00
7.000000000000000000e+01,4.231313741145986462e+00
7.100000000000000000e+01,4.282627900553773515e+00
7.200000000000000000e+01,4.333246954873017032e+00
7.300000000000000000e+01,4.383182313852025835e+00
7.400000000000000000e+01,4.432444514482416054e+00
7.500000000000000000e+01,4.481045501382635798e+00
7.600000000000000000e+01,4.528998622922213890e+00
7.700000000000000000e+01,4.576313097311300204e+00
7.800000000000000000e+01,4.623000541792286811e+00
7.900000000000000000e+01,4.669072675911862369e+00
8.000000000000000000e+01,4.714541452449964254e+00
8.100000000000000000e+01,4.759418761800247921e+00
8.200000000000000000e+01,4.803716982221583720e+00
8.300000000000000000e+01,4.847448376060583541e+00
8.400000000000000000e+01,4.890622887345303482e+00
8.500000000000000000e+01,4.933251458773333376e+00
8.600000000000000000e+01,4.975346411138739988e+00
8.700000000000000000e+01,5.016919740741750289e+00
8.800000000000000000e+01,5.057982956956461607e+00
8.900000000000000000e+01,5.098544864298096613e+00
9.000000000000000000e+01,5.138616866285109275e+00
9.100000000000000000e+01,5.178210229959944400e+00
9.200000000000000000e+01,5.217936449981666946e+00
9.300000000000000000e+01,5.256840907938704177e+00
9.400000000000000000e+01,5.295206281283899585e+00
9.500000000000000000e+01,5.333102077460335266e+00
9.600000000000000000e+01,5.370549226497264961e+00
9.700000000000000000e+01,5.407562264886019321e+00
9.800000000000000000e+01,5.444154114496650543e+00
9.900000000000000000e+01,5.480337243440566830e+00
1.000000000000000000e+02,5.516121042390724760e+00
1.010000000000000000e+02,5.551516579590233036e+00
1.020000000000000000e+02,5.586534845667603832e+00
1.030000000000000000e+02,5.621183128926854344e+00
1.040000000000000000e+02,5.655470876684007386e+00
1.050000000000000000e+02,5.689407179585548313e+00
1.060000000000000000e+02,5.722998184229465934e+00
1.070000000000000000e+02,5.756251467674553979e+00
1.080000000000000000e+02,5.789174733338681378e+00
1.090000000000000000e+02,5.821772799466498505e+00
1.100000000000000000e+02,5.854051788992664207e+00
1.110000000000000000e+02,5.886018652736423107e+00
1.120000000000000000e+02,5.917677949638676438e+00
1.130000000000000000e+02,5.949035412963518787e+00
1.140000000000000000e+02,5.980096677884147560e+00
1.150000000000000000e+02,6.010867027477779345e+00
1.160000000000000000e+02,6.041351218234553677e+00
1.170000000000000000e+02,6.071554840048526636e+00
1.180000000000000000e+02,6.101482483143904290e+00
1.190000000000000000e+02,6.131139561758135237e+00
1.200000000000000000e+02,6.160530146764978454e+00
1.210000000000000000e+02,6.189658801389158249e+00
1.220000000000000000e+02,6.218530376780014635e+00
1.230000000000000000e+02,6.247148919294311042e+00
1.240000000000000000e+02,6.275518509762411767e+00
1.250000000000000000e+02,6.303643762922432003e+00
1.260000000000000000e+02,6.331528081334463209e+00
1.270000000000000000e+02,6.359175763672270776e+00
1.280000000000000000e+02,6.386589928740025179e+00
1.290000000000000000e+02,6.413774073975631040e+00
1.300000000000000000e+02,6.440731608160763955e+00
1.310000000000000000e+02,6.467466470961591440e+00
1.320000000000000000e+02,6.493980724304618590e+00
1.330000000000000000e+02,6.520278565788951042e+00
1.340000000000000000e+02,6.546393285777623028e+00
1.350000000000000000e+02,6.572278805861555995e+00
1.360000000000000000e+02,6.597950717735550086e+00
1.370000000000000000e+02,6.623415323548861977e+00
1.380000000000000000e+02,6.648675818407800087e+00
1.390000000000000000e+02,6.673735299216613015e+00
1.400000000000000000e+02,6.698597290388916825e+00
1.410000000000000000e+02,6.723265469519652981e+00
1.420000000000000000e+02,6.747742376808131937e+00
1.430000000000000000e+02,6.772030987796329171e+00
1.440000000000000000e+02,6.796132924008246867e+00
1.450000000000000000e+02,6.820050010697277010e+00
1.460000000000000000e+02,6.843783769872379352e+00
1.470000000000000000e+02,6.867335430692053322e+00
1.480000000000000000e+02,6.890704953170582847e+00
1.490000000000000000e+02,6.913893764288394195e+00
1.500000000000000000e+02,6.936901546486857306e+00
1.510000000000000000e+02,6.959729194800993390e+00
1.520000000000000000e+02,6.982377336398525536e+00
1.530000000000000000e+02,7.004845861837087462e+00
1.540000000000000000e+02,7.027134896365503813e+00
1.550000000000000000e+02,7.049245734392722618e+00
1.560000000000000000e+02,7.071177525303480316e+00
1.570000000000000000e+02,7.092931527353274923e+00
1.580000000000000000e+02,7.114507574076744056e+00
1.590000000000000000e+02,7.135905726130260085e+00
1.600000000000000000e+02,7.157126035591350188e+00
1.610000000000000000e+02,7.178169227393667029e+00
1.620000000000000000e+02,7.199034872511341554e+00
1.630000000000000000e+02,7.219722768302433202e+00
1.640000000000000000e+02,7.240233378206041515e+00
1.650000000000000000e+02,7.260565592086396514e+00
1.660000000000000000e+02,7.280719419496568534e+00
1.670000000000000000e+02,7.300694640603707875e+00
1.680000000000000000e+02,7.320490812028052297e+00
1.690000000000000000e+02,7.340106837835404185e+00
1.700000000000000000e+02,7.359542283003436047e+00
1.710000000000000000e+02,7.378796495467707217e+00
1.720000000000000000e+02,7.397868397317747480e+00
1.730000000000000000e+02,7.416758623100837333e+00
1.740000000000000000e+02,7.435464606151330536e+00
1.750000000000000000e+02,7.453987189148387316e+00
1.760000000000000000e+02,7.472326555889733157e+00
1.770000000000000000e+02,7.490483290399707172e+00
1.780000000000000000e+02,7.508456705991088498e+00
1.790000000000000000e+02,7.526247355059113353e+00
1.800000000000000000e+02,7.543852474340264180e+00
1.810000000000000000e+02,7.561270156071052462e+00
1.820000000000000000e+02,7.578496473727984295e+00
1.830000000000000000e+02,7.595527758145964370e+00
1.840000000000000000e+02,7.612360791928478143e+00
1.850000000000000000e+02,7.628991389847485038e+00
1.860000000000000000e+02,7.645416420567745952e+00
1.870000000000000000e+02,7.661632984505399868e+00
1.880000000000000000e+02,7.677638010072043606e+00
1.890000000000000000e+02,7.693429046619679745e+00
1.900000000000000000e+02,7.709003265238396629e+00
1.910000000000000000e+02,7.724358249520844488e+00
1.920000000000000000e+02,7.739491204066560215e+00
1.930000000000000000e+02,7.754400128269518966e+00
1.940000000000000000e+02,7.769082054078299215e+00
1.950000000000000000e+02,7.783535767668377403e+00
1.960000000000000000e+02,7.797759465369243692e+00
1.970000000000000000e+02,7.811750571395194243e+00
1.980000000000000000e+02,7.825507279330853549e+00
1.990000000000000000e+02,7.839028156142497039e+00
2.000000000000000000e+02,7.852310805567684682e+00
2.010000000000000000e+02,7.865355667386425331e+00
2.020000000000000000e+02,7.878160500056133664e+00
2.030000000000000000e+02,7.890723995409482328e+00
2.040000000000000000e+02,7.903046324778968845e+00
2.050000000000000000e+02,7.915127059998869008e+00
2.060000000000000000e+02,7.926965554691141058e+00
2.070000000000000000e+02,7.938562990110169970e+00
2.080000000000000000e+02,7.949918829212450966e+00
2.090000000000000000e+02,7.961086620497733968e+00
2.100000000000000000e+02,7.972000483068867993e+00
2.110000000000000000e+02,7.982682294678792090e+00
2.120000000000000000e+02,7.993140836505304492e+00
2.130000000000000000e+02,8.003379099256736851e+00
2.140000000000000000e+02,8.013396000489120041e+00
2.150000000000000000e+02,8.023189345235673287e+00
2.160000000000000000e+02,8.032757471221215084e+00
2.170000000000000000e+02,8.042100146275247496e+00
2.180000000000000000e+02,8.051219273387141939e+00
2.190000000000000000e+02,8.060117785682123781e+00
2.200000000000000000e+02,8.068800175538418884e+00
2.210000000000000000e+02,8.077271582447144382e+00
2.220000000000000000e+02,8.085538146599683174e+00
2.230000000000000000e+02,8.093605571674842736e+00
2.240000000000000000e+02,8.101480380320664310e+00
2.250000000000000000e+02,8.109168840803050671e+00
2.260000000000000000e+02,8.116677860571902769e+00
2.270000000000000000e+02,8.124014450987688818e+00
2.280000000000000000e+02,8.131185729165125053e+00
2.290000000000000000e+02,8.138198389515396869e+00
2.300000000000000000e+02,8.145059592179375585e+00
2.310000000000000000e+02,8.151776785402150338e+00
2.320000000000000000e+02,8.158356474506449629e+00
2.330000000000000000e+02,8.164806690094071229e+00
2.340000000000000000e+02,8.171133647053650861e+00
2.350000000000000000e+02,8.177345086787244810e+00
2.360000000000000000e+02,8.183447995162582700e+00
2.370000000000000000e+02,8.189448784573427176e+00
2.380000000000000000e+02,8.195355042656707667e+00
2.390000000000000000e+02,8.201173436886934454e+00
2.400000000000000000e+02,8.206910591582717629e+00
2.410000000000000000e+02,8.212906485767645037e+00
2.420000000000000000e+02,8.218693305610059952e+00
2.430000000000000000e+02,8.224395322132448172e+00
2.440000000000000000e+02,8.230035003660891135e+00
2.450000000000000000e+02,8.235606042306601537e+00
2.460000000000000000e+02,8.241108021671843531e+00
2.470000000000000000e+02,8.246543795039587010e+00
2.480000000000000000e+02,8.251920495484492690e+00
2.490000000000000000e+02,8.257247620154556600e+00
2.500000000000000000e+02,8.262532900814312242e+00
2.510000000000000000e+02,8.267786939758652309e+00
2.520000000000000000e+02,8.273016350968973143e+00
2.530000000000000000e+02,8.278227714634533996e+00
2.540000000000000000e+02,8.283426383422048289e+00
2.550000000000000000e+02,8.288618364639914304e+00
2.560000000000000000e+02,8.293807933748057692e+00
2.570000000000000000e+02,8.298999514806951083e+00
2.580000000000000000e+02,8.304196321503285461e+00
2.590000000000000000e+02,8.309403077278311400e+00
2.600000000000000000e+02,8.314621433965694308e+00
2.610000000000000000e+02,8.319856248132659005e+00
2.620000000000000000e+02,8.325109987107838450e+00
2.630000000000000000e+02,8.330385611518574152e+00
2.640000000000000000e+02,8.335685561185899317e+00
2.650000000000000000e+02,8.341011421746040710e+00
2.660000000000000000e+02,8.346366450570007700e+00
2.670000000000000000e+02,8.351753216334728336e+00
2.680000000000000000e+02,8.357174106040172745e+00
2.690000000000000000e+02,8.362630321641733033e+00
2.700000000000000000e+02,8.368123893620991183e+00
2.710000000000000000e+02,8.373657341503220053e+00
2.720000000000000000e+02,8.379232670047347398e+00
2.730000000000000000e+02,8.384852204930755448e+00
2.740000000000000000e+02,8.391563011787800619e+00
2.750000000000000000e+02,8.397792384048566205e+00
2.760000000000000000e+02,8.403879268490628718e+00
2.770000000000000000e+02,8.409898923162918649e+00
2.780000000000000000e+02,8.415872785573387915e+00
2.790000000000000000e+02,8.421835703477951185e+00
2.800000000000000000e+02,8.427814086761747703e+00
2.810000000000000000e+02,8.433828106304419592e+00
2.820000000000000000e+02,8.439891572483050552e+00
2.830000000000000000e+02,8.446011814852552035e+00
2.840000000000000000e+02,8.452195790397359687e+00
2.850000000000000000e+02,8.458446158348440491e+00
2.860000000000000000e+02,8.464766048901521955e+00
2.870000000000000000e+02,8.471157754189205136e+00
2.880000000000000000e+02,8.477622734099067969e+00
2.890000000000000000e+02,8.484163736398935285e+00
2.900000000000000000e+02,8.490783649805022648e+00
2.910000000000000000e+02,8.497482259980447594e+00
2.920000000000000000e+02,8.504260643858088997e+00
2.930000000000000000e+02,8.511122452048967446e+00
2.940000000000000000e+02,8.518067595586380492e+00
2.950000000000000000e+02,8.525100329394168952e+00
2.960000000000000000e+02,8.532222462469295721e+00
2.970000000000000000e+02,8.539434340737070528e+00
2.980000000000000000e+02,8.546741429529220113e+00
2.990000000000000000e+02,8.554146910287975913e+00
3.000000000000000000e+02,8.561649303790272114e+00
3.010000000000000000e+02,8.569253191339509357e+00
3.020000000000000000e+02,8.576961840865831022e+00
3.030000000000000000e+02,8.584780870918340412e+00
3.040000000000000000e+02,8.592707288565437196e+00
3.050000000000000000e+02,8.600745867782229936e+00
3.060000000000000000e+02,8.608900547542813086e+00
3.070000000000000000e+02,8.617177906628315398e+00
3.080000000000000000e+02,8.625577696468697653e+00
3.090000000000000000e+02,8.637270917947704518e+00
3.100000000000000000e+02,8.646825549120510601e+00
3.110000000000000000e+02,8.655757463054859713e+00
3.120000000000000000e+02,8.664635119133123453e+00
3.130000000000000000e+02,8.673589538082048023e+00
3.140000000000000000e+02,8.682696467067927415e+00
3.150000000000000000e+02,8.691971817720085980e+00
3.160000000000000000e+02,8.701431809484379443e+00
3.170000000000000000e+02,8.711075527457804668e+00
3.180000000000000000e+02,8.720907887762519906e+00
3.190000000000000000e+02,8.730933735531555939e+00
3.200000000000000000e+02,8.741146812590242732e+00
3.210000000000000000e+02,8.751550673357147758e+00
3.220000000000000000e+02,8.762155824516080216e+00
3.230000000000000000e+02,8.772963363390179126e+00
3.240000000000000000e+02,8.783983599692007260e+00
3.250000000000000000e+02,8.795220199252620219e+00
3.260000000000000000e+02,8.806677811511265830e+00
3.270000000000000000e+02,8.818364161830647419e+00
3.280000000000000000e+02,8.830285803717865534e+00
3.290000000000000000e+02,8.842448878944686896e+00
3.300000000000000000e+02,8.854862254498364393e+00
3.310000000000000000e+02,8.867532120511059546e+00
3.320000000000000000e+02,8.880471523375188525e+00
3.330000000000000000e+02,8.893687236262774576e+00
3.340000000000000000e+02,8.907192829264223732e+00
3.350000000000000000e+02,8.920990761530102731e+00
3.360000000000000000e+02,8.935083690095469322e+00
3.370000000000000000e+02,8.949500480091336030e+00
3.380000000000000000e+02,8.964241872625526852e+00
3.390000000000000000e+02,8.979314326190014128e+00
3.400000000000000000e+02,8.994736283957706746e+00
3.410000000000000000e+02,9.010510708059358720e+00
3.420000000000000000e+02,9.026651199915702861e+00
3.430000000000000000e+02,9.043170781022263682e+00
3.440000000000000000e+02,9.060076186593487790e+00
3.450000000000000000e+02,9.077380900486705428e+00
3.460000000000000000e+02,9.095095252427041643e+00
3.470000000000000000e+02,9.113224634406689617e+00
3.480000000000000000e+02,9.131780118050981443e+00
3.490000000000000000e+02,9.157349873673242158e+00
3.500000000000000000e+02,9.177735722813848085e+00
3.510000000000000000e+02,9.197388668098565034e+00
3.520000000000000000e+02,9.217558867707730030e+00
3.530000000000000000e+02,9.238202479181111926e+00
3.540000000000000000e+02,9.259342887430570102e+00
3.550000000000000000e+02,9.280974873486661281e+00
3.560000000000000000e+02,9.303094344913770186e+00
3.570000000000000000e+02,9.325699524163415077e+00
3.580000000000000000e+02,9.348779911574800039e+00
3.590000000000000000e+02,9.372323301020026420e+00
3.600000000000000000e+02,9.396332671660566405e+00
3.610000000000000000e+02,9.420801932537255396e+00
3.620000000000000000e+02,9.445709727691587787e+00
3.630000000000000000e+02,9.471052865790591468e+00
3.640000000000000000e+02,9.496809636333937377e+00
3.650000000000000000e+02,9.522959811009135578e+00
3.660000000000000000e+02,9.549486162944649692e+00
3.670000000000000000e+02,9.576363422841323469e+00
3.680000000000000000e+02,9.603571340429549963e+00
3.690000000000000000e+02,9.631072476864536824e+00
3.700000000000000000e+02,9.658833542971597907e+00
3.710000000000000000e+02,9.686835036596502135e+00
3.720000000000000000e+02,9.715053748518743149e+00
3.730000000000000000e+02,9.743429219776309935e+00
3.740000000000000000e+02,9.771950161834119797e+00
3.750000000000000000e+02,9.800566032494621993e+00
3.760000000000000000e+02,9.829257127218252066e+00
3.770000000000000000e+02,9.857972264693749764e+00
3.780000000000000000e+02,9.886685034706303554e+00
3.790000000000000000e+02,9.915371540518338023e+00
3.800000000000000000e+02,9.943997189732346698e+00
3.810000000000000000e+02,9.972523475923733116e+00
3.820000000000000000e+02,1.000093723246825306e+01
3.830000000000000000e+02,1.002920324854597389e+01
3.840000000000000000e+02,1.005730018102814682e+01
3.850000000000000000e+02,1.008520727516976834e+01
3.860000000000000000e+02,1.011290560307946862e+01
3.870000000000000000e+02,1.014037755360778981e+01
3.880000000000000000e+02,1.016760305480697824e+01
3.890000000000000000e+02,1.019458047036548010e+01
3.900000000000000000e+02,1.022129541022226817e+01
3.910000000000000000e+02,1.024774112271341053e+01
3.920000000000000000e+02,1.027390587321915305e+01
3.930000000000000000e+02,1.029977880393824208e+01
3.940000000000000000e+02,1.032536725489898188e+01
3.950000000000000000e+02,1.035066200585931284e+01
3.960000000000000000e+02,1.037566355696703901e+01
3.970000000000000000e+02,1.040036630957498254e+01
3.980000000000000000e+02,1.042477885120336367e+01
