# Time [s], Thickness [m]
1.000000000000000000e+00,8.000000400000000303e-03
2.000000000000000000e+00,8.000000400000000303e-03
3.000000000000000000e+00,8.000000400000000303e-03
4.000000000000000000e+00,8.000000400000000303e-03
5.000000000000000000e+00,8.000000400000000303e-03
6.000000000000000000e+00,8.000000400000000303e-03
7.000000000000000000e+00,8.000000400000000303e-03
8.000000000000000000e+00,7.999999400000000829e-03
9.000000000000000000e+00,7.999999400000000829e-03
1.000000000000000000e+01,7.999998499999999221e-03
1.100000000000000000e+01,7.999996699999999475e-03
1.200000000000000000e+01,7.999991999999999173e-03
1.300000000000000000e+01,7.999981800000000032e-03
1.400000000000000000e+01,7.999961300000000414e-03
1.500000000000000000e+01,7.999922099999999189e-03
1.600000000000000000e+01,7.999853200000000414e-03
1.700000000000000000e+01,7.999734999999999138e-03
1.800000000000000000e+01,7.999541199999999838e-03
1.900000000000000000e+01,7.999236700000000519e-03
2.000000000000000000e+01,7.998775700000000308e-03
2.100000000000000000e+01,7.998104199999999872e-03
2.200000000000000000e+01,7.997155199999999783e-03
2.300000000000000000e+01,7.995859699999999931e-03
2.400000000000000000e+01,7.994146100000000185e-03
2.500000000000000000e+01,7.991948199999999655e-03
2.600000000000000000e+01,7.989212900000000617e-03
2.700000000000000000e+01,7.985904800000000539e-03
2.800000000000000000e+01,7.982009099999999580e-03
2.900000000000000000e+01,7.977532199999999921e-03
3.000000000000000000e+01,7.972494700000000781e-03
3.100000000000000000e+01,7.966930000000000539e-03
3.200000000000000000e+01,7.960879199999999767e-03
3.300000000000000000e+01,7.954385099999999181e-03
3.400000000000000000e+01,7.947493300000000455e-03
3.500000000000000000e+01,7.940247699999999909e-03
3.600000000000000000e+01,7.932688999999999713e-03
3.700000000000000000e+01,7.924856600000000292e-03
3.800000000000000000e+01,7.916785799999999373e-03
3.900000000000000000e+01,7.908508200000000793e-03
4.000000000000000000e+01,7.900054599999999441e-03
4.100000000000000000e+01,7.891450100000000842e-03
4.200000000000000000e+01,7.882718000000000363e-03
4.300000000000000000e+01,7.873878799999999359e-03
4.400000000000000000e+01,7.864948400000000214e-03
4.500000000000000000e+01,7.855942499999999176e-03
4.600000000000000000e+01,7.846869500000000844e-03
4.700000000000000000e+01,7.837741599999999836e-03
4.800000000000000000e+01,7.828563499999999925e-03
4.900000000000000000e+01,7.819337799999999394e-03
5.000000000000000000e+01,7.810068300000000407e-03
5.100000000000000000e+01,7.800755999999999836e-03
5.200000000000000000e+01,7.791400900000000282e-03
5.300000000000000000e+01,7.782002900000000410e-03
5.400000000000000000e+01,7.772562999999999694e-03
5.500000000000000000e+01,7.763081699999999606e-03
5.600000000000000000e+01,7.753560300000000155e-03
5.700000000000000000e+01,7.744001700000000162e-03
5.800000000000000000e+01,7.734409099999999850e-03
5.900000000000000000e+01,7.724787099999999920e-03
6.000000000000000000e+01,7.715140500000000276e-03
6.100000000000000000e+01,7.705473800000000283e-03
6.200000000000000000e+01,7.695791799999999842e-03
6.300000000000000000e+01,7.686099499999999793e-03
6.400000000000000000e+01,7.676399300000000085e-03
6.500000000000000000e+01,7.666694899999999813e-03
6.600000000000000000e+01,7.656987300000000184e-03
6.700000000000000000e+01,7.647277299999999736e-03
6.800000000000000000e+01,7.637564999999999805e-03
6.900000000000000000e+01,7.627849899999999787e-03
7.000000000000000000e+01,7.618129300000000062e-03
7.100000000000000000e+01,7.608402499999999957e-03
7.200000000000000000e+01,7.598666900000000321e-03
7.300000000000000000e+01,7.588921600000000413e-03
7.400000000000000000e+01,7.574781299999999717e-03
7.500000000000000000e+01,7.563374900000000185e-03
7.600000000000000000e+01,7.553259799999999941e-03
7.700000000000000000e+01,7.542874199999999828e-03
7.800000000000000000e+01,7.532831700000000054e-03
7.900000000000000000e+01,7.522695200000000318e-03
8.000000000000000000e+01,7.512669999999999938e-03
8.100000000000000000e+01,7.502618200000000029e-03
8.200000000000000000e+01,7.492605599999999609e-03
8.300000000000000000e+01,7.482587399999999882e-03
8.400000000000000000e+01,7.472582200000000251e-03
8.500000000000000000e+01,7.462574199999999665e-03
8.600000000000000000e+01,7.452566199999999946e-03
8.700000000000000000e+01,7.442551700000000180e-03
8.800000000000000000e+01,7.432528300000000414e-03
8.900000000000000000e+01,7.422494200000000035e-03
9.000000000000000000e+01,7.412445699999999950e-03
9.100000000000000000e+01,7.402383299999999895e-03
9.200000000000000000e+01,7.392304899999999589e-03
9.300000000000000000e+01,7.382210800000000434e-03
9.400000000000000000e+01,7.372101800000000101e-03
9.500000000000000000e+01,7.361978800000000198e-03
9.600000000000000000e+01,7.351842199999999994e-03
9.700000000000000000e+01,7.341693199999999898e-03
9.800000000000000000e+01,7.331531999999999979e-03
9.900000000000000000e+01,7.321359599999999711e-03
1.000000000000000000e+02,7.311175599999999823e-03
1.010000000000000000e+02,7.300979499999999713e-03
1.020000000000000000e+02,7.290770299999999905e-03
1.030000000000000000e+02,7.280547200000000128e-03
1.040000000000000000e+02,7.270308700000000304e-03
1.050000000000000000e+02,7.260052999999999819e-03
1.060000000000000000e+02,7.249778099999999725e-03
1.070000000000000000e+02,7.239483799999999955e-03
1.080000000000000000e+02,7.229168000000000226e-03
1.090000000000000000e+02,7.218829399999999660e-03
1.100000000000000000e+02,7.208468400000000130e-03
1.110000000000000000e+02,7.198083200000000154e-03
1.120000000000000000e+02,7.187674300000000335e-03
1.130000000000000000e+02,7.177241099999999603e-03
1.140000000000000000e+02,7.166784300000000364e-03
1.150000000000000000e+02,7.155041200000000073e-03
1.160000000000000000e+02,7.143816400000000018e-03
1.170000000000000000e+02,7.132855199999999646e-03
1.180000000000000000e+02,7.122031400000000158e-03
1.190000000000000000e+02,7.111293299999999970e-03
1.200000000000000000e+02,7.100593300000000198e-03
1.210000000000000000e+02,7.089908199999999869e-03
1.220000000000000000e+02,7.079219000000000310e-03
1.230000000000000000e+02,7.068513900000000100e-03
1.240000000000000000e+02,7.057784600000000311e-03
1.250000000000000000e+02,7.047024100000000291e-03
1.260000000000000000e+02,7.036229599999999952e-03
1.270000000000000000e+02,7.025397400000000202e-03
1.280000000000000000e+02,7.014525599999999958e-03
1.290000000000000000e+02,7.003613300000000215e-03
1.300000000000000000e+02,6.992658599999999891e-03
1.310000000000000000e+02,6.981661499999999854e-03
1.320000000000000000e+02,6.970620700000000093e-03
1.330000000000000000e+02,6.959535600000000405e-03
1.340000000000000000e+02,6.948405399999999649e-03
1.350000000000000000e+02,6.937229500000000222e-03
1.360000000000000000e+02,6.926006200000000244e-03
1.370000000000000000e+02,6.914733900000000037e-03
1.380000000000000000e+02,6.903412299999999932e-03
1.390000000000000000e+02,6.892039899999999851e-03
1.400000000000000000e+02,6.880614400000000311e-03
1.410000000000000000e+02,6.869135000000000171e-03
1.420000000000000000e+02,6.857600499999999891e-03
1.430000000000000000e+02,6.846010199999999664e-03
1.440000000000000000e+02,6.834362200000000144e-03
1.450000000000000000e+02,6.822655000000000386e-03
1.460000000000000000e+02,6.810887699999999649e-03
1.470000000000000000e+02,6.799060400000000136e-03
1.480000000000000000e+02,6.787170200000000424e-03
1.490000000000000000e+02,6.775217099999999645e-03
1.500000000000000000e+02,6.763199299999999789e-03
1.510000000000000000e+02,6.751115900000000114e-03
1.520000000000000000e+02,6.738964899999999938e-03
1.530000000000000000e+02,6.725776499999999887e-03
1.540000000000000000e+02,6.712908400000000206e-03
1.550000000000000000e+02,6.700168799999999675e-03
1.560000000000000000e+02,6.687470200000000115e-03
1.570000000000000000e+02,6.674784700000000251e-03
1.580000000000000000e+02,6.662078699999999902e-03
1.590000000000000000e+02,6.649339100000000238e-03
1.600000000000000000e+02,6.636549299999999936e-03
1.610000000000000000e+02,6.623700700000000399e-03
1.620000000000000000e+02,6.610785099999999699e-03
1.630000000000000000e+02,6.597796900000000263e-03
1.640000000000000000e+02,6.584731400000000054e-03
1.650000000000000000e+02,6.571585300000000116e-03
1.660000000000000000e+02,6.558355400000000224e-03
1.670000000000000000e+02,6.545039800000000164e-03
1.680000000000000000e+02,6.531636700000000191e-03
1.690000000000000000e+02,6.518145099999999963e-03
1.700000000000000000e+02,6.504563599999999869e-03
1.710000000000000000e+02,6.490892300000000378e-03
1.720000000000000000e+02,6.477130600000000418e-03
1.730000000000000000e+02,6.463279500000000330e-03
1.740000000000000000e+02,6.449339000000000113e-03
1.750000000000000000e+02,6.435310500000000246e-03
1.760000000000000000e+02,6.421194899999999733e-03
1.770000000000000000e+02,6.406993599999999921e-03
1.780000000000000000e+02,6.392709400000000028e-03
1.790000000000000000e+02,6.378343800000000133e-03
1.800000000000000000e+02,6.363899400000000255e-03
1.810000000000000000e+02,6.349379199999999682e-03
1.820000000000000000e+02,6.334786299999999905e-03
1.830000000000000000e+02,6.320123100000000008e-03
1.840000000000000000e+02,6.304643100000000000e-03
1.850000000000000000e+02,6.289366600000000432e-03
1.860000000000000000e+02,6.274170699999999726e-03
1.870000000000000000e+02,6.259006400000000254e-03
1.880000000000000000e+02,6.243856600000000090e-03
1.890000000000000000e+02,6.228705400000000315e-03
1.900000000000000000e+02,6.213547699999999625e-03
1.910000000000000000e+02,6.198377300000000242e-03
1.920000000000000000e+02,6.183194000000000363e-03
1.930000000000000000e+02,6.167996700000000047e-03
1.940000000000000000e+02,6.152786300000000035e-03
1.950000000000000000e+02,6.137563399999999662e-03
1.960000000000000000e+02,6.122331100000000421e-03
1.970000000000000000e+02,6.107090499999999651e-03
1.980000000000000000e+02,6.091844800000000178e-03
1.990000000000000000e+02,6.076597100000000022e-03
2.000000000000000000e+02,6.061349500000000334e-03
2.010000000000000000e+02,6.046105199999999603e-03
2.020000000000000000e+02,6.030867300000000188e-03
2.030000000000000000e+02,6.015639300000000245e-03
2.040000000000000000e+02,6.000422899999999921e-03
2.050000000000000000e+02,5.985221800000000043e-03
2.060000000000000000e+02,5.970038500000000165e-03
2.070000000000000000e+02,5.954875099999999699e-03
2.080000000000000000e+02,5.939734599999999670e-03
2.090000000000000000e+02,5.924619300000000428e-03
2.100000000000000000e+02,5.909530900000000385e-03
2.110000000000000000e+02,5.894471899999999959e-03
2.120000000000000000e+02,5.878886199999999902e-03
2.130000000000000000e+02,5.863503100000000412e-03
2.140000000000000000e+02,5.848251300000000159e-03
2.150000000000000000e+02,5.833099100000000044e-03
2.160000000000000000e+02,5.818032199999999959e-03
2.170000000000000000e+02,5.803038400000000083e-03
2.180000000000000000e+02,5.788112500000000375e-03
2.190000000000000000e+02,5.773248600000000126e-03
2.200000000000000000e+02,5.758444799999999988e-03
2.210000000000000000e+02,5.743697800000000138e-03
2.220000000000000000e+02,5.729006600000000234e-03
2.230000000000000000e+02,5.714369500000000129e-03
2.240000000000000000e+02,5.699785899999999621e-03
2.250000000000000000e+02,5.685254899999999702e-03
2.260000000000000000e+02,5.670776599999999973e-03
2.270000000000000000e+02,5.656349500000000356e-03
2.280000000000000000e+02,5.641974499999999858e-03
2.290000000000000000e+02,5.627651200000000076e-03
2.300000000000000000e+02,5.613379600000000143e-03
2.310000000000000000e+02,5.599159700000000059e-03
2.320000000000000000e+02,5.584992000000000428e-03
2.330000000000000000e+02,5.570876399999999916e-03
2.340000000000000000e+02,5.556813399999999993e-03
2.350000000000000000e+02,5.542803599999999997e-03
2.360000000000000000e+02,5.528846799999999860e-03
2.370000000000000000e+02,5.514943999999999923e-03
2.380000000000000000e+02,5.501095699999999922e-03
2.390000000000000000e+02,5.487302799999999731e-03
2.400000000000000000e+02,5.473565300000000217e-03
2.410000000000000000e+02,5.459442699999999919e-03
2.420000000000000000e+02,5.445497100000000132e-03
2.430000000000000000e+02,5.431681899999999709e-03
2.440000000000000000e+02,5.417975600000000426e-03
2.450000000000000000e+02,5.404367099999999799e-03
2.460000000000000000e+02,5.390848000000000168e-03
2.470000000000000000e+02,5.377415099999999573e-03
2.480000000000000000e+02,5.364063700000000316e-03
2.490000000000000000e+02,5.350792800000000321e-03
2.500000000000000000e+02,5.337599699999999968e-03
2.510000000000000000e+02,5.324484800000000261e-03
2.520000000000000000e+02,5.311447199999999591e-03
2.530000000000000000e+02,5.298486899999999694e-03
2.540000000000000000e+02,5.285604400000000307e-03
2.550000000000000000e+02,5.272800599999999567e-03
2.560000000000000000e+02,5.260076399999999951e-03
2.570000000000000000e+02,5.247433200000000200e-03
2.580000000000000000e+02,5.234872500000000393e-03
2.590000000000000000e+02,5.222395999999999809e-03
2.600000000000000000e+02,5.210005699999999997e-03
2.610000000000000000e+02,5.197704299999999708e-03
2.620000000000000000e+02,5.185493700000000025e-03
2.630000000000000000e+02,5.173376799999999769e-03
2.640000000000000000e+02,5.161357099999999698e-03
2.650000000000000000e+02,5.149437100000000232e-03
2.660000000000000000e+02,5.137620499999999597e-03
2.670000000000000000e+02,5.125911000000000356e-03
2.680000000000000000e+02,5.114313199999999740e-03
2.690000000000000000e+02,5.102831399999999649e-03
2.700000000000000000e+02,5.091469700000000181e-03
2.710000000000000000e+02,5.080233800000000244e-03
2.720000000000000000e+02,5.069129599999999680e-03
2.730000000000000000e+02,5.058162399999999864e-03
2.740000000000000000e+02,5.047053600000000334e-03
2.750000000000000000e+02,5.036173900000000432e-03
2.760000000000000000e+02,5.025508300000000247e-03
2.770000000000000000e+02,5.015051500000000141e-03
2.780000000000000000e+02,5.004801799999999967e-03
2.790000000000000000e+02,4.994761700000000144e-03
2.800000000000000000e+02,4.984936700000000380e-03
2.810000000000000000e+02,4.975334300000000196e-03
2.820000000000000000e+02,4.965964699999999600e-03
2.830000000000000000e+02,4.956839600000000415e-03
2.840000000000000000e+02,4.947971599999999998e-03
2.850000000000000000e+02,4.939376399999999799e-03
2.860000000000000000e+02,4.931069899999999603e-03
2.870000000000000000e+02,4.923069799999999809e-03
2.880000000000000000e+02,4.915396699999999633e-03
2.890000000000000000e+02,4.908071400000000098e-03
2.900000000000000000e+02,4.901116199999999701e-03
2.910000000000000000e+02,4.894555499999999823e-03
2.920000000000000000e+02,4.888414399999999917e-03
2.930000000000000000e+02,4.882718399999999570e-03
2.940000000000000000e+02,4.877492800000000038e-03
2.950000000000000000e+02,4.872762099999999701e-03
2.960000000000000000e+02,4.868548399999999589e-03
2.970000000000000000e+02,4.864867800000000422e-03
2.980000000000000000e+02,4.861730199999999939e-03
2.990000000000000000e+02,4.859134600000000401e-03
3.000000000000000000e+02,4.857066099999999761e-03
3.010000000000000000e+02,4.855491200000000042e-03
3.020000000000000000e+02,4.854357299999999785e-03
3.030000000000000000e+02,4.853593199999999865e-03
3.040000000000000000e+02,4.853114999999999860e-03
3.050000000000000000e+02,4.852837399999999739e-03
3.060000000000000000e+02,4.852687500000000230e-03
3.070000000000000000e+02,4.852611100000000198e-03
3.080000000000000000e+02,4.852573399999999919e-03
3.090000000000000000e+02,4.852555199999999784e-03
3.100000000000000000e+02,4.852546400000000253e-03
3.110000000000000000e+02,4.852542199999999688e-03
3.120000000000000000e+02,4.852539900000000204e-03
3.130000000000000000e+02,4.852538899999999863e-03
3.140000000000000000e+02,4.852537999999999990e-03
3.150000000000000000e+02,4.852537999999999990e-03
3.160000000000000000e+02,4.852537500000000253e-03
3.170000000000000000e+02,4.852537500000000253e-03
3.180000000000000000e+02,4.852537500000000253e-03
3.190000000000000000e+02,4.852537500000000253e-03
3.200000000000000000e+02,4.852537500000000253e-03
3.210000000000000000e+02,4.852537500000000253e-03
3.220000000000000000e+02,4.852537500000000253e-03
3.230000000000000000e+02,4.852537500000000253e-03
3.240000000000000000e+02,4.852537500000000253e-03
3.250000000000000000e+02,4.852537500000000253e-03
3.260000000000000000e+02,4.852537500000000253e-03
3.270000000000000000e+02,4.852537500000000253e-03
3.280000000000000000e+02,4.852537500000000253e-03
3.290000000000000000e+02,4.852537500000000253e-03
3.300000000000000000e+02,4.852537500000000253e-03
3.310000000000000000e+02,4.852537500000000253e-03
3.320000000000000000e+02,4.852537500000000253e-03
3.330000000000000000e+02,4.852537500000000253e-03
3.340000000000000000e+02,4.852537500000000253e-03
3.350000000000000000e+02,4.852537500000000253e-03
3.360000000000000000e+02,4.852537500000000253e-03
3.370000000000000000e+02,4.852537500000000253e-03
3.380000000000000000e+02,4.852537500000000253e-03
3.390000000000000000e+02,4.852537500000000253e-03
3.400000000000000000e+02,4.852537500000000253e-03
3.410000000000000000e+02,4.852537500000000253e-03
3.420000000000000000e+02,4.852537500000000253e-03
3.430000000000000000e+02,4.852537500000000253e-03
3.440000000000000000e+02,4.852537500000000253e-03
3.450000000000000000e+02,4.852537500000000253e-03
3.460000000000000000e+02,4.852537500000000253e-03
3.470000000000000000e+02,4.852537500000000253e-03
3.480000000000000000e+02,4.852537500000000253e-03
3.490000000000000000e+02,4.852537500000000253e-03
3.500000000000000000e+02,4.852537500000000253e-03
3.510000000000000000e+02,4.852537500000000253e-03
3.520000000000000000e+02,4.852537500000000253e-03
3.530000000000000000e+02,4.852537500000000253e-03
3.540000000000000000e+02,4.852537500000000253e-03
3.550000000000000000e+02,4.852537500000000253e-03
3.560000000000000000e+02,4.852537500000000253e-03
3.570000000000000000e+02,4.852537500000000253e-03
3.580000000000000000e+02,4.852537500000000253e-03
3.590000000000000000e+02,4.852537500000000253e-03
3.600000000000000000e+02,4.852537500000000253e-03
3.610000000000000000e+02,4.852537500000000253e-03
3.620000000000000000e+02,4.852537500000000253e-03
3.630000000000000000e+02,4.852537500000000253e-03
3.640000000000000000e+02,4.852537500000000253e-03
3.650000000000000000e+02,4.852537500000000253e-03
3.660000000000000000e+02,4.852537500000000253e-03
3.670000000000000000e+02,4.852537500000000253e-03
3.680000000000000000e+02,4.852537500000000253e-03
3.690000000000000000e+02,4.852537500000000253e-03
3.700000000000000000e+02,4.852537500000000253e-03
3.710000000000000000e+02,4.852537500000000253e-03
3.720000000000000000e+02,4.852537500000000253e-03
3.730000000000000000e+02,4.852537500000000253e-03
3.740000000000000000e+02,4.852537500000000253e-03
3.750000000000000000e+02,4.852537500000000253e-03
3.760000000000000000e+02,4.852537500000000253e-03
3.770000000000000000e+02,4.852537500000000253e-03
3.780000000000000000e+02,4.852537500000000253e-03
3.790000000000000000e+02,4.852537500000000253e-03
3.800000000000000000e+02,4.852537500000000253e-03
3.810000000000000000e+02,4.852537500000000253e-03
3.820000000000000000e+02,4.852537500000000253e-03
3.830000000000000000e+02,4.852537500000000253e-03
3.840000000000000000e+02,4.852537500000000253e-03
3.850000000000000000e+02,4.852537500000000253e-03
3.860000000000000000e+02,4.852537500000000253e-03
3.870000000000000000e+02,4.852537500000000253e-03
3.880000000000000000e+02,4.852537500000000253e-03
3.890000000000000000e+02,4.852537500000000253e-03
3.900000000000000000e+02,4.852537500000000253e-03
3.910000000000000000e+02,4.852537500000000253e-03
3.920000000000000000e+02,4.852537500000000253e-03
3.930000000000000000e+02,4.852537500000000253e-03
3.940000000000000000e+02,4.852537500000000253e-03
3.950000000000000000e+02,4.852537500000000253e-03
3.960000000000000000e+02,4.852537500000000253e-03
3.970000000000000000e+02,4.852537500000000253e-03
3.980000000000000000e+02,4.852537500000000253e-03
3.990000000000000000e+02,4.852537500000000253e-03
