# Time [s], Mass [Kg]
1.000000000000000000e+00,1.000000000000000000e+00
2.000000000000000000e+00,1.000000000000000000e+00
3.000000000000000000e+00,1.000000000000000000e+00
4.000000000000000000e+00,1.000000000000000000e+00
5.000000000000000000e+00,1.000000000000000000e+00
6.000000000000000000e+00,1.000000000000000000e+00
7.000000000000000000e+00,1.000000000000000000e+00
8.000000000000000000e+00,1.000000000000000000e+00
9.000000000000000000e+00,1.000000000000000000e+00
1.000000000000000000e+01,1.000000000000000000e+00
1.100000000000000000e+01,1.000000000000000000e+00
1.200000000000000000e+01,1.000000000000000000e+00
1.300000000000000000e+01,9.999999400000000316e-01
1.400000000000000000e+01,9.999998799999999521e-01
1.500000000000000000e+01,9.999997600000000153e-01
1.600000000000000000e+01,9.999995799999999990e-01
1.700000000000000000e+01,9.999991700000000483e-01
1.800000000000000000e+01,9.999985099999999516e-01
1.900000000000000000e+01,9.999974400000000152e-01
2.000000000000000000e+01,9.999957099999999821e-01
2.100000000000000000e+01,9.999930900000000289e-01
2.200000000000000000e+01,9.999890900000000249e-01
2.300000000000000000e+01,9.999831300000000534e-01
2.400000000000000000e+01,9.999744900000000492e-01
2.500000000000000000e+01,9.999622700000000419e-01
2.600000000000000000e+01,9.999452199999999680e-01
2.700000000000000000e+01,9.999218600000000512e-01
2.800000000000000000e+01,9.998904499999999862e-01
2.900000000000000000e+01,9.998489000000000404e-01
3.000000000000000000e+01,9.997949000000000419e-01
3.100000000000000000e+01,9.997256399999999710e-01
3.200000000000000000e+01,9.996382600000000007e-01
3.300000000000000000e+01,9.995294200000000018e-01
3.400000000000000000e+01,9.993958499999999745e-01
3.500000000000000000e+01,9.992341399999999929e-01
3.600000000000000000e+01,9.990409599999999779e-01
3.700000000000000000e+01,9.988132100000000069e-01
3.800000000000000000e+01,9.985481499999999677e-01
3.900000000000000000e+01,9.982433299999999843e-01
4.000000000000000000e+01,9.978971500000000106e-01
4.100000000000000000e+01,9.975083500000000436e-01
4.200000000000000000e+01,9.970761500000000499e-01
4.300000000000000000e+01,9.966007500000000352e-01
4.400000000000000000e+01,9.960826000000000402e-01
4.500000000000000000e+01,9.955222599999999922e-01
4.600000000000000000e+01,9.949212699999999687e-01
4.700000000000000000e+01,9.942812899999999843e-01
4.800000000000000000e+01,9.936034700000000441e-01
4.900000000000000000e+01,9.928902400000000350e-01
5.000000000000000000e+01,9.921433299999999900e-01
5.100000000000000000e+01,9.913641199999999598e-01
5.200000000000000000e+01,9.905551700000000404e-01
5.300000000000000000e+01,9.897181999999999924e-01
5.400000000000000000e+01,9.888542299999999452e-01
5.500000000000000000e+01,9.878134100000000029e-01
5.600000000000000000e+01,9.868867399999999845e-01
5.700000000000000000e+01,9.859268100000000423e-01
5.800000000000000000e+01,9.849568600000000451e-01
5.900000000000000000e+01,9.839665300000000059e-01
6.000000000000000000e+01,9.829586099999999549e-01
6.100000000000000000e+01,9.819335300000000544e-01
6.200000000000000000e+01,9.808927800000000197e-01
6.300000000000000000e+01,9.798359300000000216e-01
6.400000000000000000e+01,9.787650100000000464e-01
6.500000000000000000e+01,9.776809800000000328e-01
6.600000000000000000e+01,9.765832399999999636e-01
6.700000000000000000e+01,9.754736400000000307e-01
6.800000000000000000e+01,9.743528999999999662e-01
6.900000000000000000e+01,9.732201700000000510e-01
7.000000000000000000e+01,9.720771299999999560e-01
7.100000000000000000e+01,9.709244399999999997e-01
7.200000000000000000e+01,9.697610700000000028e-01
7.300000000000000000e+01,9.685884099999999552e-01
7.400000000000000000e+01,9.674069899999999667e-01
7.500000000000000000e+01,9.662157900000000188e-01
7.600000000000000000e+01,9.650161299999999720e-01
7.700000000000000000e+01,9.638084199999999990e-01
7.800000000000000000e+01,9.625915900000000525e-01
7.900000000000000000e+01,9.613669500000000534e-01
8.000000000000000000e+01,9.601349200000000028e-01
8.100000000000000000e+01,9.588944900000000438e-01
8.200000000000000000e+01,9.576468500000000494e-01
8.300000000000000000e+01,9.563924099999999706e-01
8.400000000000000000e+01,9.551303399999999666e-01
8.500000000000000000e+01,9.538616500000000054e-01
8.600000000000000000e+01,9.525867700000000271e-01
8.700000000000000000e+01,9.513049700000000275e-01
8.800000000000000000e+01,9.500170900000000085e-01
8.900000000000000000e+01,9.487237299999999873e-01
9.000000000000000000e+01,9.474241100000000415e-01
9.100000000000000000e+01,9.461189500000000141e-01
9.200000000000000000e+01,9.448086599999999668e-01
9.300000000000000000e+01,9.434927100000000122e-01
9.400000000000000000e+01,9.421716900000000061e-01
9.500000000000000000e+01,9.408459099999999520e-01
9.600000000000000000e+01,9.395148800000000522e-01
9.700000000000000000e+01,9.381790199999999746e-01
9.800000000000000000e+01,9.368386899999999740e-01
9.900000000000000000e+01,9.354934099999999697e-01
1.000000000000000000e+02,9.341434800000000260e-01
1.010000000000000000e+02,9.327892100000000353e-01
1.020000000000000000e+02,9.314302199999999754e-01
1.030000000000000000e+02,9.300667599999999924e-01
1.040000000000000000e+02,9.286990200000000417e-01
1.050000000000000000e+02,9.273268000000000066e-01
1.060000000000000000e+02,9.259500499999999690e-01
1.070000000000000000e+02,9.245692500000000091e-01
1.080000000000000000e+02,9.231839200000000467e-01
1.090000000000000000e+02,9.217942999999999554e-01
1.100000000000000000e+02,9.204005600000000342e-01
1.110000000000000000e+02,9.190024700000000157e-01
1.120000000000000000e+02,9.176001499999999478e-01
1.130000000000000000e+02,9.159250899999999973e-01
1.140000000000000000e+02,9.143235699999999744e-01
1.150000000000000000e+02,9.128106799999999854e-01
1.160000000000000000e+02,9.113125800000000387e-01
1.170000000000000000e+02,9.098323000000000382e-01
1.180000000000000000e+02,9.083560699999999599e-01
1.190000000000000000e+02,9.068833600000000272e-01
1.200000000000000000e+02,9.054102899999999510e-01
1.210000000000000000e+02,9.039360899999999699e-01
1.220000000000000000e+02,9.024596799999999863e-01
1.230000000000000000e+02,9.009803499999999854e-01
1.240000000000000000e+02,8.994977499999999848e-01
1.250000000000000000e+02,8.980115100000000128e-01
1.260000000000000000e+02,8.965212099999999573e-01
1.270000000000000000e+02,8.950268000000000113e-01
1.280000000000000000e+02,8.935281000000000473e-01
1.290000000000000000e+02,8.920249900000000176e-01
1.300000000000000000e+02,8.905173499999999853e-01
1.310000000000000000e+02,8.890050099999999844e-01
1.320000000000000000e+02,8.874879500000000254e-01
1.330000000000000000e+02,8.859662400000000160e-01
1.340000000000000000e+02,8.844395900000000532e-01
1.350000000000000000e+02,8.829081699999999922e-01
1.360000000000000000e+02,8.813718000000000385e-01
1.370000000000000000e+02,8.798304200000000019e-01
1.380000000000000000e+02,8.782840400000000436e-01
1.390000000000000000e+02,8.767325299999999544e-01
1.400000000000000000e+02,8.751759500000000358e-01
1.410000000000000000e+02,8.736141899999999572e-01
1.420000000000000000e+02,8.720470099999999558e-01
1.430000000000000000e+02,8.704746399999999662e-01
1.440000000000000000e+02,8.688967800000000352e-01
1.450000000000000000e+02,8.673134999999999595e-01
1.460000000000000000e+02,8.657247399999999926e-01
1.470000000000000000e+02,8.641303200000000073e-01
1.480000000000000000e+02,8.625302299999999533e-01
1.490000000000000000e+02,8.609243600000000551e-01
1.500000000000000000e+02,8.593127099999999796e-01
1.510000000000000000e+02,8.576951000000000436e-01
1.520000000000000000e+02,8.560714099999999771e-01
1.530000000000000000e+02,8.544416999999999707e-01
1.540000000000000000e+02,8.528058499999999764e-01
1.550000000000000000e+02,8.511635699999999805e-01
1.560000000000000000e+02,8.495150200000000096e-01
1.570000000000000000e+02,8.478599799999999576e-01
1.580000000000000000e+02,8.461984399999999962e-01
1.590000000000000000e+02,8.445300500000000321e-01
1.600000000000000000e+02,8.427828000000000541e-01
1.610000000000000000e+02,8.410441899999999693e-01
1.620000000000000000e+02,8.393132100000000317e-01
1.630000000000000000e+02,8.375852700000000484e-01
1.640000000000000000e+02,8.358576899999999865e-01
1.650000000000000000e+02,8.341280800000000495e-01
1.660000000000000000e+02,8.323950799999999539e-01
1.670000000000000000e+02,8.306571799999999950e-01
1.680000000000000000e+02,8.289136900000000363e-01
1.690000000000000000e+02,8.271639299999999917e-01
1.700000000000000000e+02,8.254073299999999946e-01
1.710000000000000000e+02,8.236434500000000547e-01
1.720000000000000000e+02,8.218719399999999675e-01
1.730000000000000000e+02,8.200925000000000020e-01
1.740000000000000000e+02,8.183048400000000333e-01
1.750000000000000000e+02,8.165088900000000427e-01
1.760000000000000000e+02,8.147044199999999847e-01
1.770000000000000000e+02,8.128912400000000149e-01
1.780000000000000000e+02,8.110691300000000270e-01
1.790000000000000000e+02,8.092380200000000023e-01
1.800000000000000000e+02,8.073977199999999854e-01
1.810000000000000000e+02,8.055481899999999973e-01
1.820000000000000000e+02,8.036892399999999714e-01
1.830000000000000000e+02,8.018208100000000504e-01
1.840000000000000000e+02,7.999427300000000463e-01
1.850000000000000000e+02,7.980548100000000034e-01
1.860000000000000000e+02,7.961570599999999720e-01
1.870000000000000000e+02,7.942493600000000153e-01
1.880000000000000000e+02,7.923315800000000353e-01
1.890000000000000000e+02,7.904035999999999840e-01
1.900000000000000000e+02,7.884654399999999619e-01
1.910000000000000000e+02,7.865170200000000111e-01
1.920000000000000000e+02,7.845581200000000255e-01
1.930000000000000000e+02,7.825888399999999523e-01
1.940000000000000000e+02,7.806091299999999844e-01
1.950000000000000000e+02,7.786189300000000424e-01
1.960000000000000000e+02,7.766182999999999836e-01
1.970000000000000000e+02,7.746071199999999823e-01
1.980000000000000000e+02,7.725854500000000069e-01
1.990000000000000000e+02,7.704991100000000426e-01
2.000000000000000000e+02,7.684150899999999673e-01
2.010000000000000000e+02,7.663297700000000212e-01
2.020000000000000000e+02,7.642406800000000056e-01
2.030000000000000000e+02,7.621464700000000203e-01
2.040000000000000000e+02,7.600460599999999678e-01
2.050000000000000000e+02,7.579389199999999605e-01
2.060000000000000000e+02,7.558244499999999810e-01
2.070000000000000000e+02,7.537024599999999630e-01
2.080000000000000000e+02,7.515726700000000537e-01
2.090000000000000000e+02,7.494350699999999810e-01
2.100000000000000000e+02,7.472896599999999667e-01
2.110000000000000000e+02,7.451365599999999478e-01
2.120000000000000000e+02,7.429758300000000037e-01
2.130000000000000000e+02,7.408076500000000397e-01
2.140000000000000000e+02,7.386323799999999773e-01
2.150000000000000000e+02,7.364501399999999753e-01
2.160000000000000000e+02,7.342612099999999975e-01
2.170000000000000000e+02,7.320660399999999735e-01
2.180000000000000000e+02,7.298649000000000386e-01
2.190000000000000000e+02,7.276580900000000351e-01
2.200000000000000000e+02,7.254461100000000329e-01
2.210000000000000000e+02,7.232292299999999452e-01
2.220000000000000000e+02,7.210078199999999660e-01
2.230000000000000000e+02,7.187823100000000354e-01
2.240000000000000000e+02,7.165530300000000352e-01
2.250000000000000000e+02,7.143204800000000354e-01
2.260000000000000000e+02,7.120850100000000182e-01
2.270000000000000000e+02,7.098470300000000455e-01
2.280000000000000000e+02,7.076069099999999779e-01
2.290000000000000000e+02,7.053650000000000198e-01
2.300000000000000000e+02,7.031217199999999501e-01
2.310000000000000000e+02,7.008774300000000235e-01
2.320000000000000000e+02,6.985911700000000391e-01
2.330000000000000000e+02,6.963124899999999506e-01
2.340000000000000000e+02,6.940393999999999730e-01
2.350000000000000000e+02,6.917709699999999851e-01
2.360000000000000000e+02,6.895066499999999987e-01
2.370000000000000000e+02,6.872459699999999838e-01
2.380000000000000000e+02,6.849887999999999533e-01
2.390000000000000000e+02,6.827349700000000521e-01
2.400000000000000000e+02,6.804843499999999601e-01
2.410000000000000000e+02,6.782370199999999683e-01
2.420000000000000000e+02,6.759930800000000239e-01
2.430000000000000000e+02,6.737524900000000372e-01
2.440000000000000000e+02,6.715153499999999553e-01
2.450000000000000000e+02,6.692817199999999689e-01
2.460000000000000000e+02,6.670517299999999539e-01
2.470000000000000000e+02,6.648254399999999897e-01
2.480000000000000000e+02,6.626028999999999947e-01
2.490000000000000000e+02,6.603843600000000036e-01
2.500000000000000000e+02,6.581698700000000457e-01
2.510000000000000000e+02,6.559594899999999784e-01
2.520000000000000000e+02,6.537533399999999606e-01
2.530000000000000000e+02,6.515515400000000401e-01
2.540000000000000000e+02,6.493540399999999657e-01
2.550000000000000000e+02,6.471610700000000049e-01
2.560000000000000000e+02,6.449726799999999649e-01
2.570000000000000000e+02,6.427888899999999461e-01
2.580000000000000000e+02,6.406097400000000386e-01
2.590000000000000000e+02,6.384353600000000073e-01
2.600000000000000000e+02,6.362658100000000427e-01
2.610000000000000000e+02,6.341012099999999707e-01
2.620000000000000000e+02,6.319414399999999654e-01
2.630000000000000000e+02,6.297867299999999613e-01
2.640000000000000000e+02,6.276031100000000196e-01
2.650000000000000000e+02,6.254302299999999759e-01
2.660000000000000000e+02,6.232663999999999982e-01
2.670000000000000000e+02,6.211109200000000108e-01
2.680000000000000000e+02,6.189630600000000094e-01
2.690000000000000000e+02,6.168225400000000302e-01
2.700000000000000000e+02,6.146888700000000538e-01
2.710000000000000000e+02,6.125619399999999715e-01
2.720000000000000000e+02,6.104415100000000205e-01
2.730000000000000000e+02,6.083275099999999602e-01
2.740000000000000000e+02,6.062197700000000467e-01
2.750000000000000000e+02,6.041182299999999783e-01
2.760000000000000000e+02,6.020228300000000088e-01
2.770000000000000000e+02,5.999335099999999477e-01
2.780000000000000000e+02,5.978501999999999983e-01
2.790000000000000000e+02,5.957727999999999913e-01
2.800000000000000000e+02,5.937012999999999874e-01
2.810000000000000000e+02,5.916357599999999550e-01
2.820000000000000000e+02,5.895760700000000076e-01
2.830000000000000000e+02,5.875223299999999815e-01
2.840000000000000000e+02,5.854743700000000217e-01
2.850000000000000000e+02,5.834323799999999727e-01
2.860000000000000000e+02,5.813962799999999875e-01
2.870000000000000000e+02,5.793660899999999447e-01
2.880000000000000000e+02,5.773418500000000453e-01
2.890000000000000000e+02,5.753235199999999772e-01
2.900000000000000000e+02,5.733112099999999600e-01
2.910000000000000000e+02,5.713048600000000254e-01
2.920000000000000000e+02,5.693045300000000308e-01
2.930000000000000000e+02,5.673102700000000054e-01
2.940000000000000000e+02,5.653221600000000180e-01
2.950000000000000000e+02,5.633401900000000184e-01
2.960000000000000000e+02,5.613644100000000359e-01
2.970000000000000000e+02,5.593949599999999966e-01
2.980000000000000000e+02,5.574317600000000539e-01
2.990000000000000000e+02,5.554460900000000034e-01
3.000000000000000000e+02,5.534712699999999597e-01
3.010000000000000000e+02,5.515060999999999991e-01
3.020000000000000000e+02,5.495499400000000145e-01
3.030000000000000000e+02,5.476024699999999523e-01
3.040000000000000000e+02,5.456634200000000101e-01
3.050000000000000000e+02,5.437326999999999577e-01
3.060000000000000000e+02,5.418101499999999904e-01
3.070000000000000000e+02,5.398957100000000286e-01
3.080000000000000000e+02,5.379894400000000410e-01
3.090000000000000000e+02,5.360913299999999770e-01
3.100000000000000000e+02,5.342012600000000111e-01
3.110000000000000000e+02,5.323194300000000379e-01
3.120000000000000000e+02,5.304457500000000492e-01
3.130000000000000000e+02,5.285803100000000532e-01
3.140000000000000000e+02,5.267232099999999972e-01
3.150000000000000000e+02,5.248744499999999924e-01
3.160000000000000000e+02,5.230342100000000549e-01
3.170000000000000000e+02,5.212025599999999814e-01
3.180000000000000000e+02,5.193796800000000102e-01
3.190000000000000000e+02,5.175656100000000093e-01
3.200000000000000000e+02,5.157606000000000135e-01
3.210000000000000000e+02,5.139647699999999597e-01
3.220000000000000000e+02,5.121784200000000231e-01
3.230000000000000000e+02,5.104016099999999501e-01
3.240000000000000000e+02,5.086345100000000397e-01
3.250000000000000000e+02,5.068774799999999914e-01
3.260000000000000000e+02,5.051306500000000144e-01
3.270000000000000000e+02,5.033943100000000115e-01
3.280000000000000000e+02,5.016686900000000282e-01
3.290000000000000000e+02,4.999540199999999990e-01
3.300000000000000000e+02,4.982506899999999961e-01
3.310000000000000000e+02,4.965589000000000253e-01
3.320000000000000000e+02,4.948791300000000004e-01
3.330000000000000000e+02,4.932116300000000120e-01
3.340000000000000000e+02,4.915567900000000212e-01
3.350000000000000000e+02,4.899150400000000238e-01
3.360000000000000000e+02,4.882867300000000021e-01
3.370000000000000000e+02,4.866723700000000208e-01
3.380000000000000000e+02,4.850723399999999907e-01
3.390000000000000000e+02,4.834871900000000111e-01
3.400000000000000000e+02,4.819174399999999747e-01
3.410000000000000000e+02,4.803476600000000096e-01
3.420000000000000000e+02,4.787961199999999917e-01
3.430000000000000000e+02,4.772633299999999856e-01
3.440000000000000000e+02,4.757500299999999904e-01
3.450000000000000000e+02,4.742567500000000047e-01
3.460000000000000000e+02,4.727841300000000246e-01
3.470000000000000000e+02,4.713328199999999857e-01
3.480000000000000000e+02,4.699034699999999898e-01
3.490000000000000000e+02,4.684968899999999992e-01
3.500000000000000000e+02,4.671139400000000053e-01
3.510000000000000000e+02,4.657554600000000100e-01
3.520000000000000000e+02,4.644225200000000053e-01
3.530000000000000000e+02,4.631161400000000095e-01
3.540000000000000000e+02,4.618374399999999880e-01
3.550000000000000000e+02,4.605876500000000151e-01
3.560000000000000000e+02,4.593680199999999880e-01
3.570000000000000000e+02,4.581800100000000264e-01
3.580000000000000000e+02,4.570250499999999882e-01
3.590000000000000000e+02,4.559047199999999855e-01
3.600000000000000000e+02,4.548206900000000275e-01
3.610000000000000000e+02,4.537747799999999887e-01
3.620000000000000000e+02,4.527687699999999871e-01
3.630000000000000000e+02,4.518046399999999796e-01
3.640000000000000000e+02,4.508843699999999788e-01
3.650000000000000000e+02,4.500100899999999737e-01
3.660000000000000000e+02,4.491838200000000114e-01
3.670000000000000000e+02,4.484077399999999991e-01
3.680000000000000000e+02,4.476838100000000153e-01
3.690000000000000000e+02,4.470139399999999985e-01
3.700000000000000000e+02,4.463996900000000156e-01
3.710000000000000000e+02,4.458423300000000089e-01
3.720000000000000000e+02,4.453425699999999932e-01
3.730000000000000000e+02,4.449005100000000268e-01
3.740000000000000000e+02,4.445153499999999758e-01
3.750000000000000000e+02,4.441855000000000109e-01
3.760000000000000000e+02,4.439082400000000095e-01
3.770000000000000000e+02,4.436800200000000083e-01
3.780000000000000000e+02,4.434963199999999994e-01
3.790000000000000000e+02,4.433520100000000186e-01
3.800000000000000000e+02,4.432415100000000052e-01
3.810000000000000000e+02,4.431592200000000203e-01
3.820000000000000000e+02,4.430997700000000039e-01
3.830000000000000000e+02,4.430581599999999787e-01
3.840000000000000000e+02,4.430301200000000272e-01
3.850000000000000000e+02,4.430120300000000011e-01
3.860000000000000000e+02,4.430009100000000255e-01
3.870000000000000000e+02,4.429945100000000080e-01
3.880000000000000000e+02,4.429910499999999973e-01
3.890000000000000000e+02,4.429893799999999882e-01
3.900000000000000000e+02,4.429886599999999786e-01
3.910000000000000000e+02,4.429884000000000044e-01
3.920000000000000000e+02,4.429883099999999962e-01
3.930000000000000000e+02,4.429882800000000120e-01
3.940000000000000000e+02,4.429882800000000120e-01
3.950000000000000000e+02,4.429882800000000120e-01
3.960000000000000000e+02,4.429882800000000120e-01
3.970000000000000000e+02,4.429882800000000120e-01
3.980000000000000000e+02,4.429882800000000120e-01
3.990000000000000000e+02,4.429882800000000120e-01
