# Time [s], Temperature [C]
1.000000000000000000e+00,2.499998300000000029e+01
2.000000000000000000e+00,4.695979299999999768e+01
3.000000000000000000e+00,5.944894000000000034e+01
4.000000000000000000e+00,6.963167599999999879e+01
5.000000000000000000e+00,7.817549900000000207e+01
6.000000000000000000e+00,8.570606999999999687e+01
7.000000000000000000e+00,9.247876700000000483e+01
8.000000000000000000e+00,9.867480500000000632e+01
9.000000000000000000e+00,1.044078499999999963e+02
1.000000000000000000e+01,1.097610399999999942e+02
1.100000000000000000e+01,1.147944099999999992e+02
1.200000000000000000e+01,1.195555399999999935e+02
1.300000000000000000e+01,1.240802500000000066e+02
1.400000000000000000e+01,1.283995799999999861e+02
1.500000000000000000e+01,1.325388199999999870e+02
1.600000000000000000e+01,1.365200199999999882e+02
1.700000000000000000e+01,1.403611600000000124e+02
1.800000000000000000e+01,1.440769999999999982e+02
1.900000000000000000e+01,1.476784700000000043e+02
2.000000000000000000e+01,1.511729100000000017e+02
2.100000000000000000e+01,1.545625599999999906e+02
2.200000000000000000e+01,1.578476300000000094e+02
2.300000000000000000e+01,1.610318900000000042e+02
2.400000000000000000e+01,1.641112400000000093e+02
2.500000000000000000e+01,1.670879999999999939e+02
2.600000000000000000e+01,1.699696199999999919e+02
2.700000000000000000e+01,1.727494199999999864e+02
2.800000000000000000e+01,1.754309700000000021e+02
2.900000000000000000e+01,1.780296299999999974e+02
3.000000000000000000e+01,1.805248599999999897e+02
3.100000000000000000e+01,1.829223800000000040e+02
3.200000000000000000e+01,1.852493000000000052e+02
3.300000000000000000e+01,1.874634200000000135e+02
3.400000000000000000e+01,1.895751300000000015e+02
3.500000000000000000e+01,1.916337000000000046e+02
3.600000000000000000e+01,1.935626699999999971e+02
3.700000000000000000e+01,1.953843500000000120e+02
3.800000000000000000e+01,1.971843700000000013e+02
3.900000000000000000e+01,1.988344999999999914e+02
4.000000000000000000e+01,2.003795299999999884e+02
4.100000000000000000e+01,2.019511400000000094e+02
4.200000000000000000e+01,2.033530000000000086e+02
4.300000000000000000e+01,2.046594800000000021e+02
4.400000000000000000e+01,2.060570999999999913e+02
4.500000000000000000e+01,2.072610899999999958e+02
4.600000000000000000e+01,2.083854399999999885e+02
4.700000000000000000e+01,2.096733199999999897e+02
4.800000000000000000e+01,2.107366499999999974e+02
4.900000000000000000e+01,2.117380400000000122e+02
5.000000000000000000e+01,2.129738900000000115e+02
5.100000000000000000e+01,2.139480399999999918e+02
5.200000000000000000e+01,2.148768200000000093e+02
5.300000000000000000e+01,2.161048399999999958e+02
5.400000000000000000e+01,2.170297700000000134e+02
5.500000000000000000e+01,2.179237799999999936e+02
5.600000000000000000e+01,2.191747699999999952e+02
5.700000000000000000e+01,2.200772699999999986e+02
5.800000000000000000e+01,2.209645999999999901e+02
5.900000000000000000e+01,2.222573700000000088e+02
6.000000000000000000e+01,2.231573500000000081e+02
6.100000000000000000e+01,2.240538899999999956e+02
6.200000000000000000e+01,2.253986099999999908e+02
6.300000000000000000e+01,2.263103000000000122e+02
6.400000000000000000e+01,2.272254900000000077e+02
6.500000000000000000e+01,2.286258100000000013e+02
6.600000000000000000e+01,2.295550700000000006e+02
6.700000000000000000e+01,2.304957599999999900e+02
6.800000000000000000e+01,2.319459400000000073e+02
6.900000000000000000e+01,2.328967700000000036e+02
7.000000000000000000e+01,2.338660600000000045e+02
7.100000000000000000e+01,2.353559400000000039e+02
7.200000000000000000e+01,2.363319500000000062e+02
7.300000000000000000e+01,2.373242999999999938e+02
7.400000000000000000e+01,2.388421199999999942e+02
7.500000000000000000e+01,2.398419600000000003e+02
7.600000000000000000e+01,2.408577300000000037e+02
7.700000000000000000e+01,2.423836799999999982e+02
7.800000000000000000e+01,2.434070399999999950e+02
7.900000000000000000e+01,2.444398500000000070e+02
8.000000000000000000e+01,2.459659100000000080e+02
8.100000000000000000e+01,2.470087699999999984e+02
8.200000000000000000e+01,2.480561500000000024e+02
8.300000000000000000e+01,2.495659899999999993e+02
8.400000000000000000e+01,2.506257799999999918e+02
8.500000000000000000e+01,2.516845399999999984e+02
8.600000000000000000e+01,2.531708099999999888e+02
8.700000000000000000e+01,2.542433800000000019e+02
8.800000000000000000e+01,2.553108499999999879e+02
8.900000000000000000e+01,2.567672400000000152e+02
9.000000000000000000e+01,2.578492100000000278e+02
9.100000000000000000e+01,2.589226699999999823e+02
9.200000000000000000e+01,2.594534899999999880e+02
9.300000000000000000e+01,2.560211499999999774e+02
9.400000000000000000e+01,2.570081500000000005e+02
9.500000000000000000e+01,2.573493000000000279e+02
9.600000000000000000e+01,2.582743199999999888e+02
9.700000000000000000e+01,2.591901899999999728e+02
9.800000000000000000e+01,2.605602999999999838e+02
9.900000000000000000e+01,2.616796600000000126e+02
1.000000000000000000e+02,2.627718800000000101e+02
1.010000000000000000e+02,2.641383099999999899e+02
1.020000000000000000e+02,2.652908899999999903e+02
1.030000000000000000e+02,2.663949299999999880e+02
1.040000000000000000e+02,2.677348299999999881e+02
1.050000000000000000e+02,2.688820799999999736e+02
1.060000000000000000e+02,2.699828800000000228e+02
1.070000000000000000e+02,2.712869600000000219e+02
1.080000000000000000e+02,2.724212299999999800e+02
1.090000000000000000e+02,2.735122400000000198e+02
1.100000000000000000e+02,2.747792699999999968e+02
1.110000000000000000e+02,2.758978000000000179e+02
1.120000000000000000e+02,2.769769600000000196e+02
1.130000000000000000e+02,2.782110299999999938e+02
1.140000000000000000e+02,2.793109699999999975e+02
1.150000000000000000e+02,2.803761600000000271e+02
1.160000000000000000e+02,2.815722700000000032e+02
1.170000000000000000e+02,2.826542099999999778e+02
1.180000000000000000e+02,2.837042500000000018e+02
1.190000000000000000e+02,2.848713099999999940e+02
1.200000000000000000e+02,2.859351199999999835e+02
1.210000000000000000e+02,2.869714700000000107e+02
1.220000000000000000e+02,2.881085199999999986e+02
1.230000000000000000e+02,2.891537500000000023e+02
1.240000000000000000e+02,2.901779500000000098e+02
1.250000000000000000e+02,2.912874499999999784e+02
1.260000000000000000e+02,2.923150600000000168e+02
1.270000000000000000e+02,2.933202800000000252e+02
1.280000000000000000e+02,2.944024000000000001e+02
1.290000000000000000e+02,2.954153699999999958e+02
1.300000000000000000e+02,2.964049999999999727e+02
1.310000000000000000e+02,2.974631999999999721e+02
1.320000000000000000e+02,2.984562399999999798e+02
1.330000000000000000e+02,2.994376500000000192e+02
1.340000000000000000e+02,3.001091900000000123e+02
1.350000000000000000e+02,2.999339899999999943e+02
1.360000000000000000e+02,3.005727499999999850e+02
1.370000000000000000e+02,3.012469500000000266e+02
1.380000000000000000e+02,3.020371400000000222e+02
1.390000000000000000e+02,3.028669100000000185e+02
1.400000000000000000e+02,3.038032200000000103e+02
1.410000000000000000e+02,3.047229899999999816e+02
1.420000000000000000e+02,3.056429099999999721e+02
1.430000000000000000e+02,3.066158800000000042e+02
1.440000000000000000e+02,3.075633900000000267e+02
1.450000000000000000e+02,3.084981399999999780e+02
1.460000000000000000e+02,3.094756199999999922e+02
1.470000000000000000e+02,3.104178499999999872e+02
1.480000000000000000e+02,3.113424400000000105e+02
1.490000000000000000e+02,3.123090500000000134e+02
1.500000000000000000e+02,3.132391700000000014e+02
1.510000000000000000e+02,3.141557599999999866e+02
1.520000000000000000e+02,3.151008600000000115e+02
1.530000000000000000e+02,3.160193199999999933e+02
1.540000000000000000e+02,3.169187600000000202e+02
1.550000000000000000e+02,3.178491200000000276e+02
1.560000000000000000e+02,3.187488700000000108e+02
1.570000000000000000e+02,3.196372700000000009e+02
1.580000000000000000e+02,3.205462999999999738e+02
1.590000000000000000e+02,3.214339299999999753e+02
1.600000000000000000e+02,3.223077400000000239e+02
1.610000000000000000e+02,3.232040999999999826e+02
1.620000000000000000e+02,3.240751599999999826e+02
1.630000000000000000e+02,3.249357899999999972e+02
1.640000000000000000e+02,3.258160700000000247e+02
1.650000000000000000e+02,3.266761799999999880e+02
1.660000000000000000e+02,3.275232799999999997e+02
1.670000000000000000e+02,3.283852499999999850e+02
1.680000000000000000e+02,3.292320300000000088e+02
1.690000000000000000e+02,3.300656999999999925e+02
1.700000000000000000e+02,3.309164700000000039e+02
1.710000000000000000e+02,3.317501500000000192e+02
1.720000000000000000e+02,3.325716199999999958e+02
1.730000000000000000e+02,3.330842000000000098e+02
1.740000000000000000e+02,3.336699499999999716e+02
1.750000000000000000e+02,3.344164400000000228e+02
1.760000000000000000e+02,3.351503599999999778e+02
1.770000000000000000e+02,3.358951999999999884e+02
1.780000000000000000e+02,3.366449600000000260e+02
1.790000000000000000e+02,3.374182999999999879e+02
1.800000000000000000e+02,3.381922900000000141e+02
1.810000000000000000e+02,3.389642600000000243e+02
1.820000000000000000e+02,3.397521100000000160e+02
1.830000000000000000e+02,3.405332900000000222e+02
1.840000000000000000e+02,3.413073999999999728e+02
1.850000000000000000e+02,3.420953999999999837e+02
1.860000000000000000e+02,3.428753699999999753e+02
1.870000000000000000e+02,3.436506299999999783e+02
1.880000000000000000e+02,3.444342300000000137e+02
1.890000000000000000e+02,3.452085299999999961e+02
1.900000000000000000e+02,3.459769600000000196e+02
1.910000000000000000e+02,3.467476500000000215e+02
1.920000000000000000e+02,3.475119900000000257e+02
1.930000000000000000e+02,3.482706900000000019e+02
1.940000000000000000e+02,3.490348500000000058e+02
1.950000000000000000e+02,3.497900399999999763e+02
1.960000000000000000e+02,3.505430900000000065e+02
1.970000000000000000e+02,3.512981599999999958e+02
1.980000000000000000e+02,3.520432700000000068e+02
1.990000000000000000e+02,3.527822899999999890e+02
2.000000000000000000e+02,3.535265200000000050e+02
2.010000000000000000e+02,3.542617500000000064e+02
2.020000000000000000e+02,3.549917599999999993e+02
2.030000000000000000e+02,3.557245500000000220e+02
2.040000000000000000e+02,3.564512300000000096e+02
2.050000000000000000e+02,3.571703499999999849e+02
2.060000000000000000e+02,3.578933999999999855e+02
2.070000000000000000e+02,3.586081199999999853e+02
2.080000000000000000e+02,3.593179600000000278e+02
2.090000000000000000e+02,3.598954200000000014e+02
2.100000000000000000e+02,3.604853200000000015e+02
2.110000000000000000e+02,3.611470600000000104e+02
2.120000000000000000e+02,3.618093900000000076e+02
2.130000000000000000e+02,3.624667699999999968e+02
2.140000000000000000e+02,3.631255499999999756e+02
2.150000000000000000e+02,3.637881199999999922e+02
2.160000000000000000e+02,3.644525800000000118e+02
2.170000000000000000e+02,3.651170299999999997e+02
2.180000000000000000e+02,3.657835099999999784e+02
2.190000000000000000e+02,3.664465599999999768e+02
2.200000000000000000e+02,3.671110800000000154e+02
2.210000000000000000e+02,3.677808800000000247e+02
2.220000000000000000e+02,3.684441199999999981e+02
2.230000000000000000e+02,3.691073900000000094e+02
2.240000000000000000e+02,3.697703599999999824e+02
2.250000000000000000e+02,3.704285300000000234e+02
2.260000000000000000e+02,3.710859399999999937e+02
2.270000000000000000e+02,3.717461900000000128e+02
2.280000000000000000e+02,3.723992000000000075e+02
2.290000000000000000e+02,3.730511200000000258e+02
2.300000000000000000e+02,3.737022099999999796e+02
2.310000000000000000e+02,3.743527500000000146e+02
2.320000000000000000e+02,3.749989299999999730e+02
2.330000000000000000e+02,3.756423300000000154e+02
2.340000000000000000e+02,3.762830200000000218e+02
2.350000000000000000e+02,3.769205000000000041e+02
2.360000000000000000e+02,3.775562699999999836e+02
2.370000000000000000e+02,3.781886299999999892e+02
2.380000000000000000e+02,3.788143000000000029e+02
2.390000000000000000e+02,3.794480599999999981e+02
2.400000000000000000e+02,3.800708300000000008e+02
2.410000000000000000e+02,3.806383999999999901e+02
2.420000000000000000e+02,3.811845099999999888e+02
2.430000000000000000e+02,3.817633999999999901e+02
2.440000000000000000e+02,3.823464700000000107e+02
2.450000000000000000e+02,3.829331099999999992e+02
2.460000000000000000e+02,3.835161100000000260e+02
2.470000000000000000e+02,3.840988199999999892e+02
2.480000000000000000e+02,3.846800499999999943e+02
2.490000000000000000e+02,3.852644300000000044e+02
2.500000000000000000e+02,3.858414300000000026e+02
2.510000000000000000e+02,3.864277299999999968e+02
2.520000000000000000e+02,3.870087599999999952e+02
2.530000000000000000e+02,3.875883200000000102e+02
2.540000000000000000e+02,3.881697399999999902e+02
2.550000000000000000e+02,3.887446899999999914e+02
2.560000000000000000e+02,3.893231799999999794e+02
2.570000000000000000e+02,3.898962099999999964e+02
2.580000000000000000e+02,3.904732999999999947e+02
2.590000000000000000e+02,3.910430900000000065e+02
2.600000000000000000e+02,3.916184700000000021e+02
2.610000000000000000e+02,3.921875299999999811e+02
2.620000000000000000e+02,3.927515000000000214e+02
2.630000000000000000e+02,3.933208900000000199e+02
2.640000000000000000e+02,3.938821399999999926e+02
2.650000000000000000e+02,3.944470800000000281e+02
2.660000000000000000e+02,3.950045799999999758e+02
2.670000000000000000e+02,3.955650899999999979e+02
2.680000000000000000e+02,3.961200900000000047e+02
2.690000000000000000e+02,3.966750799999999799e+02
2.700000000000000000e+02,3.972273299999999949e+02
2.710000000000000000e+02,3.977768199999999865e+02
2.720000000000000000e+02,3.983251999999999953e+02
2.730000000000000000e+02,3.988734400000000164e+02
2.740000000000000000e+02,3.993948100000000068e+02
2.750000000000000000e+02,3.999146700000000010e+02
2.760000000000000000e+02,4.004296899999999937e+02
2.770000000000000000e+02,4.009459800000000200e+02
2.780000000000000000e+02,4.014665200000000027e+02
2.790000000000000000e+02,4.019820599999999899e+02
2.800000000000000000e+02,4.024995700000000056e+02
2.810000000000000000e+02,4.030122400000000198e+02
2.820000000000000000e+02,4.035285900000000083e+02
2.830000000000000000e+02,4.040439099999999826e+02
2.840000000000000000e+02,4.045543499999999995e+02
2.850000000000000000e+02,4.050682699999999841e+02
2.860000000000000000e+02,4.055780899999999747e+02
2.870000000000000000e+02,4.060889000000000237e+02
2.880000000000000000e+02,4.066011700000000246e+02
2.890000000000000000e+02,4.071082799999999793e+02
2.900000000000000000e+02,4.076187699999999836e+02
2.910000000000000000e+02,4.081222200000000271e+02
2.920000000000000000e+02,4.086297900000000141e+02
2.930000000000000000e+02,4.091374799999999823e+02
2.940000000000000000e+02,4.096407500000000255e+02
2.950000000000000000e+02,4.101429699999999912e+02
2.960000000000000000e+02,4.106486499999999751e+02
2.970000000000000000e+02,4.111483799999999746e+02
2.980000000000000000e+02,4.116495400000000018e+02
2.990000000000000000e+02,4.121455399999999827e+02
3.000000000000000000e+02,4.126450800000000072e+02
3.010000000000000000e+02,4.131432800000000043e+02
3.020000000000000000e+02,4.136384300000000280e+02
3.030000000000000000e+02,4.141315299999999979e+02
3.040000000000000000e+02,4.146268900000000031e+02
3.050000000000000000e+02,4.151187100000000214e+02
3.060000000000000000e+02,4.156115100000000098e+02
3.070000000000000000e+02,4.161010400000000118e+02
3.080000000000000000e+02,4.165914000000000215e+02
3.090000000000000000e+02,4.170719000000000278e+02
3.100000000000000000e+02,4.175482799999999770e+02
3.110000000000000000e+02,4.180183999999999855e+02
3.120000000000000000e+02,4.184917899999999804e+02
3.130000000000000000e+02,4.189657599999999888e+02
3.140000000000000000e+02,4.194373800000000188e+02
3.150000000000000000e+02,4.199105500000000006e+02
3.160000000000000000e+02,4.203837899999999763e+02
3.170000000000000000e+02,4.208556800000000067e+02
3.180000000000000000e+02,4.213273899999999799e+02
3.190000000000000000e+02,4.218001100000000179e+02
3.200000000000000000e+02,4.222743800000000078e+02
3.210000000000000000e+02,4.227451800000000048e+02
3.220000000000000000e+02,4.232161300000000210e+02
3.230000000000000000e+02,4.236921399999999949e+02
3.240000000000000000e+02,4.241666900000000169e+02
3.250000000000000000e+02,4.246382800000000088e+02
3.260000000000000000e+02,4.251133100000000127e+02
3.270000000000000000e+02,4.255862399999999752e+02
3.280000000000000000e+02,4.260601800000000026e+02
3.290000000000000000e+02,4.265367400000000089e+02
3.300000000000000000e+02,4.270137300000000096e+02
3.310000000000000000e+02,4.274883100000000127e+02
3.320000000000000000e+02,4.279666399999999840e+02
3.330000000000000000e+02,4.284442700000000173e+02
3.340000000000000000e+02,4.289248999999999796e+02
3.350000000000000000e+02,4.294037500000000023e+02
3.360000000000000000e+02,4.298852800000000229e+02
3.370000000000000000e+02,4.303678300000000263e+02
3.380000000000000000e+02,4.308476299999999810e+02
3.390000000000000000e+02,4.313327899999999886e+02
3.400000000000000000e+02,4.318190299999999979e+02
3.410000000000000000e+02,4.323049899999999752e+02
3.420000000000000000e+02,4.327933300000000258e+02
3.430000000000000000e+02,4.332852800000000002e+02
3.440000000000000000e+02,4.337761499999999728e+02
3.450000000000000000e+02,4.342713600000000156e+02
3.460000000000000000e+02,4.347689500000000180e+02
3.470000000000000000e+02,4.352647999999999797e+02
3.480000000000000000e+02,4.357672099999999773e+02
3.490000000000000000e+02,4.362636400000000094e+02
3.500000000000000000e+02,4.367543600000000197e+02
3.510000000000000000e+02,4.372556799999999839e+02
3.520000000000000000e+02,4.377594300000000089e+02
3.530000000000000000e+02,4.382701099999999883e+02
3.540000000000000000e+02,4.387830200000000218e+02
3.550000000000000000e+02,4.393006599999999935e+02
3.560000000000000000e+02,4.398253199999999765e+02
3.570000000000000000e+02,4.403524499999999762e+02
3.580000000000000000e+02,4.408854699999999980e+02
3.590000000000000000e+02,4.414248999999999796e+02
3.600000000000000000e+02,4.419702500000000214e+02
3.610000000000000000e+02,4.425177600000000098e+02
3.620000000000000000e+02,4.430769999999999982e+02
3.630000000000000000e+02,4.436366899999999873e+02
3.640000000000000000e+02,4.442091100000000097e+02
3.650000000000000000e+02,4.447866200000000276e+02
3.660000000000000000e+02,4.453709400000000187e+02
3.670000000000000000e+02,4.459630099999999970e+02
3.680000000000000000e+02,4.465609099999999785e+02
3.690000000000000000e+02,4.471727900000000204e+02
3.700000000000000000e+02,4.477888500000000249e+02
3.710000000000000000e+02,4.484164700000000039e+02
3.720000000000000000e+02,4.490528299999999717e+02
3.730000000000000000e+02,4.496970200000000091e+02
3.740000000000000000e+02,4.503536100000000033e+02
3.750000000000000000e+02,4.510180100000000039e+02
3.760000000000000000e+02,4.516983299999999986e+02
3.770000000000000000e+02,4.523855300000000170e+02
3.780000000000000000e+02,4.530836199999999963e+02
3.790000000000000000e+02,4.537927900000000250e+02
3.800000000000000000e+02,4.545154400000000123e+02
3.810000000000000000e+02,4.552470700000000079e+02
3.820000000000000000e+02,4.559921600000000126e+02
3.830000000000000000e+02,4.567499700000000189e+02
3.840000000000000000e+02,4.575189500000000180e+02
3.850000000000000000e+02,4.582995900000000233e+02
3.860000000000000000e+02,4.590911300000000210e+02
3.870000000000000000e+02,4.598960000000000150e+02
3.880000000000000000e+02,4.607129199999999969e+02
3.890000000000000000e+02,4.615424800000000118e+02
3.900000000000000000e+02,4.623810700000000224e+02
3.910000000000000000e+02,4.632336399999999799e+02
3.920000000000000000e+02,4.640985099999999761e+02
3.930000000000000000e+02,4.649716799999999921e+02
3.940000000000000000e+02,4.658567199999999957e+02
3.950000000000000000e+02,4.667520799999999781e+02
3.960000000000000000e+02,4.676571999999999889e+02
3.970000000000000000e+02,4.685726900000000228e+02
3.980000000000000000e+02,4.694946899999999914e+02
3.990000000000000000e+02,4.704269100000000208e+02
