# Time [s], Thickness [m]
1.000000000000000000e+00,8.000000400000000303e-03
2.000000000000000000e+00,8.000000400000000303e-03
3.000000000000000000e+00,8.000000400000000303e-03
4.000000000000000000e+00,8.000000400000000303e-03
5.000000000000000000e+00,8.000000400000000303e-03
6.000000000000000000e+00,7.999999400000000829e-03
7.000000000000000000e+00,7.999999400000000829e-03
8.000000000000000000e+00,7.999997599999999348e-03
9.000000000000000000e+00,7.999991099999999300e-03
1.000000000000000000e+01,7.999970599999999682e-03
1.100000000000000000e+01,7.999915599999999141e-03
1.200000000000000000e+01,7.999779699999999202e-03
1.300000000000000000e+01,7.999479800000000584e-03
1.400000000000000000e+01,7.998885600000000054e-03
1.500000000000000000e+01,7.997811800000000776e-03
1.600000000000000000e+01,7.996040399999999534e-03
1.700000000000000000e+01,7.993373099999999398e-03
1.800000000000000000e+01,7.989663600000000351e-03
1.900000000000000000e+01,7.984953899999999369e-03
2.000000000000000000e+01,7.979360399999999715e-03
2.100000000000000000e+01,7.972838399999999590e-03
2.200000000000000000e+01,7.965739799999999732e-03
2.300000000000000000e+01,7.958160699999999518e-03
2.400000000000000000e+01,7.949805799999999298e-03
2.500000000000000000e+01,7.941242299999999935e-03
2.600000000000000000e+01,7.932407799999999232e-03
2.700000000000000000e+01,7.922853299999999335e-03
2.800000000000000000e+01,7.913235600000000439e-03
2.900000000000000000e+01,7.903431500000000429e-03
3.000000000000000000e+01,7.892928999999999917e-03
3.100000000000000000e+01,7.882325900000000662e-03
3.200000000000000000e+01,7.871579400000000212e-03
3.300000000000000000e+01,7.854107799999999334e-03
3.400000000000000000e+01,7.843533499999999492e-03
3.500000000000000000e+01,7.832199300000000294e-03
3.600000000000000000e+01,7.820557800000000823e-03
3.700000000000000000e+01,7.808939099999999585e-03
3.800000000000000000e+01,7.797133599999999699e-03
3.900000000000000000e+01,7.785029199999999802e-03
4.000000000000000000e+01,7.772722299999999807e-03
4.100000000000000000e+01,7.760417599999999694e-03
4.200000000000000000e+01,7.747885799999999767e-03
4.300000000000000000e+01,7.735271499999999897e-03
4.400000000000000000e+01,7.722648300000000028e-03
4.500000000000000000e+01,7.709911600000000052e-03
4.600000000000000000e+01,7.697092400000000133e-03
4.700000000000000000e+01,7.684252199999999991e-03
4.800000000000000000e+01,7.671326899999999886e-03
4.900000000000000000e+01,7.658338599999999982e-03
5.000000000000000000e+01,7.645338300000000323e-03
5.100000000000000000e+01,7.632305800000000091e-03
5.200000000000000000e+01,7.619258900000000154e-03
5.300000000000000000e+01,7.606232099999999698e-03
5.400000000000000000e+01,7.593213100000000167e-03
5.500000000000000000e+01,7.580198800000000070e-03
5.600000000000000000e+01,7.567202200000000371e-03
5.700000000000000000e+01,7.554207500000000020e-03
5.800000000000000000e+01,7.541207599999999629e-03
5.900000000000000000e+01,7.528214699999999891e-03
6.000000000000000000e+01,7.515225099999999978e-03
6.100000000000000000e+01,7.501072699999999926e-03
6.200000000000000000e+01,7.487141099999999709e-03
6.300000000000000000e+01,7.473635499999999911e-03
6.400000000000000000e+01,7.460428899999999725e-03
6.500000000000000000e+01,7.447376399999999612e-03
6.600000000000000000e+01,7.434435700000000327e-03
6.700000000000000000e+01,7.421553099999999605e-03
6.800000000000000000e+01,7.408711600000000320e-03
6.900000000000000000e+01,7.395896600000000098e-03
7.000000000000000000e+01,7.383104399999999845e-03
7.100000000000000000e+01,7.370335000000000428e-03
7.200000000000000000e+01,7.357592700000000277e-03
7.300000000000000000e+01,7.344876400000000319e-03
7.400000000000000000e+01,7.332187100000000027e-03
7.500000000000000000e+01,7.319528100000000093e-03
7.600000000000000000e+01,7.306895699999999688e-03
7.700000000000000000e+01,7.294284199999999906e-03
7.800000000000000000e+01,7.281694600000000218e-03
7.900000000000000000e+01,7.269123599999999935e-03
8.000000000000000000e+01,7.256567499999999962e-03
8.100000000000000000e+01,7.244028599999999783e-03
8.200000000000000000e+01,7.231508799999999612e-03
8.300000000000000000e+01,7.219009099999999790e-03
8.400000000000000000e+01,7.206530299999999722e-03
8.500000000000000000e+01,7.194076199999999838e-03
8.600000000000000000e+01,7.181644400000000185e-03
8.700000000000000000e+01,7.169234600000000228e-03
8.800000000000000000e+01,7.156843300000000074e-03
8.900000000000000000e+01,7.143896500000000011e-03
9.000000000000000000e+01,7.131258500000000299e-03
9.100000000000000000e+01,7.118741500000000215e-03
9.200000000000000000e+01,7.106300400000000426e-03
9.300000000000000000e+01,7.093910099999999747e-03
9.400000000000000000e+01,7.081560300000000301e-03
9.500000000000000000e+01,7.069241700000000218e-03
9.600000000000000000e+01,7.056948300000000056e-03
9.700000000000000000e+01,7.044675799999999648e-03
9.800000000000000000e+01,7.032420999999999638e-03
9.900000000000000000e+01,7.020177800000000114e-03
1.000000000000000000e+02,7.007942500000000248e-03
1.010000000000000000e+02,6.995715199999999641e-03
1.020000000000000000e+02,6.983491100000000125e-03
1.030000000000000000e+02,6.971271200000000307e-03
1.040000000000000000e+02,6.959053699999999572e-03
1.050000000000000000e+02,6.946841700000000279e-03
1.060000000000000000e+02,6.934631600000000333e-03
1.070000000000000000e+02,6.922424299999999607e-03
1.080000000000000000e+02,6.910218400000000226e-03
1.090000000000000000e+02,6.898014800000000328e-03
1.100000000000000000e+02,6.885809799999999953e-03
1.110000000000000000e+02,6.873602999999999831e-03
1.120000000000000000e+02,6.861390999999999671e-03
1.130000000000000000e+02,6.849173899999999940e-03
1.140000000000000000e+02,6.836950300000000161e-03
1.150000000000000000e+02,6.824716500000000373e-03
1.160000000000000000e+02,6.812473799999999718e-03
1.170000000000000000e+02,6.800221700000000195e-03
1.180000000000000000e+02,6.787466800000000085e-03
1.190000000000000000e+02,6.774948000000000255e-03
1.200000000000000000e+02,6.762518999999999822e-03
1.210000000000000000e+02,6.750129599999999883e-03
1.220000000000000000e+02,6.737755100000000254e-03
1.230000000000000000e+02,6.725382999999999709e-03
1.240000000000000000e+02,6.713003900000000246e-03
1.250000000000000000e+02,6.700612600000000092e-03
1.260000000000000000e+02,6.688206500000000096e-03
1.270000000000000000e+02,6.675780800000000355e-03
1.280000000000000000e+02,6.663334100000000391e-03
1.290000000000000000e+02,6.650864099999999855e-03
1.300000000000000000e+02,6.638370900000000081e-03
1.310000000000000000e+02,6.625850699999999774e-03
1.320000000000000000e+02,6.613299700000000239e-03
1.330000000000000000e+02,6.600718900000000083e-03
1.340000000000000000e+02,6.588104600000000213e-03
1.350000000000000000e+02,6.575455899999999888e-03
1.360000000000000000e+02,6.562769900000000288e-03
1.370000000000000000e+02,6.550045200000000067e-03
1.380000000000000000e+02,6.537280000000000348e-03
1.390000000000000000e+02,6.524471999999999910e-03
1.400000000000000000e+02,6.511619300000000277e-03
1.410000000000000000e+02,6.498721399999999974e-03
1.420000000000000000e+02,6.485776500000000125e-03
1.430000000000000000e+02,6.472781300000000036e-03
1.440000000000000000e+02,6.459732999999999621e-03
1.450000000000000000e+02,6.446629800000000000e-03
1.460000000000000000e+02,6.433015700000000066e-03
1.470000000000000000e+02,6.419553399999999854e-03
1.480000000000000000e+02,6.406121899999999737e-03
1.490000000000000000e+02,6.392674999999999573e-03
1.500000000000000000e+02,6.379190800000000133e-03
1.510000000000000000e+02,6.365654999999999578e-03
1.520000000000000000e+02,6.352059099999999778e-03
1.530000000000000000e+02,6.338394699999999604e-03
1.540000000000000000e+02,6.324657699999999827e-03
1.550000000000000000e+02,6.310842500000000271e-03
1.560000000000000000e+02,6.296946700000000119e-03
1.570000000000000000e+02,6.282966099999999672e-03
1.580000000000000000e+02,6.268896599999999701e-03
1.590000000000000000e+02,6.254735400000000119e-03
1.600000000000000000e+02,6.240480100000000106e-03
1.610000000000000000e+02,6.226127500000000307e-03
1.620000000000000000e+02,6.211676200000000245e-03
1.630000000000000000e+02,6.197121899999999753e-03
1.640000000000000000e+02,6.182465699999999641e-03
1.650000000000000000e+02,6.167705199999999957e-03
1.660000000000000000e+02,6.152837999999999884e-03
1.670000000000000000e+02,6.137866500000000239e-03
1.680000000000000000e+02,6.122789800000000282e-03
1.690000000000000000e+02,6.107608799999999886e-03
1.700000000000000000e+02,6.092324399999999793e-03
1.710000000000000000e+02,6.076937999999999611e-03
1.720000000000000000e+02,6.061042699999999797e-03
1.730000000000000000e+02,6.045225500000000161e-03
1.740000000000000000e+02,6.029399599999999727e-03
1.750000000000000000e+02,6.013534000000000067e-03
1.760000000000000000e+02,5.997616300000000421e-03
1.770000000000000000e+02,5.981640899999999747e-03
1.780000000000000000e+02,5.965609600000000394e-03
1.790000000000000000e+02,5.949524700000000110e-03
1.800000000000000000e+02,5.933390000000000192e-03
1.810000000000000000e+02,5.917212500000000423e-03
1.820000000000000000e+02,5.900996300000000035e-03
1.830000000000000000e+02,5.884750700000000029e-03
1.840000000000000000e+02,5.868481000000000045e-03
1.850000000000000000e+02,5.852193599999999662e-03
1.860000000000000000e+02,5.835895399999999934e-03
1.870000000000000000e+02,5.819593599999999846e-03
1.880000000000000000e+02,5.803293999999999640e-03
1.890000000000000000e+02,5.787002900000000165e-03
1.900000000000000000e+02,5.770725200000000055e-03
1.910000000000000000e+02,5.754466599999999953e-03
1.920000000000000000e+02,5.738230399999999683e-03
1.930000000000000000e+02,5.722023100000000161e-03
1.940000000000000000e+02,5.705476699999999929e-03
1.950000000000000000e+02,5.689102199999999769e-03
1.960000000000000000e+02,5.672839499999999570e-03
1.970000000000000000e+02,5.656662899999999675e-03
1.980000000000000000e+02,5.640560299999999860e-03
1.990000000000000000e+02,5.624524300000000206e-03
2.000000000000000000e+02,5.608553100000000097e-03
2.010000000000000000e+02,5.592646100000000196e-03
2.020000000000000000e+02,5.576801999999999628e-03
2.030000000000000000e+02,5.561021200000000261e-03
2.040000000000000000e+02,5.545305099999999973e-03
2.050000000000000000e+02,5.529655100000000108e-03
2.060000000000000000e+02,5.514072299999999739e-03
2.070000000000000000e+02,5.498558300000000280e-03
2.080000000000000000e+02,5.483115600000000416e-03
2.090000000000000000e+02,5.467745500000000154e-03
2.100000000000000000e+02,5.452450799999999584e-03
2.110000000000000000e+02,5.437233999999999991e-03
2.120000000000000000e+02,5.422098099999999796e-03
2.130000000000000000e+02,5.407045099999999681e-03
2.140000000000000000e+02,5.392079200000000211e-03
2.150000000000000000e+02,5.377204200000000080e-03
2.160000000000000000e+02,5.362423600000000047e-03
2.170000000000000000e+02,5.347457699999999710e-03
2.180000000000000000e+02,5.332693000000000329e-03
2.190000000000000000e+02,5.318093999999999773e-03
2.200000000000000000e+02,5.303648299999999885e-03
2.210000000000000000e+02,5.289349700000000286e-03
2.220000000000000000e+02,5.275198299999999708e-03
2.230000000000000000e+02,5.261195399999999897e-03
2.240000000000000000e+02,5.247347099999999896e-03
2.250000000000000000e+02,5.233658000000000407e-03
2.260000000000000000e+02,5.220135699999999684e-03
2.270000000000000000e+02,5.206788399999999657e-03
2.280000000000000000e+02,5.193625999999999798e-03
2.290000000000000000e+02,5.180658799999999717e-03
2.300000000000000000e+02,5.167898699999999568e-03
2.310000000000000000e+02,5.155357499999999905e-03
2.320000000000000000e+02,5.143048199999999959e-03
2.330000000000000000e+02,5.130984400000000029e-03
2.340000000000000000e+02,5.119179800000000016e-03
2.350000000000000000e+02,5.107649599999999901e-03
2.360000000000000000e+02,5.096408099999999788e-03
2.370000000000000000e+02,5.085470600000000126e-03
2.380000000000000000e+02,5.074852099999999956e-03
2.390000000000000000e+02,5.064566199999999581e-03
2.400000000000000000e+02,5.054627100000000373e-03
2.410000000000000000e+02,5.045047500000000157e-03
2.420000000000000000e+02,5.035837599999999810e-03
2.430000000000000000e+02,5.027008200000000412e-03
2.440000000000000000e+02,5.018566700000000151e-03
2.450000000000000000e+02,5.010517800000000195e-03
2.460000000000000000e+02,5.002889800000000220e-03
2.470000000000000000e+02,4.995646000000000288e-03
2.480000000000000000e+02,4.988792399999999842e-03
2.490000000000000000e+02,4.982325699999999927e-03
2.500000000000000000e+02,4.976239099999999957e-03
2.510000000000000000e+02,4.970523099999999729e-03
2.520000000000000000e+02,4.965165599999999888e-03
2.530000000000000000e+02,4.960154599999999810e-03
2.540000000000000000e+02,4.955475200000000052e-03
2.550000000000000000e+02,4.951111999999999701e-03
2.560000000000000000e+02,4.947048600000000101e-03
2.570000000000000000e+02,4.943268399999999931e-03
2.580000000000000000e+02,4.939754999999999667e-03
2.590000000000000000e+02,4.936491599999999653e-03
2.600000000000000000e+02,4.933461099999999697e-03
2.610000000000000000e+02,4.930648499999999886e-03
2.620000000000000000e+02,4.928038000000000037e-03
2.630000000000000000e+02,4.925615199999999576e-03
2.640000000000000000e+02,4.923366000000000200e-03
2.650000000000000000e+02,4.921277499999999680e-03
2.660000000000000000e+02,4.919337600000000393e-03
2.670000000000000000e+02,4.917534500000000051e-03
2.680000000000000000e+02,4.915858599999999717e-03
2.690000000000000000e+02,4.914299100000000045e-03
2.700000000000000000e+02,4.912847199999999769e-03
2.710000000000000000e+02,4.911494399999999892e-03
2.720000000000000000e+02,4.910233400000000095e-03
2.730000000000000000e+02,4.909056699999999988e-03
2.740000000000000000e+02,4.907957699999999923e-03
2.750000000000000000e+02,4.906930999999999793e-03
2.760000000000000000e+02,4.905970299999999618e-03
2.770000000000000000e+02,4.905071100000000031e-03
2.780000000000000000e+02,4.904228699999999865e-03
2.790000000000000000e+02,4.903438999999999888e-03
2.800000000000000000e+02,4.902697600000000336e-03
2.810000000000000000e+02,4.902001500000000185e-03
2.820000000000000000e+02,4.901346800000000274e-03
2.830000000000000000e+02,4.900731099999999785e-03
2.840000000000000000e+02,4.900151400000000296e-03
2.850000000000000000e+02,4.899605199999999654e-03
2.860000000000000000e+02,4.899089700000000373e-03
2.870000000000000000e+02,4.898603500000000242e-03
2.880000000000000000e+02,4.898144400000000245e-03
2.890000000000000000e+02,4.897710399999999700e-03
2.900000000000000000e+02,4.897300200000000332e-03
2.910000000000000000e+02,4.896911799999999725e-03
2.920000000000000000e+02,4.896543899999999602e-03
2.930000000000000000e+02,4.896195100000000355e-03
2.940000000000000000e+02,4.895864100000000239e-03
2.950000000000000000e+02,4.895550200000000317e-03
2.960000000000000000e+02,4.895252200000000178e-03
2.970000000000000000e+02,4.894969100000000350e-03
2.980000000000000000e+02,4.894699899999999625e-03
2.990000000000000000e+02,4.894443299999999726e-03
3.000000000000000000e+02,4.894199800000000392e-03
3.010000000000000000e+02,4.893967400000000072e-03
3.020000000000000000e+02,4.893745799999999965e-03
3.030000000000000000e+02,4.893534800000000004e-03
3.040000000000000000e+02,4.893333700000000383e-03
3.050000000000000000e+02,4.893141299999999826e-03
3.060000000000000000e+02,4.892957899999999735e-03
3.070000000000000000e+02,4.892782299999999703e-03
3.080000000000000000e+02,4.892614699999999796e-03
3.090000000000000000e+02,4.892454499999999810e-03
3.100000000000000000e+02,4.892301299999999610e-03
3.110000000000000000e+02,4.892154600000000325e-03
3.120000000000000000e+02,4.892014000000000085e-03
3.130000000000000000e+02,4.891878900000000419e-03
3.140000000000000000e+02,4.891749899999999797e-03
3.150000000000000000e+02,4.891626100000000081e-03
3.160000000000000000e+02,4.891507300000000336e-03
3.170000000000000000e+02,4.891393699999999761e-03
3.180000000000000000e+02,4.891284299999999752e-03
3.190000000000000000e+02,4.891178999999999839e-03
3.200000000000000000e+02,4.891078499999999829e-03
3.210000000000000000e+02,4.890981099999999575e-03
3.220000000000000000e+02,4.890888000000000353e-03
3.230000000000000000e+02,4.890798099999999621e-03
3.240000000000000000e+02,4.890712000000000184e-03
3.250000000000000000e+02,4.890629100000000104e-03
3.260000000000000000e+02,4.890549000000000111e-03
3.270000000000000000e+02,4.890472199999999943e-03
3.280000000000000000e+02,4.890397700000000125e-03
3.290000000000000000e+02,4.890326399999999664e-03
3.300000000000000000e+02,4.890257500000000021e-03
3.310000000000000000e+02,4.890190899999999861e-03
3.320000000000000000e+02,4.890126600000000053e-03
3.330000000000000000e+02,4.890064700000000195e-03
3.340000000000000000e+02,4.890005099999999820e-03
3.350000000000000000e+02,4.889947399999999660e-03
3.360000000000000000e+02,4.889891900000000249e-03
3.370000000000000000e+02,4.889837900000000050e-03
3.380000000000000000e+02,4.889786200000000201e-03
3.390000000000000000e+02,4.889736000000000429e-03
3.400000000000000000e+02,4.889687099999999800e-03
3.410000000000000000e+02,4.889640500000000389e-03
3.420000000000000000e+02,4.889594899999999585e-03
3.430000000000000000e+02,4.889551100000000261e-03
3.440000000000000000e+02,4.889508199999999943e-03
3.450000000000000000e+02,4.889467300000000308e-03
3.460000000000000000e+02,4.889427200000000077e-03
3.470000000000000000e+02,4.889388599999999925e-03
3.480000000000000000e+02,4.889351299999999782e-03
3.490000000000000000e+02,4.889314999999999981e-03
3.500000000000000000e+02,4.889279600000000052e-03
3.510000000000000000e+02,4.889245599999999733e-03
3.520000000000000000e+02,4.889212500000000156e-03
3.530000000000000000e+02,4.889180899999999788e-03
3.540000000000000000e+02,4.889149700000000424e-03
3.550000000000000000e+02,4.889119400000000067e-03
3.560000000000000000e+02,4.889090100000000050e-03
3.570000000000000000e+02,4.889061699999999906e-03
3.580000000000000000e+02,4.889034199999999636e-03
3.590000000000000000e+02,4.889007199999999970e-03
3.600000000000000000e+02,4.888981100000000177e-03
3.610000000000000000e+02,4.888955999999999857e-03
3.620000000000000000e+02,4.888931299999999674e-03
3.630000000000000000e+02,4.888907500000000232e-03
3.640000000000000000e+02,4.888884300000000127e-03
3.650000000000000000e+02,4.888861399999999691e-03
3.660000000000000000e+02,4.888839600000000063e-03
3.670000000000000000e+02,4.888818100000000104e-03
3.680000000000000000e+02,4.888797599999999619e-03
3.690000000000000000e+02,4.888777199999999601e-03
3.700000000000000000e+02,4.888757599999999856e-03
3.710000000000000000e+02,4.888738499999999848e-03
3.720000000000000000e+02,4.888719899999999577e-03
3.730000000000000000e+02,4.888701700000000309e-03
3.740000000000000000e+02,4.888683999999999912e-03
3.750000000000000000e+02,4.888666800000000118e-03
3.760000000000000000e+02,4.888649999999999593e-03
3.770000000000000000e+02,4.888633300000000403e-03
3.780000000000000000e+02,4.888617399999999752e-03
3.790000000000000000e+02,4.888602100000000172e-03
3.800000000000000000e+02,4.888586700000000125e-03
3.810000000000000000e+02,4.888571799999999815e-03
3.820000000000000000e+02,4.888557400000000108e-03
3.830000000000000000e+02,4.888543399999999671e-03
3.840000000000000000e+02,4.888529899999999838e-03
3.850000000000000000e+02,4.888516400000000005e-03
3.860000000000000000e+02,4.888503300000000308e-03
3.870000000000000000e+02,4.888490300000000212e-03
3.880000000000000000e+02,4.888478199999999989e-03
3.890000000000000000e+02,4.888465600000000029e-03
3.900000000000000000e+02,4.888454000000000410e-03
3.910000000000000000e+02,4.888442300000000323e-03
3.920000000000000000e+02,4.888431199999999574e-03
3.930000000000000000e+02,4.888420000000000092e-03
3.940000000000000000e+02,4.888409300000000346e-03
3.950000000000000000e+02,4.888398599999999733e-03
3.960000000000000000e+02,4.888388300000000124e-03
3.970000000000000000e+02,4.888378100000000115e-03
3.980000000000000000e+02,4.888368300000000242e-03
3.990000000000000000e+02,4.888358500000000370e-03
