# Time [s], Temperature [C]
1.000000000000000000e+00,2.499997099999999861e+01
2.000000000000000000e+00,4.625201799999999963e+01
3.000000000000000000e+00,5.829130200000000173e+01
4.000000000000000000e+00,6.801635699999999929e+01
5.000000000000000000e+00,7.613752700000000573e+01
6.000000000000000000e+00,8.325965899999999920e+01
7.000000000000000000e+00,8.963673400000000413e+01
8.000000000000000000e+00,9.544618199999999320e+01
9.000000000000000000e+00,1.008014900000000011e+02
1.000000000000000000e+01,1.057820099999999996e+02
1.100000000000000000e+01,1.104481799999999936e+02
1.200000000000000000e+01,1.148435599999999965e+02
1.300000000000000000e+01,1.190043299999999959e+02
1.400000000000000000e+01,1.229586299999999994e+02
1.500000000000000000e+01,1.267292599999999965e+02
1.600000000000000000e+01,1.303350800000000049e+02
1.700000000000000000e+01,1.337924700000000087e+02
1.800000000000000000e+01,1.371148399999999867e+02
1.900000000000000000e+01,1.403134000000000015e+02
2.000000000000000000e+01,1.433988600000000133e+02
2.100000000000000000e+01,1.463788600000000031e+02
2.200000000000000000e+01,1.492618999999999971e+02
2.300000000000000000e+01,1.520548200000000065e+02
2.400000000000000000e+01,1.547631499999999960e+02
2.500000000000000000e+01,1.573925199999999904e+02
2.600000000000000000e+01,1.599486400000000117e+02
2.700000000000000000e+01,1.624344199999999887e+02
2.800000000000000000e+01,1.648542199999999980e+02
2.900000000000000000e+01,1.672127499999999998e+02
3.000000000000000000e+01,1.695120499999999879e+02
3.100000000000000000e+01,1.717551899999999989e+02
3.200000000000000000e+01,1.739454499999999939e+02
3.300000000000000000e+01,1.760857200000000091e+02
3.400000000000000000e+01,1.781768199999999922e+02
3.500000000000000000e+01,1.802233300000000042e+02
3.600000000000000000e+01,1.822249500000000069e+02
3.700000000000000000e+01,1.841848799999999926e+02
3.800000000000000000e+01,1.861050899999999899e+02
3.900000000000000000e+01,1.879860500000000059e+02
4.000000000000000000e+01,1.898298000000000059e+02
4.100000000000000000e+01,1.916389599999999973e+02
4.200000000000000000e+01,1.934134999999999991e+02
4.300000000000000000e+01,1.951549200000000042e+02
4.400000000000000000e+01,1.968650700000000029e+02
4.500000000000000000e+01,1.985443899999999928e+02
4.600000000000000000e+01,2.001944900000000018e+02
4.700000000000000000e+01,2.018160599999999931e+02
4.800000000000000000e+01,2.034102800000000002e+02
4.900000000000000000e+01,2.049777100000000019e+02
5.000000000000000000e+01,2.065210399999999993e+02
5.100000000000000000e+01,2.080387599999999964e+02
5.200000000000000000e+01,2.095324200000000019e+02
5.300000000000000000e+01,2.110034899999999993e+02
5.400000000000000000e+01,2.124519699999999887e+02
5.500000000000000000e+01,2.138792899999999975e+02
5.600000000000000000e+01,2.152863299999999924e+02
5.700000000000000000e+01,2.166729400000000112e+02
5.800000000000000000e+01,2.180392600000000130e+02
5.900000000000000000e+01,2.193880299999999863e+02
6.000000000000000000e+01,2.207174100000000010e+02
6.100000000000000000e+01,2.220297199999999975e+02
6.200000000000000000e+01,2.233247700000000009e+02
6.300000000000000000e+01,2.246029499999999928e+02
6.400000000000000000e+01,2.258654799999999909e+02
6.500000000000000000e+01,2.271122900000000016e+02
6.600000000000000000e+01,2.283440400000000068e+02
6.700000000000000000e+01,2.295612199999999916e+02
6.800000000000000000e+01,2.307646300000000110e+02
6.900000000000000000e+01,2.319538400000000138e+02
7.000000000000000000e+01,2.331294100000000071e+02
7.100000000000000000e+01,2.342918099999999981e+02
7.200000000000000000e+01,2.354416400000000067e+02
7.300000000000000000e+01,2.365790599999999984e+02
7.400000000000000000e+01,2.377046799999999962e+02
7.500000000000000000e+01,2.388187700000000007e+02
7.600000000000000000e+01,2.399209099999999921e+02
7.700000000000000000e+01,2.410119599999999878e+02
7.800000000000000000e+01,2.420921199999999942e+02
7.900000000000000000e+01,2.431609500000000139e+02
8.000000000000000000e+01,2.442195299999999918e+02
8.100000000000000000e+01,2.452682599999999979e+02
8.200000000000000000e+01,2.463058800000000019e+02
8.300000000000000000e+01,2.473336600000000089e+02
8.400000000000000000e+01,2.483521900000000073e+02
8.500000000000000000e+01,2.493601700000000108e+02
8.600000000000000000e+01,2.503590700000000027e+02
8.700000000000000000e+01,2.513482700000000136e+02
8.800000000000000000e+01,2.523281599999999969e+02
8.900000000000000000e+01,2.532990700000000004e+02
9.000000000000000000e+01,2.542606499999999983e+02
9.100000000000000000e+01,2.552133000000000038e+02
9.200000000000000000e+01,2.561574100000000271e+02
9.300000000000000000e+01,2.570926200000000108e+02
9.400000000000000000e+01,2.580193199999999933e+02
9.500000000000000000e+01,2.589381999999999948e+02
9.600000000000000000e+01,2.598479300000000194e+02
9.700000000000000000e+01,2.607502099999999814e+02
9.800000000000000000e+01,2.616448399999999879e+02
9.900000000000000000e+01,2.625310099999999807e+02
1.000000000000000000e+02,2.634093599999999924e+02
1.010000000000000000e+02,2.642807900000000245e+02
1.020000000000000000e+02,2.651440699999999993e+02
1.030000000000000000e+02,2.660003100000000131e+02
1.040000000000000000e+02,2.668496999999999844e+02
1.050000000000000000e+02,2.676918299999999817e+02
1.060000000000000000e+02,2.685260599999999727e+02
1.070000000000000000e+02,2.693543399999999792e+02
1.080000000000000000e+02,2.701756899999999746e+02
1.090000000000000000e+02,2.709903600000000097e+02
1.100000000000000000e+02,2.717987400000000093e+02
1.110000000000000000e+02,2.726005900000000111e+02
1.120000000000000000e+02,2.733954499999999825e+02
1.130000000000000000e+02,2.741843600000000265e+02
1.140000000000000000e+02,2.749671900000000164e+02
1.150000000000000000e+02,2.757438999999999965e+02
1.160000000000000000e+02,2.765144700000000171e+02
1.170000000000000000e+02,2.772789300000000026e+02
1.180000000000000000e+02,2.780375700000000165e+02
1.190000000000000000e+02,2.787903099999999768e+02
1.200000000000000000e+02,2.795372300000000223e+02
1.210000000000000000e+02,2.802787200000000212e+02
1.220000000000000000e+02,2.810139500000000226e+02
1.230000000000000000e+02,2.817436200000000213e+02
1.240000000000000000e+02,2.824674699999999916e+02
1.250000000000000000e+02,2.831855199999999968e+02
1.260000000000000000e+02,2.838981600000000185e+02
1.270000000000000000e+02,2.846056500000000256e+02
1.280000000000000000e+02,2.853070099999999911e+02
1.290000000000000000e+02,2.860030499999999734e+02
1.300000000000000000e+02,2.866940599999999790e+02
1.310000000000000000e+02,2.873792100000000005e+02
1.320000000000000000e+02,2.880586900000000128e+02
1.330000000000000000e+02,2.887327900000000227e+02
1.340000000000000000e+02,2.894009399999999914e+02
1.350000000000000000e+02,2.900643000000000029e+02
1.360000000000000000e+02,2.907224699999999871e+02
1.370000000000000000e+02,2.913744199999999864e+02
1.380000000000000000e+02,2.920215099999999779e+02
1.390000000000000000e+02,2.926627799999999979e+02
1.400000000000000000e+02,2.932983699999999772e+02
1.410000000000000000e+02,2.939289600000000178e+02
1.420000000000000000e+02,2.945539899999999989e+02
1.430000000000000000e+02,2.951730699999999956e+02
1.440000000000000000e+02,2.957873500000000035e+02
1.450000000000000000e+02,2.963964500000000157e+02
1.460000000000000000e+02,2.969986000000000104e+02
1.470000000000000000e+02,2.975967400000000112e+02
1.480000000000000000e+02,2.981888700000000085e+02
1.490000000000000000e+02,2.987749299999999835e+02
1.500000000000000000e+02,2.993563199999999824e+02
1.510000000000000000e+02,2.999323999999999728e+02
1.520000000000000000e+02,3.005017700000000218e+02
1.530000000000000000e+02,3.010666499999999814e+02
1.540000000000000000e+02,3.016256999999999948e+02
1.550000000000000000e+02,3.021787100000000237e+02
1.560000000000000000e+02,3.027269900000000007e+02
1.570000000000000000e+02,3.032701700000000073e+02
1.580000000000000000e+02,3.038063700000000154e+02
1.590000000000000000e+02,3.043382899999999722e+02
1.600000000000000000e+02,3.048650799999999776e+02
1.610000000000000000e+02,3.053850100000000225e+02
1.620000000000000000e+02,3.059004800000000159e+02
1.630000000000000000e+02,3.064109799999999950e+02
1.640000000000000000e+02,3.069146400000000199e+02
1.650000000000000000e+02,3.074138199999999870e+02
1.660000000000000000e+02,3.079082300000000032e+02
1.670000000000000000e+02,3.083951700000000073e+02
1.680000000000000000e+02,3.088787800000000061e+02
1.690000000000000000e+02,3.093577000000000226e+02
1.700000000000000000e+02,3.098286400000000071e+02
1.710000000000000000e+02,3.102962600000000180e+02
1.720000000000000000e+02,3.107597000000000094e+02
1.730000000000000000e+02,3.112149999999999750e+02
1.740000000000000000e+02,3.116676600000000121e+02
1.750000000000000000e+02,3.121158800000000042e+02
1.760000000000000000e+02,3.125562100000000214e+02
1.770000000000000000e+02,3.129934999999999832e+02
1.780000000000000000e+02,3.134266400000000203e+02
1.790000000000000000e+02,3.138521400000000199e+02
1.800000000000000000e+02,3.142753299999999967e+02
1.810000000000000000e+02,3.146946100000000115e+02
1.820000000000000000e+02,3.151052199999999743e+02
1.830000000000000000e+02,3.155143699999999853e+02
1.840000000000000000e+02,3.159198299999999904e+02
1.850000000000000000e+02,3.163169899999999757e+02
1.860000000000000000e+02,3.167128000000000156e+02
1.870000000000000000e+02,3.171051600000000121e+02
1.880000000000000000e+02,3.174892300000000205e+02
1.890000000000000000e+02,3.178718299999999886e+02
1.900000000000000000e+02,3.182514300000000276e+02
1.910000000000000000e+02,3.186227400000000216e+02
1.920000000000000000e+02,3.189936200000000213e+02
1.930000000000000000e+02,3.193613599999999906e+02
1.940000000000000000e+02,3.197209199999999782e+02
1.950000000000000000e+02,3.200800800000000095e+02
1.960000000000000000e+02,3.204365799999999922e+02
1.970000000000000000e+02,3.207844200000000114e+02
1.980000000000000000e+02,3.211328100000000063e+02
1.990000000000000000e+02,3.214786700000000224e+02
2.000000000000000000e+02,3.218156999999999925e+02
2.010000000000000000e+02,3.221537200000000212e+02
2.020000000000000000e+02,3.224898400000000152e+02
2.030000000000000000e+02,3.228166499999999814e+02
2.040000000000000000e+02,3.231451999999999884e+02
2.050000000000000000e+02,3.234716199999999731e+02
2.060000000000000000e+02,3.237890899999999874e+02
2.070000000000000000e+02,3.241085499999999797e+02
2.080000000000000000e+02,3.244270300000000020e+02
2.090000000000000000e+02,3.247354700000000207e+02
2.100000000000000000e+02,3.250466599999999744e+02
2.110000000000000000e+02,3.253560499999999820e+02
2.120000000000000000e+02,3.256567099999999755e+02
2.130000000000000000e+02,3.259596599999999853e+02
2.140000000000000000e+02,3.262613799999999742e+02
2.150000000000000000e+02,3.265538300000000049e+02
2.160000000000000000e+02,3.268506499999999733e+02
2.170000000000000000e+02,3.271451099999999883e+02
2.180000000000000000e+02,3.274304200000000264e+02
2.190000000000000000e+02,3.277195100000000139e+02
2.200000000000000000e+02,3.280079700000000003e+02
2.210000000000000000e+02,3.282861599999999953e+02
2.220000000000000000e+02,3.285694899999999734e+02
2.230000000000000000e+02,3.288519600000000196e+02
2.240000000000000000e+02,3.291240500000000111e+02
2.250000000000000000e+02,3.294010299999999916e+02
2.260000000000000000e+02,3.296776100000000156e+02
2.270000000000000000e+02,3.299440900000000170e+02
2.280000000000000000e+02,3.302155799999999886e+02
2.290000000000000000e+02,3.304868200000000229e+02
2.300000000000000000e+02,3.307473100000000272e+02
2.310000000000000000e+02,3.310143699999999853e+02
2.320000000000000000e+02,3.312808200000000056e+02
2.330000000000000000e+02,3.315362900000000081e+02
2.340000000000000000e+02,3.317979700000000207e+02
2.350000000000000000e+02,3.320601500000000215e+02
2.360000000000000000e+02,3.323107299999999782e+02
2.370000000000000000e+02,3.325681200000000217e+02
2.380000000000000000e+02,3.328261400000000094e+02
2.390000000000000000e+02,3.330722700000000032e+02
2.400000000000000000e+02,3.333259899999999902e+02
2.410000000000000000e+02,3.335783700000000067e+02
2.420000000000000000e+02,3.338213499999999954e+02
2.430000000000000000e+02,3.340711999999999762e+02
2.440000000000000000e+02,3.343197599999999738e+02
2.450000000000000000e+02,3.345586500000000001e+02
2.460000000000000000e+02,3.348047199999999748e+02
2.470000000000000000e+02,3.350498400000000174e+02
2.480000000000000000e+02,3.352858600000000138e+02
2.490000000000000000e+02,3.355275300000000129e+02
2.500000000000000000e+02,3.357695600000000127e+02
2.510000000000000000e+02,3.360018900000000031e+02
2.520000000000000000e+02,3.362404500000000098e+02
2.530000000000000000e+02,3.364798900000000117e+02
2.540000000000000000e+02,3.367077600000000075e+02
2.550000000000000000e+02,3.369444300000000112e+02
2.560000000000000000e+02,3.371797500000000127e+02
2.570000000000000000e+02,3.374049699999999916e+02
2.580000000000000000e+02,3.376385799999999904e+02
2.590000000000000000e+02,3.378710899999999810e+02
2.600000000000000000e+02,3.380940600000000131e+02
2.610000000000000000e+02,3.383235199999999736e+02
2.620000000000000000e+02,3.385544100000000185e+02
2.630000000000000000e+02,3.387733499999999935e+02
2.640000000000000000e+02,3.390008199999999761e+02
2.650000000000000000e+02,3.392296799999999735e+02
2.660000000000000000e+02,3.394451900000000251e+02
2.670000000000000000e+02,3.396708399999999983e+02
2.680000000000000000e+02,3.398958700000000022e+02
2.690000000000000000e+02,3.401102300000000014e+02
2.700000000000000000e+02,3.403318800000000124e+02
2.710000000000000000e+02,3.405559400000000210e+02
2.720000000000000000e+02,3.407661400000000071e+02
2.730000000000000000e+02,3.409877599999999802e+02
2.740000000000000000e+02,3.412070600000000127e+02
2.750000000000000000e+02,3.414157999999999902e+02
2.760000000000000000e+02,3.416348300000000222e+02
2.770000000000000000e+02,3.418519000000000005e+02
2.780000000000000000e+02,3.420598100000000272e+02
2.790000000000000000e+02,3.422744400000000269e+02
2.800000000000000000e+02,3.424909400000000232e+02
2.810000000000000000e+02,3.426947900000000118e+02
2.820000000000000000e+02,3.429090299999999729e+02
2.830000000000000000e+02,3.431223800000000210e+02
2.840000000000000000e+02,3.433250400000000013e+02
2.850000000000000000e+02,3.435364099999999894e+02
2.860000000000000000e+02,3.437485399999999913e+02
2.870000000000000000e+02,3.439470800000000281e+02
2.880000000000000000e+02,3.441582599999999843e+02
2.890000000000000000e+02,3.443662699999999859e+02
2.900000000000000000e+02,3.445658900000000244e+02
2.910000000000000000e+02,3.447720899999999915e+02
2.920000000000000000e+02,3.449809300000000007e+02
2.930000000000000000e+02,3.451754799999999932e+02
2.940000000000000000e+02,3.453818999999999733e+02
2.950000000000000000e+02,3.455867299999999886e+02
2.960000000000000000e+02,3.457814300000000003e+02
2.970000000000000000e+02,3.459844400000000064e+02
2.980000000000000000e+02,3.461886299999999892e+02
2.990000000000000000e+02,3.463802499999999895e+02
3.000000000000000000e+02,3.465826999999999884e+02
3.010000000000000000e+02,3.464401899999999728e+02
3.020000000000000000e+02,3.449873000000000047e+02
3.030000000000000000e+02,3.450708000000000197e+02
3.040000000000000000e+02,3.450657299999999736e+02
3.050000000000000000e+02,3.451857899999999972e+02
3.060000000000000000e+02,3.453205899999999815e+02
3.070000000000000000e+02,3.454868799999999851e+02
3.080000000000000000e+02,3.456506999999999721e+02
3.090000000000000000e+02,3.458318199999999933e+02
3.100000000000000000e+02,3.460204499999999825e+02
3.110000000000000000e+02,3.462015099999999848e+02
3.120000000000000000e+02,3.463939199999999801e+02
3.130000000000000000e+02,3.465893599999999992e+02
3.140000000000000000e+02,3.467769499999999994e+02
3.150000000000000000e+02,3.469734500000000139e+02
3.160000000000000000e+02,3.471707799999999793e+02
3.170000000000000000e+02,3.473605999999999767e+02
3.180000000000000000e+02,3.475565500000000156e+02
3.190000000000000000e+02,3.477558000000000220e+02
3.200000000000000000e+02,3.479435399999999845e+02
3.210000000000000000e+02,3.481410200000000259e+02
3.220000000000000000e+02,3.483376200000000154e+02
3.230000000000000000e+02,3.485266100000000051e+02
3.240000000000000000e+02,3.487208899999999971e+02
3.250000000000000000e+02,3.489184300000000007e+02
3.260000000000000000e+02,3.491039099999999848e+02
3.270000000000000000e+02,3.492989200000000096e+02
3.280000000000000000e+02,3.494924899999999752e+02
3.290000000000000000e+02,3.496778600000000097e+02
3.300000000000000000e+02,3.498697500000000105e+02
3.310000000000000000e+02,3.500632600000000139e+02
3.320000000000000000e+02,3.502464299999999753e+02
3.330000000000000000e+02,3.504373499999999808e+02
3.340000000000000000e+02,3.506283900000000244e+02
3.350000000000000000e+02,3.508106399999999780e+02
3.360000000000000000e+02,3.510000299999999811e+02
3.370000000000000000e+02,3.511886299999999892e+02
3.380000000000000000e+02,3.513700299999999856e+02
3.390000000000000000e+02,3.515559400000000210e+02
3.400000000000000000e+02,3.517450900000000047e+02
3.410000000000000000e+02,3.519221200000000067e+02
3.420000000000000000e+02,3.521087299999999800e+02
3.430000000000000000e+02,3.522934599999999818e+02
3.440000000000000000e+02,3.524715600000000109e+02
3.450000000000000000e+02,3.526537799999999834e+02
3.460000000000000000e+02,3.528393899999999803e+02
3.470000000000000000e+02,3.530132100000000150e+02
3.480000000000000000e+02,3.531963799999999765e+02
3.490000000000000000e+02,3.533785399999999868e+02
3.500000000000000000e+02,3.535518500000000017e+02
3.510000000000000000e+02,3.537323299999999904e+02
3.520000000000000000e+02,3.539126600000000167e+02
3.530000000000000000e+02,3.540850199999999859e+02
3.540000000000000000e+02,3.542629699999999957e+02
3.550000000000000000e+02,3.544424700000000144e+02
3.560000000000000000e+02,3.546123000000000047e+02
3.570000000000000000e+02,3.547905600000000277e+02
3.580000000000000000e+02,3.549675300000000107e+02
3.590000000000000000e+02,3.551360799999999927e+02
3.600000000000000000e+02,3.553114899999999921e+02
3.610000000000000000e+02,3.554867199999999912e+02
3.620000000000000000e+02,3.556543899999999780e+02
3.630000000000000000e+02,3.558273599999999988e+02
3.640000000000000000e+02,3.560018000000000029e+02
3.650000000000000000e+02,3.561681500000000256e+02
3.660000000000000000e+02,3.563386800000000108e+02
3.670000000000000000e+02,3.565124799999999823e+02
3.680000000000000000e+02,3.566751699999999801e+02
3.690000000000000000e+02,3.568470199999999863e+02
3.700000000000000000e+02,3.568106399999999780e+02
3.710000000000000000e+02,3.563264199999999846e+02
3.720000000000000000e+02,3.564494599999999878e+02
3.730000000000000000e+02,3.565378099999999790e+02
3.740000000000000000e+02,3.566700399999999718e+02
3.750000000000000000e+02,3.568111599999999726e+02
3.760000000000000000e+02,3.569647199999999998e+02
3.770000000000000000e+02,3.571122100000000046e+02
3.780000000000000000e+02,3.572715099999999779e+02
3.790000000000000000e+02,3.574334099999999808e+02
3.800000000000000000e+02,3.575877399999999966e+02
3.810000000000000000e+02,3.577513400000000274e+02
3.820000000000000000e+02,3.579140899999999874e+02
3.830000000000000000e+02,3.580728100000000040e+02
3.840000000000000000e+02,3.582357499999999959e+02
3.850000000000000000e+02,3.584000899999999774e+02
3.860000000000000000e+02,3.585580400000000054e+02
3.870000000000000000e+02,3.587209199999999782e+02
3.880000000000000000e+02,3.588866600000000062e+02
3.890000000000000000e+02,3.590436399999999821e+02
3.900000000000000000e+02,3.592060200000000236e+02
3.910000000000000000e+02,3.593696899999999914e+02
3.920000000000000000e+02,3.595258799999999724e+02
3.930000000000000000e+02,3.596878100000000131e+02
3.940000000000000000e+02,3.598510699999999929e+02
3.950000000000000000e+02,3.600054600000000278e+02
3.960000000000000000e+02,3.601673599999999738e+02
3.970000000000000000e+02,3.603283999999999878e+02
3.980000000000000000e+02,3.604834000000000174e+02
3.990000000000000000e+02,3.606434899999999857e+02
