# Time [s], Temperature [C]
1.000000000000000000e+00,2.499997700000000123e+01
2.000000000000000000e+00,5.663666500000000070e+01
3.000000000000000000e+00,7.469806699999999466e+01
4.000000000000000000e+00,8.938085200000000441e+01
5.000000000000000000e+00,1.016501999999999981e+02
6.000000000000000000e+00,1.124243500000000040e+02
7.000000000000000000e+00,1.220742999999999938e+02
8.000000000000000000e+00,1.308677399999999977e+02
9.000000000000000000e+00,1.389723999999999933e+02
1.000000000000000000e+01,1.465105700000000013e+02
1.100000000000000000e+01,1.535756499999999960e+02
1.200000000000000000e+01,1.602423599999999908e+02
1.300000000000000000e+01,1.665733899999999892e+02
1.400000000000000000e+01,1.726249400000000094e+02
1.500000000000000000e+01,1.784497399999999914e+02
1.600000000000000000e+01,1.840884100000000103e+02
1.700000000000000000e+01,1.895651400000000137e+02
1.800000000000000000e+01,1.948756999999999948e+02
1.900000000000000000e+01,1.999983200000000068e+02
2.000000000000000000e+01,2.049128100000000074e+02
2.100000000000000000e+01,2.096041400000000010e+02
2.200000000000000000e+01,2.140715600000000052e+02
2.300000000000000000e+01,2.183341200000000129e+02
2.400000000000000000e+01,2.223924900000000093e+02
2.500000000000000000e+01,2.262612499999999898e+02
2.600000000000000000e+01,2.299590800000000002e+02
2.700000000000000000e+01,2.334687800000000095e+02
2.800000000000000000e+01,2.367975500000000011e+02
2.900000000000000000e+01,2.399783600000000092e+02
3.000000000000000000e+01,2.429574299999999880e+02
3.100000000000000000e+01,2.457507200000000012e+02
3.200000000000000000e+01,2.484272200000000055e+02
3.300000000000000000e+01,2.508835599999999886e+02
3.400000000000000000e+01,2.531615099999999927e+02
3.500000000000000000e+01,2.553892999999999915e+02
3.600000000000000000e+01,2.573833599999999819e+02
3.700000000000000000e+01,2.592299499999999739e+02
3.800000000000000000e+01,2.611238399999999729e+02
3.900000000000000000e+01,2.627770699999999806e+02
4.000000000000000000e+01,2.643236699999999928e+02
4.100000000000000000e+01,2.660236800000000130e+02
4.200000000000000000e+01,2.674608200000000124e+02
4.300000000000000000e+01,2.688319999999999936e+02
4.400000000000000000e+01,2.704433000000000220e+02
4.500000000000000000e+01,2.717622700000000009e+02
4.600000000000000000e+01,2.730423900000000117e+02
4.700000000000000000e+01,2.746258500000000140e+02
4.800000000000000000e+01,2.758854999999999791e+02
4.900000000000000000e+01,2.771258500000000140e+02
5.000000000000000000e+01,2.787082500000000209e+02
5.100000000000000000e+01,2.799394800000000032e+02
5.200000000000000000e+01,2.811589999999999918e+02
5.300000000000000000e+01,2.827402000000000157e+02
5.400000000000000000e+01,2.839545899999999961e+02
5.500000000000000000e+01,2.851588399999999979e+02
5.600000000000000000e+01,2.867274800000000141e+02
5.700000000000000000e+01,2.879249300000000176e+02
5.800000000000000000e+01,2.891106899999999769e+02
5.900000000000000000e+01,2.906472800000000234e+02
6.000000000000000000e+01,2.914408000000000243e+02
6.100000000000000000e+01,2.889029499999999757e+02
6.200000000000000000e+01,2.901415400000000204e+02
6.300000000000000000e+01,2.909612700000000132e+02
6.400000000000000000e+01,2.920687899999999786e+02
6.500000000000000000e+01,2.934800700000000120e+02
6.600000000000000000e+01,2.946692199999999957e+02
6.700000000000000000e+01,2.958151199999999790e+02
6.800000000000000000e+01,2.972460899999999810e+02
6.900000000000000000e+01,2.984311200000000213e+02
7.000000000000000000e+01,2.995660700000000247e+02
7.100000000000000000e+01,3.009500699999999824e+02
7.200000000000000000e+01,3.021060800000000199e+02
7.300000000000000000e+01,3.032157300000000077e+02
7.400000000000000000e+01,3.045413199999999847e+02
7.500000000000000000e+01,3.056673000000000116e+02
7.600000000000000000e+01,3.067429500000000075e+02
7.700000000000000000e+01,3.080119000000000256e+02
7.800000000000000000e+01,3.091044600000000173e+02
7.900000000000000000e+01,3.101510599999999727e+02
8.000000000000000000e+01,3.113685899999999833e+02
8.100000000000000000e+01,3.124284400000000232e+02
8.200000000000000000e+01,3.134505899999999770e+02
8.300000000000000000e+01,3.146181000000000267e+02
8.400000000000000000e+01,3.156437099999999987e+02
8.500000000000000000e+01,3.166384600000000091e+02
8.600000000000000000e+01,3.177578399999999874e+02
8.700000000000000000e+01,3.187560100000000034e+02
8.800000000000000000e+01,3.197241799999999898e+02
8.900000000000000000e+01,3.207998400000000174e+02
9.000000000000000000e+01,3.217690400000000182e+02
9.100000000000000000e+01,3.227192400000000134e+02
9.200000000000000000e+01,3.237514300000000276e+02
9.300000000000000000e+01,3.247000699999999824e+02
9.400000000000000000e+01,3.256228899999999840e+02
9.500000000000000000e+01,3.266192899999999781e+02
9.600000000000000000e+01,3.275461999999999989e+02
9.700000000000000000e+01,3.284446399999999926e+02
9.800000000000000000e+01,3.294147899999999822e+02
9.900000000000000000e+01,3.303187599999999975e+02
1.000000000000000000e+02,3.312009600000000091e+02
1.010000000000000000e+02,3.321417799999999829e+02
1.020000000000000000e+02,3.330225500000000238e+02
1.030000000000000000e+02,3.338889199999999846e+02
1.040000000000000000e+02,3.348032799999999725e+02
1.050000000000000000e+02,3.356638800000000060e+02
1.060000000000000000e+02,3.365087899999999763e+02
1.070000000000000000e+02,3.372314499999999953e+02
1.080000000000000000e+02,3.364197700000000282e+02
1.090000000000000000e+02,3.369315199999999777e+02
1.100000000000000000e+02,3.374136700000000246e+02
1.110000000000000000e+02,3.380477000000000203e+02
1.120000000000000000e+02,3.387203099999999836e+02
1.130000000000000000e+02,3.394960899999999810e+02
1.140000000000000000e+02,3.402572599999999738e+02
1.150000000000000000e+02,3.410238299999999754e+02
1.160000000000000000e+02,3.418448200000000270e+02
1.170000000000000000e+02,3.426409600000000069e+02
1.180000000000000000e+02,3.434309700000000021e+02
1.190000000000000000e+02,3.442539699999999812e+02
1.200000000000000000e+02,3.450523999999999774e+02
1.210000000000000000e+02,3.458406699999999887e+02
1.220000000000000000e+02,3.466541700000000219e+02
1.230000000000000000e+02,3.474434800000000223e+02
1.240000000000000000e+02,3.482214999999999918e+02
1.250000000000000000e+02,3.490243199999999888e+02
1.260000000000000000e+02,3.497975799999999822e+02
1.270000000000000000e+02,3.505636000000000081e+02
1.280000000000000000e+02,3.513507700000000114e+02
1.290000000000000000e+02,3.521147500000000150e+02
1.300000000000000000e+02,3.528692899999999781e+02
1.310000000000000000e+02,3.536417500000000018e+02
1.320000000000000000e+02,3.543935900000000174e+02
1.330000000000000000e+02,3.551345200000000091e+02
1.340000000000000000e+02,3.558912399999999820e+02
1.350000000000000000e+02,3.566299999999999955e+02
1.360000000000000000e+02,3.573591599999999744e+02
1.370000000000000000e+02,3.581028400000000147e+02
1.380000000000000000e+02,3.588291600000000017e+02
1.390000000000000000e+02,3.595466000000000122e+02
1.400000000000000000e+02,3.602799400000000105e+02
1.410000000000000000e+02,3.609939600000000155e+02
1.420000000000000000e+02,3.617014500000000226e+02
1.430000000000000000e+02,3.624204700000000230e+02
1.440000000000000000e+02,3.631230499999999779e+02
1.450000000000000000e+02,3.638213499999999954e+02
1.460000000000000000e+02,3.645273700000000190e+02
1.470000000000000000e+02,3.652199699999999893e+02
1.480000000000000000e+02,3.659103999999999814e+02
1.490000000000000000e+02,3.663413699999999835e+02
1.500000000000000000e+02,3.667524999999999977e+02
1.510000000000000000e+02,3.673869599999999878e+02
1.520000000000000000e+02,3.680020099999999843e+02
1.530000000000000000e+02,3.686261600000000271e+02
1.540000000000000000e+02,3.692588499999999954e+02
1.550000000000000000e+02,3.699027399999999943e+02
1.560000000000000000e+02,3.705447100000000091e+02
1.570000000000000000e+02,3.711832899999999995e+02
1.580000000000000000e+02,3.718344999999999914e+02
1.590000000000000000e+02,3.724856899999999769e+02
1.600000000000000000e+02,3.731283900000000244e+02
1.610000000000000000e+02,3.737791700000000219e+02
1.620000000000000000e+02,3.744242199999999912e+02
1.630000000000000000e+02,3.750644800000000032e+02
1.640000000000000000e+02,3.757196999999999889e+02
1.650000000000000000e+02,3.763596200000000067e+02
1.660000000000000000e+02,3.769959099999999808e+02
1.670000000000000000e+02,3.776402299999999741e+02
1.680000000000000000e+02,3.782765800000000240e+02
1.690000000000000000e+02,3.789092699999999923e+02
1.700000000000000000e+02,3.795433300000000258e+02
1.710000000000000000e+02,3.801696800000000280e+02
1.720000000000000000e+02,3.807984000000000151e+02
1.730000000000000000e+02,3.814255400000000122e+02
1.740000000000000000e+02,3.820474500000000262e+02
1.750000000000000000e+02,3.826651299999999765e+02
1.760000000000000000e+02,3.832883299999999736e+02
1.770000000000000000e+02,3.839007899999999722e+02
1.780000000000000000e+02,3.845116300000000251e+02
1.790000000000000000e+02,3.851262199999999893e+02
1.800000000000000000e+02,3.857313500000000204e+02
1.810000000000000000e+02,3.863346599999999853e+02
1.820000000000000000e+02,3.869426000000000272e+02
1.830000000000000000e+02,3.875444600000000150e+02
1.840000000000000000e+02,3.881418499999999767e+02
1.850000000000000000e+02,3.887423099999999749e+02
1.860000000000000000e+02,3.893321199999999749e+02
1.870000000000000000e+02,3.899262100000000260e+02
1.880000000000000000e+02,3.903842200000000275e+02
1.890000000000000000e+02,3.908414599999999837e+02
1.900000000000000000e+02,3.914003000000000156e+02
1.910000000000000000e+02,3.919636499999999728e+02
1.920000000000000000e+02,3.925204499999999825e+02
1.930000000000000000e+02,3.930813600000000179e+02
1.940000000000000000e+02,3.936392200000000230e+02
1.950000000000000000e+02,3.942008400000000279e+02
1.960000000000000000e+02,3.947582699999999818e+02
1.970000000000000000e+02,3.953199200000000246e+02
1.980000000000000000e+02,3.958777200000000107e+02
1.990000000000000000e+02,3.964345400000000268e+02
2.000000000000000000e+02,3.969949300000000108e+02
2.010000000000000000e+02,3.975530999999999722e+02
2.020000000000000000e+02,3.981048299999999927e+02
2.030000000000000000e+02,3.986619600000000219e+02
2.040000000000000000e+02,3.992158800000000269e+02
2.050000000000000000e+02,3.997680700000000229e+02
2.060000000000000000e+02,4.003235500000000116e+02
2.070000000000000000e+02,4.008702099999999859e+02
2.080000000000000000e+02,4.014210199999999986e+02
2.090000000000000000e+02,4.019692400000000134e+02
2.100000000000000000e+02,4.025145600000000172e+02
2.110000000000000000e+02,4.030572799999999916e+02
2.120000000000000000e+02,4.036003999999999792e+02
2.130000000000000000e+02,4.041407199999999875e+02
2.140000000000000000e+02,4.046813000000000216e+02
2.150000000000000000e+02,4.052211899999999787e+02
2.160000000000000000e+02,4.057567700000000173e+02
2.170000000000000000e+02,4.062923000000000116e+02
2.180000000000000000e+02,4.068232100000000173e+02
2.190000000000000000e+02,4.073547699999999736e+02
2.200000000000000000e+02,4.078812300000000164e+02
2.210000000000000000e+02,4.084090899999999920e+02
2.220000000000000000e+02,4.088794599999999946e+02
2.230000000000000000e+02,4.093341100000000097e+02
2.240000000000000000e+02,4.098277899999999931e+02
2.250000000000000000e+02,4.103240999999999872e+02
2.260000000000000000e+02,4.108272400000000175e+02
2.270000000000000000e+02,4.113285200000000259e+02
2.280000000000000000e+02,4.118301700000000096e+02
2.290000000000000000e+02,4.123260200000000282e+02
2.300000000000000000e+02,4.128288299999999822e+02
2.310000000000000000e+02,4.133289199999999823e+02
2.320000000000000000e+02,4.138246199999999817e+02
2.330000000000000000e+02,4.143214699999999766e+02
2.340000000000000000e+02,4.148192099999999982e+02
2.350000000000000000e+02,4.153119500000000244e+02
2.360000000000000000e+02,4.158088700000000131e+02
2.370000000000000000e+02,4.163036799999999857e+02
2.380000000000000000e+02,4.167911399999999844e+02
2.390000000000000000e+02,4.172845199999999863e+02
2.400000000000000000e+02,4.177751799999999776e+02
2.410000000000000000e+02,4.182611099999999738e+02
2.420000000000000000e+02,4.187488700000000108e+02
2.430000000000000000e+02,4.192364499999999907e+02
2.440000000000000000e+02,4.197184399999999869e+02
2.450000000000000000e+02,4.202036699999999882e+02
2.460000000000000000e+02,4.206837499999999750e+02
2.470000000000000000e+02,4.211613500000000272e+02
2.480000000000000000e+02,4.216408700000000067e+02
2.490000000000000000e+02,4.221192899999999781e+02
2.500000000000000000e+02,4.225918899999999780e+02
2.510000000000000000e+02,4.230671100000000138e+02
2.520000000000000000e+02,4.235375099999999975e+02
2.530000000000000000e+02,4.239883399999999938e+02
2.540000000000000000e+02,4.244317599999999970e+02
2.550000000000000000e+02,4.248805800000000090e+02
2.560000000000000000e+02,4.253299000000000092e+02
2.570000000000000000e+02,4.257821999999999889e+02
2.580000000000000000e+02,4.262345599999999877e+02
2.590000000000000000e+02,4.266806000000000267e+02
2.600000000000000000e+02,4.271318099999999731e+02
2.610000000000000000e+02,4.275803500000000099e+02
2.620000000000000000e+02,4.280288400000000024e+02
2.630000000000000000e+02,4.284736300000000142e+02
2.640000000000000000e+02,4.289189799999999764e+02
2.650000000000000000e+02,4.293643799999999828e+02
2.660000000000000000e+02,4.298093000000000075e+02
2.670000000000000000e+02,4.302496899999999869e+02
2.680000000000000000e+02,4.306890300000000025e+02
2.690000000000000000e+02,4.311298499999999763e+02
2.700000000000000000e+02,4.315690900000000170e+02
2.710000000000000000e+02,4.320076900000000251e+02
2.720000000000000000e+02,4.324465900000000147e+02
2.730000000000000000e+02,4.328826000000000249e+02
2.740000000000000000e+02,4.333139300000000276e+02
2.750000000000000000e+02,4.337486599999999726e+02
2.760000000000000000e+02,4.341806300000000078e+02
2.770000000000000000e+02,4.346091599999999744e+02
2.780000000000000000e+02,4.350413199999999847e+02
2.790000000000000000e+02,4.354675599999999918e+02
2.800000000000000000e+02,4.358944099999999935e+02
2.810000000000000000e+02,4.363211999999999762e+02
2.820000000000000000e+02,4.367467700000000264e+02
2.830000000000000000e+02,4.371573200000000270e+02
2.840000000000000000e+02,4.375586200000000190e+02
2.850000000000000000e+02,4.379693300000000136e+02
2.860000000000000000e+02,4.383777799999999729e+02
2.870000000000000000e+02,4.387875399999999786e+02
2.880000000000000000e+02,4.391943699999999922e+02
2.890000000000000000e+02,4.396033600000000092e+02
2.900000000000000000e+02,4.400130599999999959e+02
2.910000000000000000e+02,4.404209000000000174e+02
2.920000000000000000e+02,4.408277600000000120e+02
2.930000000000000000e+02,4.412355299999999829e+02
2.940000000000000000e+02,4.416422699999999963e+02
2.950000000000000000e+02,4.420486799999999903e+02
2.960000000000000000e+02,4.424544700000000148e+02
2.970000000000000000e+02,4.428552599999999870e+02
2.980000000000000000e+02,4.432583900000000199e+02
2.990000000000000000e+02,4.436625399999999786e+02
3.000000000000000000e+02,4.440656399999999735e+02
3.010000000000000000e+02,4.444679899999999861e+02
3.020000000000000000e+02,4.448698699999999917e+02
3.030000000000000000e+02,4.452703200000000265e+02
3.040000000000000000e+02,4.456706500000000233e+02
3.050000000000000000e+02,4.460716199999999958e+02
3.060000000000000000e+02,4.464718899999999735e+02
3.070000000000000000e+02,4.468714600000000132e+02
3.080000000000000000e+02,4.472674299999999903e+02
3.090000000000000000e+02,4.476646099999999819e+02
3.100000000000000000e+02,4.480625299999999811e+02
3.110000000000000000e+02,4.484610599999999749e+02
3.120000000000000000e+02,4.488587600000000180e+02
3.130000000000000000e+02,4.492562300000000164e+02
3.140000000000000000e+02,4.496537200000000212e+02
3.150000000000000000e+02,4.500500799999999799e+02
3.160000000000000000e+02,4.504395400000000222e+02
3.170000000000000000e+02,4.508260500000000093e+02
3.180000000000000000e+02,4.512161600000000021e+02
3.190000000000000000e+02,4.516061399999999821e+02
3.200000000000000000e+02,4.519975900000000024e+02
3.210000000000000000e+02,4.523879099999999767e+02
3.220000000000000000e+02,4.527785900000000083e+02
3.230000000000000000e+02,4.531687900000000013e+02
3.240000000000000000e+02,4.535613700000000108e+02
3.250000000000000000e+02,4.539548300000000154e+02
3.260000000000000000e+02,4.543500399999999786e+02
3.270000000000000000e+02,4.547459400000000187e+02
3.280000000000000000e+02,4.551417799999999829e+02
3.290000000000000000e+02,4.555386700000000246e+02
3.300000000000000000e+02,4.559369199999999864e+02
3.310000000000000000e+02,4.563366399999999885e+02
3.320000000000000000e+02,4.567381599999999935e+02
3.330000000000000000e+02,4.571394300000000044e+02
3.340000000000000000e+02,4.575417800000000170e+02
3.350000000000000000e+02,4.579470499999999902e+02
3.360000000000000000e+02,4.583505900000000111e+02
3.370000000000000000e+02,4.587582100000000196e+02
3.380000000000000000e+02,4.591680000000000064e+02
3.390000000000000000e+02,4.595790400000000204e+02
3.400000000000000000e+02,4.599925499999999943e+02
3.410000000000000000e+02,4.604091500000000110e+02
3.420000000000000000e+02,4.608278199999999742e+02
3.430000000000000000e+02,4.612478600000000029e+02
3.440000000000000000e+02,4.616682700000000068e+02
3.450000000000000000e+02,4.620938100000000190e+02
3.460000000000000000e+02,4.625222800000000234e+02
3.470000000000000000e+02,4.629518400000000042e+02
3.480000000000000000e+02,4.633863499999999931e+02
3.490000000000000000e+02,4.638243699999999876e+02
3.500000000000000000e+02,4.642634300000000280e+02
3.510000000000000000e+02,4.647073700000000258e+02
3.520000000000000000e+02,4.651560400000000186e+02
3.530000000000000000e+02,4.656096200000000067e+02
3.540000000000000000e+02,4.660664100000000190e+02
3.550000000000000000e+02,4.665246300000000019e+02
3.560000000000000000e+02,4.669879500000000121e+02
3.570000000000000000e+02,4.674580700000000206e+02
3.580000000000000000e+02,4.679333199999999806e+02
3.590000000000000000e+02,4.684112499999999955e+02
3.600000000000000000e+02,4.688960599999999772e+02
3.610000000000000000e+02,4.693846399999999903e+02
3.620000000000000000e+02,4.698734099999999785e+02
3.630000000000000000e+02,4.703645900000000211e+02
3.640000000000000000e+02,4.708681000000000267e+02
3.650000000000000000e+02,4.713751199999999812e+02
3.660000000000000000e+02,4.718889199999999846e+02
3.670000000000000000e+02,4.724087799999999788e+02
3.680000000000000000e+02,4.729380800000000136e+02
3.690000000000000000e+02,4.734724100000000249e+02
3.700000000000000000e+02,4.740136699999999905e+02
3.710000000000000000e+02,4.745643000000000029e+02
3.720000000000000000e+02,4.751168499999999995e+02
3.730000000000000000e+02,4.756811200000000213e+02
3.740000000000000000e+02,4.762484099999999785e+02
3.750000000000000000e+02,4.768263200000000097e+02
3.760000000000000000e+02,4.774092400000000112e+02
3.770000000000000000e+02,4.779978899999999840e+02
3.780000000000000000e+02,4.785966799999999921e+02
3.790000000000000000e+02,4.791976300000000037e+02
3.800000000000000000e+02,4.798086900000000128e+02
3.810000000000000000e+02,4.804261200000000258e+02
3.820000000000000000e+02,4.810501399999999990e+02
3.830000000000000000e+02,4.816786200000000235e+02
3.840000000000000000e+02,4.823159499999999866e+02
3.850000000000000000e+02,4.829589500000000157e+02
3.860000000000000000e+02,4.836065699999999765e+02
3.870000000000000000e+02,4.842618400000000065e+02
3.880000000000000000e+02,4.849224899999999820e+02
3.890000000000000000e+02,4.855891100000000051e+02
3.900000000000000000e+02,4.862625699999999824e+02
3.910000000000000000e+02,4.869386600000000271e+02
3.920000000000000000e+02,4.876211500000000001e+02
3.930000000000000000e+02,4.883088099999999940e+02
3.940000000000000000e+02,4.890009800000000268e+02
3.950000000000000000e+02,4.896980599999999981e+02
3.960000000000000000e+02,4.903990499999999884e+02
3.970000000000000000e+02,4.911056800000000067e+02
3.980000000000000000e+02,4.918146699999999782e+02
3.990000000000000000e+02,4.925277699999999754e+02
