# Time [s], Mass [Kg]
1.000000000000000000e+00,1.000000000000000000e+00
2.000000000000000000e+00,1.000000000000000000e+00
3.000000000000000000e+00,1.000000000000000000e+00
4.000000000000000000e+00,1.000000000000000000e+00
5.000000000000000000e+00,1.000000000000000000e+00
6.000000000000000000e+00,1.000000000000000000e+00
7.000000000000000000e+00,9.999998199999999837e-01
8.000000000000000000e+00,9.999985700000000310e-01
9.000000000000000000e+00,9.999929100000000126e-01
1.000000000000000000e+01,9.999713300000000471e-01
1.100000000000000000e+01,9.999039199999999461e-01
1.200000000000000000e+01,9.997276699999999572e-01
1.300000000000000000e+01,9.993345099999999537e-01
1.400000000000000000e+01,9.985851000000000033e-01
1.500000000000000000e+01,9.973766200000000470e-01
1.600000000000000000e+01,9.957092400000000509e-01
1.700000000000000000e+01,9.936813100000000398e-01
1.800000000000000000e+01,9.914516199999999779e-01
1.900000000000000000e+01,9.890868099999999830e-01
2.000000000000000000e+01,9.867102500000000109e-01
2.100000000000000000e+01,9.844706100000000237e-01
2.200000000000000000e+01,9.823536899999999461e-01
2.300000000000000000e+01,9.804402599999999524e-01
2.400000000000000000e+01,9.787318099999999799e-01
2.500000000000000000e+01,9.770897600000000294e-01
2.600000000000000000e+01,9.753783900000000395e-01
2.700000000000000000e+01,9.735186700000000304e-01
2.800000000000000000e+01,9.714975999999999612e-01
2.900000000000000000e+01,9.693644000000000149e-01
3.000000000000000000e+01,9.672086800000000428e-01
3.100000000000000000e+01,9.650995100000000493e-01
3.200000000000000000e+01,9.630888699999999858e-01
3.300000000000000000e+01,9.612024399999999913e-01
3.400000000000000000e+01,9.594399300000000519e-01
3.500000000000000000e+01,9.577707600000000543e-01
3.600000000000000000e+01,9.561397400000000157e-01
3.700000000000000000e+01,9.544854799999999972e-01
3.800000000000000000e+01,9.527639700000000156e-01
3.900000000000000000e+01,9.509628399999999759e-01
4.000000000000000000e+01,9.490984700000000274e-01
4.100000000000000000e+01,9.472051299999999507e-01
4.200000000000000000e+01,9.453221000000000540e-01
4.300000000000000000e+01,9.434833500000000539e-01
4.400000000000000000e+01,9.417119000000000462e-01
4.500000000000000000e+01,9.400162699999999871e-01
4.600000000000000000e+01,9.383897799999999512e-01
4.700000000000000000e+01,9.368127600000000221e-01
4.800000000000000000e+01,9.352573800000000270e-01
4.900000000000000000e+01,9.336956100000000092e-01
5.000000000000000000e+01,9.321070900000000270e-01
5.100000000000000000e+01,9.304835799999999768e-01
5.200000000000000000e+01,9.288287200000000521e-01
5.300000000000000000e+01,9.271550200000000519e-01
5.400000000000000000e+01,9.254795300000000502e-01
5.500000000000000000e+01,9.238198399999999477e-01
5.600000000000000000e+01,9.221898899999999566e-01
5.700000000000000000e+01,9.205985700000000049e-01
5.800000000000000000e+01,9.190480100000000263e-01
5.900000000000000000e+01,9.175338100000000052e-01
6.000000000000000000e+01,9.160459600000000480e-01
6.100000000000000000e+01,9.145715199999999712e-01
6.200000000000000000e+01,9.130973199999999901e-01
6.300000000000000000e+01,9.116131699999999727e-01
6.400000000000000000e+01,9.101135099999999589e-01
6.500000000000000000e+01,9.085978900000000191e-01
6.600000000000000000e+01,9.070704000000000544e-01
6.700000000000000000e+01,9.055378400000000383e-01
6.800000000000000000e+01,9.040082699999999472e-01
6.900000000000000000e+01,9.024894199999999866e-01
7.000000000000000000e+01,9.009869700000000536e-01
7.100000000000000000e+01,8.995044199999999712e-01
7.200000000000000000e+01,8.980418399999999801e-01
7.300000000000000000e+01,8.965966699999999845e-01
7.400000000000000000e+01,8.951638299999999937e-01
7.500000000000000000e+01,8.937372599999999778e-01
7.600000000000000000e+01,8.923105599999999749e-01
7.700000000000000000e+01,8.908783200000000013e-01
7.800000000000000000e+01,8.894372600000000073e-01
7.900000000000000000e+01,8.879863599999999746e-01
8.000000000000000000e+01,8.865267000000000008e-01
8.100000000000000000e+01,8.850610300000000263e-01
8.200000000000000000e+01,8.835930199999999513e-01
8.300000000000000000e+01,8.821265099999999748e-01
8.400000000000000000e+01,8.806646500000000488e-01
8.500000000000000000e+01,8.792095199999999666e-01
8.600000000000000000e+01,8.777620200000000317e-01
8.700000000000000000e+01,8.763215500000000047e-01
8.800000000000000000e+01,8.748860400000000315e-01
8.900000000000000000e+01,8.732104299999999819e-01
9.000000000000000000e+01,8.716553999999999691e-01
9.100000000000000000e+01,8.701335199999999936e-01
9.200000000000000000e+01,8.686261199999999461e-01
9.300000000000000000e+01,8.671218200000000431e-01
9.400000000000000000e+01,8.656179299999999799e-01
9.500000000000000000e+01,8.641127899999999640e-01
9.600000000000000000e+01,8.626072999999999658e-01
9.700000000000000000e+01,8.611026999999999987e-01
9.800000000000000000e+01,8.596001300000000178e-01
9.900000000000000000e+01,8.580999400000000055e-01
1.000000000000000000e+02,8.566014800000000262e-01
1.010000000000000000e+02,8.551031900000000130e-01
1.020000000000000000e+02,8.536027699999999552e-01
1.030000000000000000e+02,8.520975699999999708e-01
1.040000000000000000e+02,8.505848599999999982e-01
1.050000000000000000e+02,8.490623800000000054e-01
1.060000000000000000e+02,8.475285200000000074e-01
1.070000000000000000e+02,8.459826700000000477e-01
1.080000000000000000e+02,8.444247200000000175e-01
1.090000000000000000e+02,8.428553899999999821e-01
1.100000000000000000e+02,8.412758700000000367e-01
1.110000000000000000e+02,8.396871700000000383e-01
1.120000000000000000e+02,8.380901800000000179e-01
1.130000000000000000e+02,8.364853899999999953e-01
1.140000000000000000e+02,8.348729599999999973e-01
1.150000000000000000e+02,8.332523699999999645e-01
1.160000000000000000e+02,8.316225999999999896e-01
1.170000000000000000e+02,8.299824000000000090e-01
1.180000000000000000e+02,8.283304599999999907e-01
1.190000000000000000e+02,8.266653999999999947e-01
1.200000000000000000e+02,8.249860399999999760e-01
1.210000000000000000e+02,8.232917800000000286e-01
1.220000000000000000e+02,8.215820799999999924e-01
1.230000000000000000e+02,8.198568200000000417e-01
1.240000000000000000e+02,8.181161300000000525e-01
1.250000000000000000e+02,8.163599999999999746e-01
1.260000000000000000e+02,8.145886700000000147e-01
1.270000000000000000e+02,8.128017199999999498e-01
1.280000000000000000e+02,8.109988000000000197e-01
1.290000000000000000e+02,8.091791299999999687e-01
1.300000000000000000e+02,8.073417499999999691e-01
1.310000000000000000e+02,8.054855499999999946e-01
1.320000000000000000e+02,8.036094299999999579e-01
1.330000000000000000e+02,8.017122700000000046e-01
1.340000000000000000e+02,7.997933000000000403e-01
1.350000000000000000e+02,7.978516199999999836e-01
1.360000000000000000e+02,7.958868099999999446e-01
1.370000000000000000e+02,7.938984599999999725e-01
1.380000000000000000e+02,7.918863299999999716e-01
1.390000000000000000e+02,7.898501799999999573e-01
1.400000000000000000e+02,7.877898199999999740e-01
1.410000000000000000e+02,7.857049699999999470e-01
1.420000000000000000e+02,7.835952600000000157e-01
1.430000000000000000e+02,7.814604600000000234e-01
1.440000000000000000e+02,7.793002100000000487e-01
1.450000000000000000e+02,7.771144500000000122e-01
1.460000000000000000e+02,7.749030599999999769e-01
1.470000000000000000e+02,7.726664500000000046e-01
1.480000000000000000e+02,7.704051100000000041e-01
1.490000000000000000e+02,7.681198099999999584e-01
1.500000000000000000e+02,7.658116200000000262e-01
1.510000000000000000e+02,7.634816800000000514e-01
1.520000000000000000e+02,7.611313499999999843e-01
1.530000000000000000e+02,7.587621799999999528e-01
1.540000000000000000e+02,7.563756099999999760e-01
1.550000000000000000e+02,7.539734200000000053e-01
1.560000000000000000e+02,7.515571699999999966e-01
1.570000000000000000e+02,7.491285800000000439e-01
1.580000000000000000e+02,7.466895599999999744e-01
1.590000000000000000e+02,7.442419500000000410e-01
1.600000000000000000e+02,7.417876100000000417e-01
1.610000000000000000e+02,7.393285600000000235e-01
1.620000000000000000e+02,7.367065000000000419e-01
1.630000000000000000e+02,7.341469499999999648e-01
1.640000000000000000e+02,7.316226399999999908e-01
1.650000000000000000e+02,7.291220999999999952e-01
1.660000000000000000e+02,7.266395100000000440e-01
1.670000000000000000e+02,7.241717600000000532e-01
1.680000000000000000e+02,7.217171799999999582e-01
1.690000000000000000e+02,7.192752399999999824e-01
1.700000000000000000e+02,7.168457499999999483e-01
1.710000000000000000e+02,7.144290800000000496e-01
1.720000000000000000e+02,7.120256400000000152e-01
1.730000000000000000e+02,7.096361500000000211e-01
1.740000000000000000e+02,7.072612000000000343e-01
1.750000000000000000e+02,7.049014599999999797e-01
1.760000000000000000e+02,7.025574999999999459e-01
1.770000000000000000e+02,7.002300000000000191e-01
1.780000000000000000e+02,6.979194300000000073e-01
1.790000000000000000e+02,6.956264399999999570e-01
1.800000000000000000e+02,6.933515700000000281e-01
1.810000000000000000e+02,6.910953499999999972e-01
1.820000000000000000e+02,6.888584500000000110e-01
1.830000000000000000e+02,6.866415099999999549e-01
1.840000000000000000e+02,6.844451400000000074e-01
1.850000000000000000e+02,6.822698699999999450e-01
1.860000000000000000e+02,6.801165300000000524e-01
1.870000000000000000e+02,6.779857299999999531e-01
1.880000000000000000e+02,6.758782300000000243e-01
1.890000000000000000e+02,6.737946900000000294e-01
1.900000000000000000e+02,6.717359999999999998e-01
1.910000000000000000e+02,6.697029500000000191e-01
1.920000000000000000e+02,6.676964199999999572e-01
1.930000000000000000e+02,6.657175400000000520e-01
1.940000000000000000e+02,6.637672799999999595e-01
1.950000000000000000e+02,6.618468800000000263e-01
1.960000000000000000e+02,6.599576499999999513e-01
1.970000000000000000e+02,6.581010800000000049e-01
1.980000000000000000e+02,6.562785500000000161e-01
1.990000000000000000e+02,6.544919000000000153e-01
2.000000000000000000e+02,6.527429799999999727e-01
2.010000000000000000e+02,6.510336399999999690e-01
2.020000000000000000e+02,6.493662599999999729e-01
2.030000000000000000e+02,6.477431700000000347e-01
2.040000000000000000e+02,6.461670400000000258e-01
2.050000000000000000e+02,6.446407400000000454e-01
2.060000000000000000e+02,6.431675599999999715e-01
2.070000000000000000e+02,6.417508699999999733e-01
2.080000000000000000e+02,6.403944499999999485e-01
2.090000000000000000e+02,6.391023399999999910e-01
2.100000000000000000e+02,6.378788899999999762e-01
2.110000000000000000e+02,6.367285799999999885e-01
2.120000000000000000e+02,6.356561800000000151e-01
2.130000000000000000e+02,6.346664400000000539e-01
2.140000000000000000e+02,6.337639699999999543e-01
2.150000000000000000e+02,6.329528700000000008e-01
2.160000000000000000e+02,6.322366000000000374e-01
2.170000000000000000e+02,6.316171900000000505e-01
2.180000000000000000e+02,6.310949900000000223e-01
2.190000000000000000e+02,6.306677499999999714e-01
2.200000000000000000e+02,6.303305599999999842e-01
2.210000000000000000e+02,6.300754499999999814e-01
2.220000000000000000e+02,6.298918700000000204e-01
2.230000000000000000e+02,6.297671799999999820e-01
2.240000000000000000e+02,6.296881399999999518e-01
2.250000000000000000e+02,6.296418900000000374e-01
2.260000000000000000e+02,6.296173900000000545e-01
2.270000000000000000e+02,6.296058300000000330e-01
2.280000000000000000e+02,6.296009999999999662e-01
2.290000000000000000e+02,6.295992700000000442e-01
2.300000000000000000e+02,6.295988000000000140e-01
2.310000000000000000e+02,6.295986199999999977e-01
2.320000000000000000e+02,6.295986199999999977e-01
2.330000000000000000e+02,6.295986199999999977e-01
2.340000000000000000e+02,6.295986199999999977e-01
2.350000000000000000e+02,6.295986199999999977e-01
2.360000000000000000e+02,6.295986199999999977e-01
2.370000000000000000e+02,6.295986199999999977e-01
2.380000000000000000e+02,6.295986199999999977e-01
2.390000000000000000e+02,6.295986199999999977e-01
2.400000000000000000e+02,6.295986199999999977e-01
2.410000000000000000e+02,6.295986199999999977e-01
2.420000000000000000e+02,6.295986199999999977e-01
2.430000000000000000e+02,6.295986199999999977e-01
2.440000000000000000e+02,6.295986199999999977e-01
2.450000000000000000e+02,6.295986199999999977e-01
2.460000000000000000e+02,6.295986199999999977e-01
2.470000000000000000e+02,6.295986199999999977e-01
2.480000000000000000e+02,6.295986199999999977e-01
2.490000000000000000e+02,6.295986199999999977e-01
2.500000000000000000e+02,6.295986199999999977e-01
2.510000000000000000e+02,6.295986199999999977e-01
2.520000000000000000e+02,6.295986199999999977e-01
2.530000000000000000e+02,6.295986199999999977e-01
2.540000000000000000e+02,6.295986199999999977e-01
2.550000000000000000e+02,6.295986199999999977e-01
2.560000000000000000e+02,6.295986199999999977e-01
2.570000000000000000e+02,6.295986199999999977e-01
2.580000000000000000e+02,6.295986199999999977e-01
2.590000000000000000e+02,6.295986199999999977e-01
2.600000000000000000e+02,6.295986199999999977e-01
2.610000000000000000e+02,6.295986199999999977e-01
2.620000000000000000e+02,6.295986199999999977e-01
2.630000000000000000e+02,6.295986199999999977e-01
2.640000000000000000e+02,6.295986199999999977e-01
2.650000000000000000e+02,6.295986199999999977e-01
2.660000000000000000e+02,6.295986199999999977e-01
2.670000000000000000e+02,6.295986199999999977e-01
2.680000000000000000e+02,6.295986199999999977e-01
2.690000000000000000e+02,6.295986199999999977e-01
2.700000000000000000e+02,6.295986199999999977e-01
2.710000000000000000e+02,6.295986199999999977e-01
2.720000000000000000e+02,6.295986199999999977e-01
2.730000000000000000e+02,6.295986199999999977e-01
2.740000000000000000e+02,6.295986199999999977e-01
2.750000000000000000e+02,6.295986199999999977e-01
2.760000000000000000e+02,6.295986199999999977e-01
2.770000000000000000e+02,6.295986199999999977e-01
2.780000000000000000e+02,6.295986199999999977e-01
2.790000000000000000e+02,6.295986199999999977e-01
2.800000000000000000e+02,6.295986199999999977e-01
2.810000000000000000e+02,6.295986199999999977e-01
2.820000000000000000e+02,6.295986199999999977e-01
2.830000000000000000e+02,6.295986199999999977e-01
2.840000000000000000e+02,6.295986199999999977e-01
2.850000000000000000e+02,6.295986199999999977e-01
2.860000000000000000e+02,6.295986199999999977e-01
2.870000000000000000e+02,6.295986199999999977e-01
2.880000000000000000e+02,6.295986199999999977e-01
2.890000000000000000e+02,6.295986199999999977e-01
2.900000000000000000e+02,6.295986199999999977e-01
2.910000000000000000e+02,6.295986199999999977e-01
2.920000000000000000e+02,6.295986199999999977e-01
2.930000000000000000e+02,6.295986199999999977e-01
2.940000000000000000e+02,6.295986199999999977e-01
2.950000000000000000e+02,6.295986199999999977e-01
2.960000000000000000e+02,6.295986199999999977e-01
2.970000000000000000e+02,6.295986199999999977e-01
2.980000000000000000e+02,6.295986199999999977e-01
2.990000000000000000e+02,6.295986199999999977e-01
3.000000000000000000e+02,6.295986199999999977e-01
3.010000000000000000e+02,6.295986199999999977e-01
3.020000000000000000e+02,6.295986199999999977e-01
3.030000000000000000e+02,6.295986199999999977e-01
3.040000000000000000e+02,6.295986199999999977e-01
3.050000000000000000e+02,6.295986199999999977e-01
3.060000000000000000e+02,6.295986199999999977e-01
3.070000000000000000e+02,6.295986199999999977e-01
3.080000000000000000e+02,6.295986199999999977e-01
3.090000000000000000e+02,6.295986199999999977e-01
3.100000000000000000e+02,6.295986199999999977e-01
3.110000000000000000e+02,6.295986199999999977e-01
3.120000000000000000e+02,6.295986199999999977e-01
3.130000000000000000e+02,6.295986199999999977e-01
3.140000000000000000e+02,6.295986199999999977e-01
3.150000000000000000e+02,6.295986199999999977e-01
3.160000000000000000e+02,6.295986199999999977e-01
3.170000000000000000e+02,6.295986199999999977e-01
3.180000000000000000e+02,6.295986199999999977e-01
3.190000000000000000e+02,6.295986199999999977e-01
3.200000000000000000e+02,6.295986199999999977e-01
3.210000000000000000e+02,6.295986199999999977e-01
3.220000000000000000e+02,6.295986199999999977e-01
3.230000000000000000e+02,6.295986199999999977e-01
3.240000000000000000e+02,6.295986199999999977e-01
3.250000000000000000e+02,6.295986199999999977e-01
3.260000000000000000e+02,6.295986199999999977e-01
3.270000000000000000e+02,6.295986199999999977e-01
3.280000000000000000e+02,6.295986199999999977e-01
3.290000000000000000e+02,6.295986199999999977e-01
3.300000000000000000e+02,6.295986199999999977e-01
3.310000000000000000e+02,6.295986199999999977e-01
3.320000000000000000e+02,6.295986199999999977e-01
3.330000000000000000e+02,6.295986199999999977e-01
3.340000000000000000e+02,6.295986199999999977e-01
3.350000000000000000e+02,6.295986199999999977e-01
3.360000000000000000e+02,6.295986199999999977e-01
3.370000000000000000e+02,6.295986199999999977e-01
3.380000000000000000e+02,6.295986199999999977e-01
3.390000000000000000e+02,6.295986199999999977e-01
3.400000000000000000e+02,6.295986199999999977e-01
3.410000000000000000e+02,6.295986199999999977e-01
3.420000000000000000e+02,6.295986199999999977e-01
3.430000000000000000e+02,6.295986199999999977e-01
3.440000000000000000e+02,6.295986199999999977e-01
3.450000000000000000e+02,6.295986199999999977e-01
3.460000000000000000e+02,6.295986199999999977e-01
3.470000000000000000e+02,6.295986199999999977e-01
3.480000000000000000e+02,6.295986199999999977e-01
3.490000000000000000e+02,6.295986199999999977e-01
3.500000000000000000e+02,6.295986199999999977e-01
3.510000000000000000e+02,6.295986199999999977e-01
3.520000000000000000e+02,6.295986199999999977e-01
3.530000000000000000e+02,6.295986199999999977e-01
3.540000000000000000e+02,6.295986199999999977e-01
3.550000000000000000e+02,6.295986199999999977e-01
3.560000000000000000e+02,6.295986199999999977e-01
3.570000000000000000e+02,6.295986199999999977e-01
3.580000000000000000e+02,6.295986199999999977e-01
3.590000000000000000e+02,6.295986199999999977e-01
3.600000000000000000e+02,6.295986199999999977e-01
3.610000000000000000e+02,6.295986199999999977e-01
3.620000000000000000e+02,6.295986199999999977e-01
3.630000000000000000e+02,6.295986199999999977e-01
3.640000000000000000e+02,6.295986199999999977e-01
3.650000000000000000e+02,6.295986199999999977e-01
3.660000000000000000e+02,6.295986199999999977e-01
3.670000000000000000e+02,6.295986199999999977e-01
3.680000000000000000e+02,6.295986199999999977e-01
3.690000000000000000e+02,6.295986199999999977e-01
3.700000000000000000e+02,6.295986199999999977e-01
3.710000000000000000e+02,6.295986199999999977e-01
3.720000000000000000e+02,6.295986199999999977e-01
3.730000000000000000e+02,6.295986199999999977e-01
3.740000000000000000e+02,6.295986199999999977e-01
3.750000000000000000e+02,6.295986199999999977e-01
3.760000000000000000e+02,6.295986199999999977e-01
3.770000000000000000e+02,6.295986199999999977e-01
3.780000000000000000e+02,6.295986199999999977e-01
3.790000000000000000e+02,6.295986199999999977e-01
3.800000000000000000e+02,6.295986199999999977e-01
3.810000000000000000e+02,6.295986199999999977e-01
3.820000000000000000e+02,6.295986199999999977e-01
3.830000000000000000e+02,6.295986199999999977e-01
3.840000000000000000e+02,6.295986199999999977e-01
3.850000000000000000e+02,6.295986199999999977e-01
3.860000000000000000e+02,6.295986199999999977e-01
3.870000000000000000e+02,6.295986199999999977e-01
3.880000000000000000e+02,6.295986199999999977e-01
3.890000000000000000e+02,6.295986199999999977e-01
3.900000000000000000e+02,6.295986199999999977e-01
3.910000000000000000e+02,6.295986199999999977e-01
3.920000000000000000e+02,6.295986199999999977e-01
3.930000000000000000e+02,6.295986199999999977e-01
3.940000000000000000e+02,6.295986199999999977e-01
3.950000000000000000e+02,6.295986199999999977e-01
3.960000000000000000e+02,6.295986199999999977e-01
3.970000000000000000e+02,6.295986199999999977e-01
3.980000000000000000e+02,6.295986199999999977e-01
3.990000000000000000e+02,6.295986199999999977e-01
