# Time [s], Temperature [C]
1.000000000000000000e+00,2.499996900000000011e+01
2.000000000000000000e+00,3.398505000000000109e+01
3.000000000000000000e+00,3.887071199999999749e+01
4.000000000000000000e+00,4.286875899999999717e+01
5.000000000000000000e+00,4.619085299999999705e+01
6.000000000000000000e+00,4.911282299999999879e+01
7.000000000000000000e+00,5.173070899999999739e+01
8.000000000000000000e+00,5.411974299999999971e+01
9.000000000000000000e+00,5.632498199999999855e+01
1.000000000000000000e+01,5.837963100000000338e+01
1.100000000000000000e+01,6.030775500000000022e+01
1.200000000000000000e+01,6.212741100000000216e+01
1.300000000000000000e+01,6.385319899999999649e+01
1.400000000000000000e+01,6.549633000000000038e+01
1.500000000000000000e+01,6.706630699999999479e+01
1.600000000000000000e+01,6.857050300000000220e+01
1.700000000000000000e+01,7.001575499999999863e+01
1.800000000000000000e+01,7.140719599999999900e+01
1.900000000000000000e+01,7.274929799999999602e+01
2.000000000000000000e+01,7.404685200000000123e+01
2.100000000000000000e+01,7.530246699999999294e+01
2.200000000000000000e+01,7.651981399999999667e+01
2.300000000000000000e+01,7.770161400000000640e+01
2.400000000000000000e+01,7.884995299999999929e+01
2.500000000000000000e+01,7.996704900000000293e+01
2.600000000000000000e+01,8.105504600000000437e+01
2.700000000000000000e+01,8.211576100000000622e+01
2.800000000000000000e+01,8.315031399999999451e+01
2.900000000000000000e+01,8.416067499999999768e+01
3.000000000000000000e+01,8.514780399999999361e+01
3.100000000000000000e+01,8.611297600000000330e+01
3.200000000000000000e+01,8.705737299999999834e+01
3.300000000000000000e+01,8.798184200000000033e+01
3.400000000000000000e+01,8.888755000000000450e+01
3.500000000000000000e+01,8.977527600000000518e+01
3.600000000000000000e+01,9.064559199999999350e+01
3.700000000000000000e+01,9.149954999999999927e+01
3.800000000000000000e+01,9.233795899999999790e+01
3.900000000000000000e+01,9.316117099999999596e+01
4.000000000000000000e+01,9.396987199999999518e+01
4.100000000000000000e+01,9.476474000000000331e+01
4.200000000000000000e+01,9.554587600000000691e+01
4.300000000000000000e+01,9.631452899999999318e+01
4.400000000000000000e+01,9.707061000000000206e+01
4.500000000000000000e+01,9.781465900000000602e+01
4.600000000000000000e+01,9.854710400000000448e+01
4.700000000000000000e+01,9.926845600000000047e+01
4.800000000000000000e+01,9.997896599999999978e+01
4.900000000000000000e+01,1.006790500000000037e+02
5.000000000000000000e+01,1.013694600000000037e+02
5.100000000000000000e+01,1.020502100000000070e+02
5.200000000000000000e+01,1.027213799999999964e+02
5.300000000000000000e+01,1.033834200000000010e+02
5.400000000000000000e+01,1.040367700000000042e+02
5.500000000000000000e+01,1.046816900000000032e+02
5.600000000000000000e+01,1.053182800000000015e+02
5.700000000000000000e+01,1.059468899999999962e+02
5.800000000000000000e+01,1.065678099999999944e+02
5.900000000000000000e+01,1.071813300000000027e+02
6.000000000000000000e+01,1.077873900000000020e+02
6.100000000000000000e+01,1.083864399999999932e+02
6.200000000000000000e+01,1.089783999999999935e+02
6.300000000000000000e+01,1.095641300000000058e+02
6.400000000000000000e+01,1.101429200000000037e+02
6.500000000000000000e+01,1.107159699999999987e+02
6.600000000000000000e+01,1.112823800000000034e+02
6.700000000000000000e+01,1.118432499999999976e+02
6.800000000000000000e+01,1.123980099999999993e+02
6.900000000000000000e+01,1.129475599999999957e+02
7.000000000000000000e+01,1.134916400000000039e+02
7.100000000000000000e+01,1.140300500000000028e+02
7.200000000000000000e+01,1.145636599999999987e+02
7.300000000000000000e+01,1.150919600000000003e+02
7.400000000000000000e+01,1.156155200000000036e+02
7.500000000000000000e+01,1.161345100000000059e+02
7.600000000000000000e+01,1.166485600000000034e+02
7.700000000000000000e+01,1.171581599999999952e+02
7.800000000000000000e+01,1.176636000000000024e+02
7.900000000000000000e+01,1.181645199999999960e+02
8.000000000000000000e+01,1.186613300000000066e+02
8.100000000000000000e+01,1.191542900000000031e+02
8.200000000000000000e+01,1.196433300000000060e+02
8.300000000000000000e+01,1.201283800000000070e+02
8.400000000000000000e+01,1.206097699999999975e+02
8.500000000000000000e+01,1.210872899999999959e+02
8.600000000000000000e+01,1.215615999999999985e+02
8.700000000000000000e+01,1.220320600000000013e+02
8.800000000000000000e+01,1.224992699999999957e+02
8.900000000000000000e+01,1.229633400000000023e+02
9.000000000000000000e+01,1.234240099999999956e+02
9.100000000000000000e+01,1.238814299999999946e+02
9.200000000000000000e+01,1.243359200000000016e+02
9.300000000000000000e+01,1.247874999999999943e+02
9.400000000000000000e+01,1.252361899999999935e+02
9.500000000000000000e+01,1.256821400000000040e+02
9.600000000000000000e+01,1.261251800000000003e+02
9.700000000000000000e+01,1.265649599999999992e+02
9.800000000000000000e+01,1.270025899999999979e+02
9.900000000000000000e+01,1.274376400000000018e+02
1.000000000000000000e+02,1.278701899999999938e+02
1.010000000000000000e+02,1.283003099999999961e+02
1.020000000000000000e+02,1.287278599999999926e+02
1.030000000000000000e+02,1.291529999999999916e+02
1.040000000000000000e+02,1.295759600000000091e+02
1.050000000000000000e+02,1.299963500000000067e+02
1.060000000000000000e+02,1.304147000000000105e+02
1.070000000000000000e+02,1.308309600000000046e+02
1.080000000000000000e+02,1.312450599999999952e+02
1.090000000000000000e+02,1.316568599999999947e+02
1.100000000000000000e+02,1.320668799999999976e+02
1.110000000000000000e+02,1.324747800000000097e+02
1.120000000000000000e+02,1.328807700000000125e+02
1.130000000000000000e+02,1.332849300000000028e+02
1.140000000000000000e+02,1.336871800000000121e+02
1.150000000000000000e+02,1.340875900000000058e+02
1.160000000000000000e+02,1.344862099999999998e+02
1.170000000000000000e+02,1.348830299999999909e+02
1.180000000000000000e+02,1.352781099999999981e+02
1.190000000000000000e+02,1.356715499999999963e+02
1.200000000000000000e+02,1.360632799999999918e+02
1.210000000000000000e+02,1.364533500000000004e+02
1.220000000000000000e+02,1.368418599999999969e+02
1.230000000000000000e+02,1.372287800000000004e+02
1.240000000000000000e+02,1.376141100000000108e+02
1.250000000000000000e+02,1.379979899999999873e+02
1.260000000000000000e+02,1.383802599999999927e+02
1.270000000000000000e+02,1.387610200000000020e+02
1.280000000000000000e+02,1.391406100000000094e+02
1.290000000000000000e+02,1.395185099999999920e+02
1.300000000000000000e+02,1.398950499999999977e+02
1.310000000000000000e+02,1.402702600000000075e+02
1.320000000000000000e+02,1.406440900000000056e+02
1.330000000000000000e+02,1.410165599999999984e+02
1.340000000000000000e+02,1.413877899999999954e+02
1.350000000000000000e+02,1.417576799999999935e+02
1.360000000000000000e+02,1.421262999999999863e+02
1.370000000000000000e+02,1.424936999999999898e+02
1.380000000000000000e+02,1.428598299999999881e+02
1.390000000000000000e+02,1.432247500000000002e+02
1.400000000000000000e+02,1.435885299999999916e+02
1.410000000000000000e+02,1.439510799999999904e+02
1.420000000000000000e+02,1.443124699999999905e+02
1.430000000000000000e+02,1.446729400000000112e+02
1.440000000000000000e+02,1.450321199999999919e+02
1.450000000000000000e+02,1.453902300000000025e+02
1.460000000000000000e+02,1.457472400000000050e+02
1.470000000000000000e+02,1.461031000000000120e+02
1.480000000000000000e+02,1.464578700000000140e+02
1.490000000000000000e+02,1.468116300000000081e+02
1.500000000000000000e+02,1.471645200000000102e+02
1.510000000000000000e+02,1.475161999999999978e+02
1.520000000000000000e+02,1.478668800000000090e+02
1.530000000000000000e+02,1.482166599999999903e+02
1.540000000000000000e+02,1.485652200000000107e+02
1.550000000000000000e+02,1.489128699999999981e+02
1.560000000000000000e+02,1.492594899999999996e+02
1.570000000000000000e+02,1.496050999999999931e+02
1.580000000000000000e+02,1.499498100000000136e+02
1.590000000000000000e+02,1.502935500000000104e+02
1.600000000000000000e+02,1.506363399999999899e+02
1.610000000000000000e+02,1.509786799999999971e+02
1.620000000000000000e+02,1.513197199999999896e+02
1.630000000000000000e+02,1.516598999999999933e+02
1.640000000000000000e+02,1.519992399999999861e+02
1.650000000000000000e+02,1.523375900000000058e+02
1.660000000000000000e+02,1.526750000000000114e+02
1.670000000000000000e+02,1.530115800000000092e+02
1.680000000000000000e+02,1.533474099999999964e+02
1.690000000000000000e+02,1.536821600000000103e+02
1.700000000000000000e+02,1.540163900000000012e+02
1.710000000000000000e+02,1.543495599999999968e+02
1.720000000000000000e+02,1.546818399999999940e+02
1.730000000000000000e+02,1.550133500000000026e+02
1.740000000000000000e+02,1.553441899999999976e+02
1.750000000000000000e+02,1.556740399999999909e+02
1.760000000000000000e+02,1.560031400000000019e+02
1.770000000000000000e+02,1.563313899999999990e+02
1.780000000000000000e+02,1.566590600000000109e+02
1.790000000000000000e+02,1.569858099999999865e+02
1.800000000000000000e+02,1.573118599999999958e+02
1.810000000000000000e+02,1.576368899999999940e+02
1.820000000000000000e+02,1.579611999999999910e+02
1.830000000000000000e+02,1.582847399999999993e+02
1.840000000000000000e+02,1.586077400000000068e+02
1.850000000000000000e+02,1.589298400000000129e+02
1.860000000000000000e+02,1.592512499999999989e+02
1.870000000000000000e+02,1.595716899999999896e+02
1.880000000000000000e+02,1.598914800000000014e+02
1.890000000000000000e+02,1.602104600000000119e+02
1.900000000000000000e+02,1.605286900000000117e+02
1.910000000000000000e+02,1.608466300000000047e+02
1.920000000000000000e+02,1.611635100000000023e+02
1.930000000000000000e+02,1.614796299999999860e+02
1.940000000000000000e+02,1.617950099999999907e+02
1.950000000000000000e+02,1.621096200000000067e+02
1.960000000000000000e+02,1.624236600000000124e+02
1.970000000000000000e+02,1.627370799999999917e+02
1.980000000000000000e+02,1.630497100000000046e+02
1.990000000000000000e+02,1.633615900000000067e+02
2.000000000000000000e+02,1.636727600000000109e+02
2.010000000000000000e+02,1.639833199999999920e+02
2.020000000000000000e+02,1.642931800000000067e+02
2.030000000000000000e+02,1.646022900000000107e+02
2.040000000000000000e+02,1.649107199999999978e+02
2.050000000000000000e+02,1.652186100000000124e+02
2.060000000000000000e+02,1.655256300000000067e+02
2.070000000000000000e+02,1.658321500000000128e+02
2.080000000000000000e+02,1.661377999999999986e+02
2.090000000000000000e+02,1.664427799999999991e+02
2.100000000000000000e+02,1.667472199999999987e+02
2.110000000000000000e+02,1.670508399999999938e+02
2.120000000000000000e+02,1.673540600000000040e+02
2.130000000000000000e+02,1.676564199999999971e+02
2.140000000000000000e+02,1.679581900000000019e+02
2.150000000000000000e+02,1.682591600000000085e+02
2.160000000000000000e+02,1.685594900000000109e+02
2.170000000000000000e+02,1.688593600000000094e+02
2.180000000000000000e+02,1.691586200000000133e+02
2.190000000000000000e+02,1.694569700000000125e+02
2.200000000000000000e+02,1.697547000000000139e+02
2.210000000000000000e+02,1.700518600000000049e+02
2.220000000000000000e+02,1.703486900000000048e+02
2.230000000000000000e+02,1.706444999999999936e+02
2.240000000000000000e+02,1.709397099999999909e+02
2.250000000000000000e+02,1.712342399999999998e+02
2.260000000000000000e+02,1.715284900000000050e+02
2.270000000000000000e+02,1.718218500000000120e+02
2.280000000000000000e+02,1.721145300000000020e+02
2.290000000000000000e+02,1.724065099999999973e+02
2.300000000000000000e+02,1.726982600000000048e+02
2.310000000000000000e+02,1.729890900000000045e+02
2.320000000000000000e+02,1.732793000000000063e+02
2.330000000000000000e+02,1.735688600000000008e+02
2.340000000000000000e+02,1.738578799999999944e+02
2.350000000000000000e+02,1.741462899999999934e+02
2.360000000000000000e+02,1.744341100000000040e+02
2.370000000000000000e+02,1.747213900000000137e+02
2.380000000000000000e+02,1.750078000000000031e+02
2.390000000000000000e+02,1.752938399999999888e+02
2.400000000000000000e+02,1.755791499999999985e+02
2.410000000000000000e+02,1.758639799999999980e+02
2.420000000000000000e+02,1.761480099999999993e+02
2.430000000000000000e+02,1.764315899999999999e+02
2.440000000000000000e+02,1.767145399999999995e+02
2.450000000000000000e+02,1.769967800000000011e+02
2.460000000000000000e+02,1.772784699999999987e+02
2.470000000000000000e+02,1.775596600000000080e+02
2.480000000000000000e+02,1.778402900000000102e+02
2.490000000000000000e+02,1.781201000000000079e+02
2.500000000000000000e+02,1.783995500000000050e+02
2.510000000000000000e+02,1.786784199999999885e+02
2.520000000000000000e+02,1.789564499999999896e+02
2.530000000000000000e+02,1.792339299999999866e+02
2.540000000000000000e+02,1.795110500000000116e+02
2.550000000000000000e+02,1.797874899999999911e+02
2.560000000000000000e+02,1.800631600000000105e+02
2.570000000000000000e+02,1.803383300000000133e+02
2.580000000000000000e+02,1.806132000000000062e+02
2.590000000000000000e+02,1.808871300000000133e+02
2.600000000000000000e+02,1.811605500000000006e+02
2.610000000000000000e+02,1.814336900000000128e+02
2.620000000000000000e+02,1.817059299999999951e+02
2.630000000000000000e+02,1.819776200000000017e+02
2.640000000000000000e+02,1.822487600000000043e+02
2.650000000000000000e+02,1.825194099999999935e+02
2.660000000000000000e+02,1.827894400000000132e+02
2.670000000000000000e+02,1.830587800000000129e+02
2.680000000000000000e+02,1.833278200000000027e+02
2.690000000000000000e+02,1.835961000000000070e+02
2.700000000000000000e+02,1.838637699999999882e+02
2.710000000000000000e+02,1.841309200000000033e+02
2.720000000000000000e+02,1.843975700000000018e+02
2.730000000000000000e+02,1.846635599999999897e+02
2.740000000000000000e+02,1.849290799999999990e+02
2.750000000000000000e+02,1.851940299999999979e+02
2.760000000000000000e+02,1.854583599999999990e+02
2.770000000000000000e+02,1.857221999999999866e+02
2.780000000000000000e+02,1.859855000000000018e+02
2.790000000000000000e+02,1.862480799999999874e+02
2.800000000000000000e+02,1.865102100000000007e+02
2.810000000000000000e+02,1.867718700000000069e+02
2.820000000000000000e+02,1.870328100000000120e+02
2.830000000000000000e+02,1.872932700000000068e+02
2.840000000000000000e+02,1.875530699999999911e+02
2.850000000000000000e+02,1.878124699999999905e+02
2.860000000000000000e+02,1.880712599999999952e+02
2.870000000000000000e+02,1.883293899999999894e+02
2.880000000000000000e+02,1.885872799999999927e+02
2.890000000000000000e+02,1.888442799999999977e+02
2.900000000000000000e+02,1.891008500000000083e+02
2.910000000000000000e+02,1.893571000000000026e+02
2.920000000000000000e+02,1.896124700000000018e+02
2.930000000000000000e+02,1.898674200000000098e+02
2.940000000000000000e+02,1.901220199999999920e+02
2.950000000000000000e+02,1.903757500000000107e+02
2.960000000000000000e+02,1.906289999999999907e+02
2.970000000000000000e+02,1.908819699999999955e+02
2.980000000000000000e+02,1.911341199999999958e+02
2.990000000000000000e+02,1.913857600000000048e+02
3.000000000000000000e+02,1.916371200000000101e+02
3.010000000000000000e+02,1.918876500000000078e+02
3.020000000000000000e+02,1.921377699999999891e+02
3.030000000000000000e+02,1.923873600000000010e+02
3.040000000000000000e+02,1.926363399999999899e+02
3.050000000000000000e+02,1.928848700000000065e+02
3.060000000000000000e+02,1.931328699999999969e+02
3.070000000000000000e+02,1.933802599999999927e+02
3.080000000000000000e+02,1.936271999999999878e+02
3.090000000000000000e+02,1.938736000000000104e+02
3.100000000000000000e+02,1.941195099999999911e+02
3.110000000000000000e+02,1.943648799999999994e+02
3.120000000000000000e+02,1.946096300000000099e+02
3.130000000000000000e+02,1.948539399999999944e+02
3.140000000000000000e+02,1.950977200000000096e+02
3.150000000000000000e+02,1.953409000000000049e+02
3.160000000000000000e+02,1.955836199999999963e+02
3.170000000000000000e+02,1.958258099999999899e+02
3.180000000000000000e+02,1.960675200000000018e+02
3.190000000000000000e+02,1.963085199999999872e+02
3.200000000000000000e+02,1.965492199999999912e+02
3.210000000000000000e+02,1.967893500000000131e+02
3.220000000000000000e+02,1.970289600000000121e+02
3.230000000000000000e+02,1.972681000000000040e+02
3.240000000000000000e+02,1.975065199999999948e+02
3.250000000000000000e+02,1.977446099999999944e+02
3.260000000000000000e+02,1.979821900000000028e+02
3.270000000000000000e+02,1.982190600000000131e+02
3.280000000000000000e+02,1.984557200000000137e+02
3.290000000000000000e+02,1.986916200000000003e+02
3.300000000000000000e+02,1.989271699999999896e+02
3.310000000000000000e+02,1.991621900000000096e+02
3.320000000000000000e+02,1.993965300000000127e+02
3.330000000000000000e+02,1.996306299999999965e+02
3.340000000000000000e+02,1.998639499999999884e+02
3.350000000000000000e+02,2.000968599999999924e+02
3.360000000000000000e+02,2.003294799999999896e+02
3.370000000000000000e+02,2.005612600000000043e+02
3.380000000000000000e+02,2.007929200000000094e+02
3.390000000000000000e+02,2.010237600000000100e+02
3.400000000000000000e+02,2.012541500000000099e+02
3.410000000000000000e+02,2.014841299999999933e+02
3.420000000000000000e+02,2.017135199999999884e+02
3.430000000000000000e+02,2.019425699999999892e+02
3.440000000000000000e+02,2.021709299999999985e+02
3.450000000000000000e+02,2.023989100000000008e+02
3.460000000000000000e+02,2.026263600000000054e+02
3.470000000000000000e+02,2.028532999999999902e+02
3.480000000000000000e+02,2.030798800000000028e+02
3.490000000000000000e+02,2.033057399999999859e+02
3.500000000000000000e+02,2.035312800000000095e+02
3.510000000000000000e+02,2.037562299999999880e+02
3.520000000000000000e+02,2.039807299999999941e+02
3.530000000000000000e+02,2.042047900000000027e+02
3.540000000000000000e+02,2.044282499999999914e+02
3.550000000000000000e+02,2.046512800000000141e+02
3.560000000000000000e+02,2.048738299999999981e+02
3.570000000000000000e+02,2.050959000000000003e+02
3.580000000000000000e+02,2.053174600000000112e+02
3.590000000000000000e+02,2.055386399999999867e+02
3.600000000000000000e+02,2.057591099999999926e+02
3.610000000000000000e+02,2.059793400000000076e+02
3.620000000000000000e+02,2.061988699999999994e+02
3.630000000000000000e+02,2.064180900000000065e+02
3.640000000000000000e+02,2.066367999999999938e+02
3.650000000000000000e+02,2.068550600000000088e+02
3.660000000000000000e+02,2.070727799999999945e+02
3.670000000000000000e+02,2.072898700000000076e+02
3.680000000000000000e+02,2.075068400000000111e+02
3.690000000000000000e+02,2.077230199999999911e+02
3.700000000000000000e+02,2.079389799999999866e+02
3.710000000000000000e+02,2.081542200000000093e+02
3.720000000000000000e+02,2.083692499999999939e+02
3.730000000000000000e+02,2.085835299999999961e+02
3.740000000000000000e+02,2.087974100000000135e+02
3.750000000000000000e+02,2.090109999999999957e+02
3.760000000000000000e+02,2.092238199999999892e+02
3.770000000000000000e+02,2.094364899999999921e+02
3.780000000000000000e+02,2.096484199999999873e+02
3.790000000000000000e+02,2.098601400000000012e+02
3.800000000000000000e+02,2.100712000000000046e+02
3.810000000000000000e+02,2.102820100000000139e+02
3.820000000000000000e+02,2.104920799999999872e+02
3.830000000000000000e+02,2.107018099999999947e+02
3.840000000000000000e+02,2.109110599999999920e+02
3.850000000000000000e+02,2.111198699999999917e+02
3.860000000000000000e+02,2.113282600000000002e+02
3.870000000000000000e+02,2.115361800000000017e+02
3.880000000000000000e+02,2.117435900000000117e+02
3.890000000000000000e+02,2.119505499999999927e+02
3.900000000000000000e+02,2.121571500000000015e+02
3.910000000000000000e+02,2.123630699999999933e+02
3.920000000000000000e+02,2.125688299999999913e+02
3.930000000000000000e+02,2.127738500000000101e+02
3.940000000000000000e+02,2.129785200000000032e+02
3.950000000000000000e+02,2.131827499999999986e+02
3.960000000000000000e+02,2.133865700000000061e+02
3.970000000000000000e+02,2.135898300000000063e+02
3.980000000000000000e+02,2.137927699999999902e+02
3.990000000000000000e+02,2.139951800000000048e+02
