# Time [s], Temperature [C]
1.000000000000000000e+00,2.499997099999999861e+01
2.000000000000000000e+00,3.350186200000000269e+01
3.000000000000000000e+00,3.829293799999999948e+01
4.000000000000000000e+00,4.220927799999999763e+01
5.000000000000000000e+00,4.548237199999999802e+01
6.000000000000000000e+00,4.836508200000000102e+01
7.000000000000000000e+00,5.095270899999999870e+01
8.000000000000000000e+00,5.331689500000000237e+01
9.000000000000000000e+00,5.550144600000000139e+01
1.000000000000000000e+01,5.753865799999999808e+01
1.100000000000000000e+01,5.945155299999999698e+01
1.200000000000000000e+01,6.125827400000000011e+01
1.300000000000000000e+01,6.297252699999999948e+01
1.400000000000000000e+01,6.460573599999999317e+01
1.500000000000000000e+01,6.616672499999999957e+01
1.600000000000000000e+01,6.766301699999999641e+01
1.700000000000000000e+01,6.910102100000000291e+01
1.800000000000000000e+01,7.048593900000000190e+01
1.900000000000000000e+01,7.182263899999999524e+01
2.000000000000000000e+01,7.311480699999999899e+01
2.100000000000000000e+01,7.436608900000000233e+01
2.200000000000000000e+01,7.557933800000000701e+01
2.300000000000000000e+01,7.675743099999999686e+01
2.400000000000000000e+01,7.790251200000000154e+01
2.500000000000000000e+01,7.901680000000000348e+01
2.600000000000000000e+01,8.010234099999999557e+01
2.700000000000000000e+01,8.116068300000000590e+01
2.800000000000000000e+01,8.219337500000000318e+01
2.900000000000000000e+01,8.320194200000000251e+01
3.000000000000000000e+01,8.418772099999999625e+01
3.100000000000000000e+01,8.515151199999999676e+01
3.200000000000000000e+01,8.609498600000000579e+01
3.300000000000000000e+01,8.701850899999999456e+01
3.400000000000000000e+01,8.792353799999999353e+01
3.500000000000000000e+01,8.881070699999999363e+01
3.600000000000000000e+01,8.968080100000000243e+01
3.700000000000000000e+01,9.053447699999999543e+01
3.800000000000000000e+01,9.137277199999999766e+01
3.900000000000000000e+01,9.219599900000000048e+01
4.000000000000000000e+01,9.300476799999999855e+01
4.100000000000000000e+01,9.379967499999999347e+01
4.200000000000000000e+01,9.458131400000000610e+01
4.300000000000000000e+01,9.535015900000000499e+01
4.400000000000000000e+01,9.610678099999999802e+01
4.500000000000000000e+01,9.685160100000000227e+01
4.600000000000000000e+01,9.758484599999999887e+01
4.700000000000000000e+01,9.830712900000000332e+01
4.800000000000000000e+01,9.901880599999999788e+01
4.900000000000000000e+01,9.972001600000000110e+01
5.000000000000000000e+01,1.004113499999999988e+02
5.100000000000000000e+01,1.010929699999999940e+02
5.200000000000000000e+01,1.017654899999999998e+02
5.300000000000000000e+01,1.024289200000000051e+02
5.400000000000000000e+01,1.030835299999999961e+02
5.500000000000000000e+01,1.037298499999999990e+02
5.600000000000000000e+01,1.043679000000000059e+02
5.700000000000000000e+01,1.049979299999999967e+02
5.800000000000000000e+01,1.056204100000000068e+02
5.900000000000000000e+01,1.062353399999999937e+02
6.000000000000000000e+01,1.068430400000000020e+02
6.100000000000000000e+01,1.074436599999999942e+02
6.200000000000000000e+01,1.080375599999999991e+02
6.300000000000000000e+01,1.086247800000000012e+02
6.400000000000000000e+01,1.092055600000000055e+02
6.500000000000000000e+01,1.097801699999999983e+02
6.600000000000000000e+01,1.103486599999999953e+02
6.700000000000000000e+01,1.109112099999999970e+02
6.800000000000000000e+01,1.114681099999999958e+02
6.900000000000000000e+01,1.120193600000000060e+02
7.000000000000000000e+01,1.125653099999999966e+02
7.100000000000000000e+01,1.131059599999999961e+02
7.200000000000000000e+01,1.136414000000000044e+02
7.300000000000000000e+01,1.141718199999999968e+02
7.400000000000000000e+01,1.146975500000000068e+02
7.500000000000000000e+01,1.152184299999999979e+02
7.600000000000000000e+01,1.157347100000000069e+02
7.700000000000000000e+01,1.162466100000000040e+02
7.800000000000000000e+01,1.167540300000000002e+02
7.900000000000000000e+01,1.172571700000000021e+02
8.000000000000000000e+01,1.177563300000000055e+02
8.100000000000000000e+01,1.182514699999999976e+02
8.200000000000000000e+01,1.187424699999999973e+02
8.300000000000000000e+01,1.192298799999999943e+02
8.400000000000000000e+01,1.197134999999999962e+02
8.500000000000000000e+01,1.201935200000000066e+02
8.600000000000000000e+01,1.206698200000000014e+02
8.700000000000000000e+01,1.211427800000000019e+02
8.800000000000000000e+01,1.216123999999999938e+02
8.900000000000000000e+01,1.220788299999999964e+02
9.000000000000000000e+01,1.225419799999999952e+02
9.100000000000000000e+01,1.230017500000000013e+02
9.200000000000000000e+01,1.234587199999999996e+02
9.300000000000000000e+01,1.239127000000000010e+02
9.400000000000000000e+01,1.243637800000000055e+02
9.500000000000000000e+01,1.248120399999999961e+02
9.600000000000000000e+01,1.252573500000000024e+02
9.700000000000000000e+01,1.257000599999999935e+02
9.800000000000000000e+01,1.261401199999999960e+02
9.900000000000000000e+01,1.265776599999999945e+02
1.000000000000000000e+02,1.270125900000000030e+02
1.010000000000000000e+02,1.274451099999999997e+02
1.020000000000000000e+02,1.278752099999999956e+02
1.030000000000000000e+02,1.283028300000000002e+02
1.040000000000000000e+02,1.287282700000000091e+02
1.050000000000000000e+02,1.291514300000000048e+02
1.060000000000000000e+02,1.295723600000000033e+02
1.070000000000000000e+02,1.299911500000000046e+02
1.080000000000000000e+02,1.304077800000000025e+02
1.090000000000000000e+02,1.308223399999999970e+02
1.100000000000000000e+02,1.312349499999999978e+02
1.110000000000000000e+02,1.316455400000000111e+02
1.120000000000000000e+02,1.320540799999999990e+02
1.130000000000000000e+02,1.324608499999999935e+02
1.140000000000000000e+02,1.328656900000000007e+02
1.150000000000000000e+02,1.332685899999999890e+02
1.160000000000000000e+02,1.336698199999999872e+02
1.170000000000000000e+02,1.340692699999999888e+02
1.180000000000000000e+02,1.344669499999999971e+02
1.190000000000000000e+02,1.348629799999999932e+02
1.200000000000000000e+02,1.352573199999999929e+02
1.210000000000000000e+02,1.356500399999999900e+02
1.220000000000000000e+02,1.360412000000000035e+02
1.230000000000000000e+02,1.364307300000000112e+02
1.240000000000000000e+02,1.368187100000000100e+02
1.250000000000000000e+02,1.372052500000000066e+02
1.260000000000000000e+02,1.375902600000000007e+02
1.270000000000000000e+02,1.379737900000000081e+02
1.280000000000000000e+02,1.383559999999999945e+02
1.290000000000000000e+02,1.387366800000000069e+02
1.300000000000000000e+02,1.391159700000000043e+02
1.310000000000000000e+02,1.394939300000000060e+02
1.320000000000000000e+02,1.398704999999999927e+02
1.330000000000000000e+02,1.402457400000000121e+02
1.340000000000000000e+02,1.406197200000000009e+02
1.350000000000000000e+02,1.409923900000000003e+02
1.360000000000000000e+02,1.413637699999999882e+02
1.370000000000000000e+02,1.417339499999999930e+02
1.380000000000000000e+02,1.421028599999999926e+02
1.390000000000000000e+02,1.424705500000000029e+02
1.400000000000000000e+02,1.428371099999999956e+02
1.410000000000000000e+02,1.432025800000000118e+02
1.420000000000000000e+02,1.435667699999999911e+02
1.430000000000000000e+02,1.439298900000000003e+02
1.440000000000000000e+02,1.442918099999999981e+02
1.450000000000000000e+02,1.446526800000000037e+02
1.460000000000000000e+02,1.450123900000000106e+02
1.470000000000000000e+02,1.453710000000000093e+02
1.480000000000000000e+02,1.457285200000000032e+02
1.490000000000000000e+02,1.460850399999999922e+02
1.500000000000000000e+02,1.464404600000000016e+02
1.510000000000000000e+02,1.467948499999999967e+02
1.520000000000000000e+02,1.471482499999999902e+02
1.530000000000000000e+02,1.475006300000000010e+02
1.540000000000000000e+02,1.478519699999999943e+02
1.550000000000000000e+02,1.482024999999999864e+02
1.560000000000000000e+02,1.485520500000000084e+02
1.570000000000000000e+02,1.489005899999999940e+02
1.580000000000000000e+02,1.492481799999999907e+02
1.590000000000000000e+02,1.495947899999999890e+02
1.600000000000000000e+02,1.499404299999999921e+02
1.610000000000000000e+02,1.502851900000000001e+02
1.620000000000000000e+02,1.506289999999999907e+02
1.630000000000000000e+02,1.509719499999999925e+02
1.640000000000000000e+02,1.513139799999999866e+02
1.650000000000000000e+02,1.516550900000000013e+02
1.660000000000000000e+02,1.519954099999999926e+02
1.670000000000000000e+02,1.523348400000000140e+02
1.680000000000000000e+02,1.526733600000000024e+02
1.690000000000000000e+02,1.530109899999999925e+02
1.700000000000000000e+02,1.533479299999999910e+02
1.710000000000000000e+02,1.536839099999999974e+02
1.720000000000000000e+02,1.540190599999999961e+02
1.730000000000000000e+02,1.543534099999999967e+02
1.740000000000000000e+02,1.546868900000000053e+02
1.750000000000000000e+02,1.550196400000000096e+02
1.760000000000000000e+02,1.553516400000000033e+02
1.770000000000000000e+02,1.556826800000000048e+02
1.780000000000000000e+02,1.560129100000000051e+02
1.790000000000000000e+02,1.563423899999999946e+02
1.800000000000000000e+02,1.566710699999999861e+02
1.810000000000000000e+02,1.569989600000000110e+02
1.820000000000000000e+02,1.573262799999999970e+02
1.830000000000000000e+02,1.576526200000000131e+02
1.840000000000000000e+02,1.579781999999999869e+02
1.850000000000000000e+02,1.583030699999999911e+02
1.860000000000000000e+02,1.586271399999999971e+02
1.870000000000000000e+02,1.589504399999999862e+02
1.880000000000000000e+02,1.592731499999999869e+02
1.890000000000000000e+02,1.595950899999999990e+02
1.900000000000000000e+02,1.599162300000000130e+02
1.910000000000000000e+02,1.602366499999999974e+02
1.920000000000000000e+02,1.605562700000000120e+02
1.930000000000000000e+02,1.608752100000000098e+02
1.940000000000000000e+02,1.611934100000000001e+02
1.950000000000000000e+02,1.615109699999999862e+02
1.960000000000000000e+02,1.618277600000000120e+02
1.970000000000000000e+02,1.621438599999999894e+02
1.980000000000000000e+02,1.624592600000000004e+02
1.990000000000000000e+02,1.627738300000000038e+02
2.000000000000000000e+02,1.630877999999999872e+02
2.010000000000000000e+02,1.634011099999999885e+02
2.020000000000000000e+02,1.637136399999999981e+02
2.030000000000000000e+02,1.640256300000000067e+02
2.040000000000000000e+02,1.643368199999999888e+02
2.050000000000000000e+02,1.646472899999999981e+02
2.060000000000000000e+02,1.649572100000000034e+02
2.070000000000000000e+02,1.652663400000000138e+02
2.080000000000000000e+02,1.655748100000000136e+02
2.090000000000000000e+02,1.658826099999999997e+02
2.100000000000000000e+02,1.661897400000000005e+02
2.110000000000000000e+02,1.664962600000000066e+02
2.120000000000000000e+02,1.668021500000000117e+02
2.130000000000000000e+02,1.671072399999999902e+02
2.140000000000000000e+02,1.674116400000000056e+02
2.150000000000000000e+02,1.677154700000000105e+02
2.160000000000000000e+02,1.680186899999999923e+02
2.170000000000000000e+02,1.683212399999999889e+02
2.180000000000000000e+02,1.686231099999999969e+02
2.190000000000000000e+02,1.689242900000000134e+02
2.200000000000000000e+02,1.692248099999999909e+02
2.210000000000000000e+02,1.695249000000000024e+02
2.220000000000000000e+02,1.698241399999999999e+02
2.230000000000000000e+02,1.701227299999999900e+02
2.240000000000000000e+02,1.704207199999999887e+02
2.250000000000000000e+02,1.707181899999999928e+02
2.260000000000000000e+02,1.710148900000000083e+02
2.270000000000000000e+02,1.713110000000000070e+02
2.280000000000000000e+02,1.716064100000000110e+02
2.290000000000000000e+02,1.719012500000000045e+02
2.300000000000000000e+02,1.721955100000000130e+02
2.310000000000000000e+02,1.724890900000000045e+02
2.320000000000000000e+02,1.727820100000000139e+02
2.330000000000000000e+02,1.730744200000000035e+02
2.340000000000000000e+02,1.733661500000000046e+02
2.350000000000000000e+02,1.736572099999999921e+02
2.360000000000000000e+02,1.739477699999999913e+02
2.370000000000000000e+02,1.742375900000000115e+02
2.380000000000000000e+02,1.745268700000000024e+02
2.390000000000000000e+02,1.748155199999999923e+02
2.400000000000000000e+02,1.751035799999999938e+02
2.410000000000000000e+02,1.753909600000000069e+02
2.420000000000000000e+02,1.756777600000000064e+02
2.430000000000000000e+02,1.759639899999999955e+02
2.440000000000000000e+02,1.762495900000000120e+02
2.450000000000000000e+02,1.765345800000000054e+02
2.460000000000000000e+02,1.768190600000000074e+02
2.470000000000000000e+02,1.771028900000000021e+02
2.480000000000000000e+02,1.773860599999999863e+02
2.490000000000000000e+02,1.776686200000000042e+02
2.500000000000000000e+02,1.779506800000000055e+02
2.510000000000000000e+02,1.782321900000000028e+02
2.520000000000000000e+02,1.785129399999999862e+02
2.530000000000000000e+02,1.787931199999999876e+02
2.540000000000000000e+02,1.790729100000000074e+02
2.550000000000000000e+02,1.793519000000000005e+02
2.560000000000000000e+02,1.796302900000000022e+02
2.570000000000000000e+02,1.799081400000000031e+02
2.580000000000000000e+02,1.801855199999999968e+02
2.590000000000000000e+02,1.804621699999999862e+02
2.600000000000000000e+02,1.807383000000000095e+02
2.610000000000000000e+02,1.810138200000000097e+02
2.620000000000000000e+02,1.812888000000000090e+02
2.630000000000000000e+02,1.815631999999999948e+02
2.640000000000000000e+02,1.818370099999999923e+02
2.650000000000000000e+02,1.821102099999999950e+02
2.660000000000000000e+02,1.823828900000000033e+02
2.670000000000000000e+02,1.826550000000000011e+02
2.680000000000000000e+02,1.829264100000000042e+02
2.690000000000000000e+02,1.831974199999999939e+02
2.700000000000000000e+02,1.834677599999999984e+02
2.710000000000000000e+02,1.837375299999999925e+02
2.720000000000000000e+02,1.840067699999999888e+02
2.730000000000000000e+02,1.842754099999999937e+02
2.740000000000000000e+02,1.845434899999999914e+02
2.750000000000000000e+02,1.848110399999999913e+02
2.760000000000000000e+02,1.850779599999999903e+02
2.770000000000000000e+02,1.853443499999999915e+02
2.780000000000000000e+02,1.856101500000000044e+02
2.790000000000000000e+02,1.858754299999999944e+02
2.800000000000000000e+02,1.861401500000000055e+02
2.810000000000000000e+02,1.864042800000000000e+02
2.820000000000000000e+02,1.866678899999999999e+02
2.830000000000000000e+02,1.869309100000000115e+02
2.840000000000000000e+02,1.871933400000000063e+02
2.850000000000000000e+02,1.874553099999999972e+02
2.860000000000000000e+02,1.877166599999999903e+02
2.870000000000000000e+02,1.879773999999999887e+02
2.880000000000000000e+02,1.882376899999999864e+02
2.890000000000000000e+02,1.884974100000000021e+02
2.900000000000000000e+02,1.887565199999999948e+02
2.910000000000000000e+02,1.890150600000000054e+02
2.920000000000000000e+02,1.892731799999999964e+02
2.930000000000000000e+02,1.895306699999999864e+02
2.940000000000000000e+02,1.897875999999999976e+02
2.950000000000000000e+02,1.900440700000000049e+02
2.960000000000000000e+02,1.902999100000000112e+02
2.970000000000000000e+02,1.905552399999999977e+02
2.980000000000000000e+02,1.908100100000000054e+02
2.990000000000000000e+02,1.910642499999999870e+02
3.000000000000000000e+02,1.913179599999999994e+02
3.010000000000000000e+02,1.915711200000000076e+02
3.020000000000000000e+02,1.918237499999999898e+02
3.030000000000000000e+02,1.920758099999999899e+02
3.040000000000000000e+02,1.923273499999999956e+02
3.050000000000000000e+02,1.925783800000000099e+02
3.060000000000000000e+02,1.928288400000000138e+02
3.070000000000000000e+02,1.930787799999999947e+02
3.080000000000000000e+02,1.933282600000000002e+02
3.090000000000000000e+02,1.935770699999999920e+02
3.100000000000000000e+02,1.938254399999999862e+02
3.110000000000000000e+02,1.940733199999999954e+02
3.120000000000000000e+02,1.943205900000000099e+02
3.130000000000000000e+02,1.945673099999999920e+02
3.140000000000000000e+02,1.948136000000000081e+02
3.150000000000000000e+02,1.950592800000000011e+02
3.160000000000000000e+02,1.953044600000000059e+02
3.170000000000000000e+02,1.955490599999999972e+02
3.180000000000000000e+02,1.957932099999999878e+02
3.190000000000000000e+02,1.960367999999999995e+02
3.200000000000000000e+02,1.962798600000000135e+02
3.210000000000000000e+02,1.965224599999999953e+02
3.220000000000000000e+02,1.967645100000000014e+02
3.230000000000000000e+02,1.970060100000000034e+02
3.240000000000000000e+02,1.972470899999999858e+02
3.250000000000000000e+02,1.974875000000000114e+02
3.260000000000000000e+02,1.977275500000000079e+02
3.270000000000000000e+02,1.979670299999999941e+02
3.280000000000000000e+02,1.982058900000000108e+02
3.290000000000000000e+02,1.984444300000000112e+02
3.300000000000000000e+02,1.986822799999999916e+02
3.310000000000000000e+02,1.989196300000000122e+02
3.320000000000000000e+02,1.991566300000000069e+02
3.330000000000000000e+02,1.993929400000000101e+02
3.340000000000000000e+02,1.996288800000000094e+02
3.350000000000000000e+02,1.998642299999999921e+02
3.360000000000000000e+02,2.000990400000000022e+02
3.370000000000000000e+02,2.003334499999999991e+02
3.380000000000000000e+02,2.005672900000000141e+02
3.390000000000000000e+02,2.008007000000000062e+02
3.400000000000000000e+02,2.010334799999999973e+02
3.410000000000000000e+02,2.012658099999999877e+02
3.420000000000000000e+02,2.014977299999999900e+02
3.430000000000000000e+02,2.017290000000000134e+02
3.440000000000000000e+02,2.019598499999999888e+02
3.450000000000000000e+02,2.021902000000000044e+02
3.460000000000000000e+02,2.024200400000000002e+02
3.470000000000000000e+02,2.026493800000000078e+02
3.480000000000000000e+02,2.028781999999999925e+02
3.490000000000000000e+02,2.031065499999999986e+02
3.500000000000000000e+02,2.033344600000000071e+02
3.510000000000000000e+02,2.035618399999999895e+02
3.520000000000000000e+02,2.037886799999999994e+02
3.530000000000000000e+02,2.040151199999999960e+02
3.540000000000000000e+02,2.042409499999999980e+02
3.550000000000000000e+02,2.044663400000000024e+02
3.560000000000000000e+02,2.046913000000000125e+02
3.570000000000000000e+02,2.049157099999999900e+02
3.580000000000000000e+02,2.051396499999999889e+02
3.590000000000000000e+02,2.053631399999999871e+02
3.600000000000000000e+02,2.055861099999999908e+02
3.610000000000000000e+02,2.058085000000000093e+02
3.620000000000000000e+02,2.060305500000000052e+02
3.630000000000000000e+02,2.062520600000000002e+02
3.640000000000000000e+02,2.064730800000000102e+02
3.650000000000000000e+02,2.066936599999999942e+02
3.660000000000000000e+02,2.069136699999999962e+02
3.670000000000000000e+02,2.071332999999999913e+02
3.680000000000000000e+02,2.073523999999999887e+02
3.690000000000000000e+02,2.075711100000000044e+02
3.700000000000000000e+02,2.077891799999999876e+02
3.710000000000000000e+02,2.080069300000000112e+02
3.720000000000000000e+02,2.082241500000000087e+02
3.730000000000000000e+02,2.084408099999999990e+02
3.740000000000000000e+02,2.086571700000000078e+02
3.750000000000000000e+02,2.088728900000000124e+02
3.760000000000000000e+02,2.090882599999999911e+02
3.770000000000000000e+02,2.093030899999999974e+02
3.780000000000000000e+02,2.095175199999999904e+02
3.790000000000000000e+02,2.097313499999999920e+02
3.800000000000000000e+02,2.099448099999999897e+02
3.810000000000000000e+02,2.101577800000000025e+02
3.820000000000000000e+02,2.103702399999999955e+02
3.830000000000000000e+02,2.105823800000000006e+02
3.840000000000000000e+02,2.107939100000000110e+02
3.850000000000000000e+02,2.110050999999999988e+02
3.860000000000000000e+02,2.112157300000000077e+02
3.870000000000000000e+02,2.114259800000000098e+02
3.880000000000000000e+02,2.116356399999999951e+02
3.890000000000000000e+02,2.118449400000000082e+02
3.900000000000000000e+02,2.120537600000000111e+02
3.910000000000000000e+02,2.122621000000000038e+02
3.920000000000000000e+02,2.124700200000000052e+02
3.930000000000000000e+02,2.126774699999999996e+02
3.940000000000000000e+02,2.128844100000000026e+02
3.950000000000000000e+02,2.130910000000000082e+02
3.960000000000000000e+02,2.132970899999999972e+02
3.970000000000000000e+02,2.135027200000000107e+02
3.980000000000000000e+02,2.137079300000000046e+02
3.990000000000000000e+02,2.139126599999999883e+02
