# Time [s], Convective Heat Transfer Coefficient [W/m2K]
1.000000000000000000e+00,0.000000000000000000e+00
2.000000000000000000e+00,0.000000000000000000e+00
3.000000000000000000e+00,0.000000000000000000e+00
4.000000000000000000e+00,0.000000000000000000e+00
5.000000000000000000e+00,0.000000000000000000e+00
6.000000000000000000e+00,2.412849599104084641e-02
7.000000000000000000e+00,4.055970506183135399e-02
8.000000000000000000e+00,6.234380213143796146e-02
9.000000000000000000e+00,8.977029687088833310e-02
1.000000000000000000e+01,1.242341907885544244e-01
1.100000000000000000e+01,1.651225029166009106e-01
1.200000000000000000e+01,2.123855880457009293e-01
1.300000000000000000e+01,2.654300722702482851e-01
1.400000000000000000e+01,3.237309949255861574e-01
1.500000000000000000e+01,3.866127895338129505e-01
1.600000000000000000e+01,4.534012174543824991e-01
1.700000000000000000e+01,5.235061437161698805e-01
1.800000000000000000e+01,5.963167682053979179e-01
1.900000000000000000e+01,6.713263949284865584e-01
2.000000000000000000e+01,7.480670586452404791e-01
2.100000000000000000e+01,8.261325418109506380e-01
2.200000000000000000e+01,9.051680597330548084e-01
2.300000000000000000e+01,9.848685389849315408e-01
2.400000000000000000e+01,1.064972118361076969e+00
2.500000000000000000e+01,1.145258550695892774e+00
2.600000000000000000e+01,1.225533519584744102e+00
2.700000000000000000e+01,1.305638951404229919e+00
2.800000000000000000e+01,1.385435727422257735e+00
2.900000000000000000e+01,1.464814050178808280e+00
3.000000000000000000e+01,1.543676691985545801e+00
3.100000000000000000e+01,1.621946016708665006e+00
3.200000000000000000e+01,1.699554941852907453e+00
3.300000000000000000e+01,1.776449142795661240e+00
3.400000000000000000e+01,1.852587245823046347e+00
3.500000000000000000e+01,1.927934985795716205e+00
3.600000000000000000e+01,2.002461127665688512e+00
3.700000000000000000e+01,2.076148405867758839e+00
3.800000000000000000e+01,2.148981455905087046e+00
3.900000000000000000e+01,2.220947332166976373e+00
4.000000000000000000e+01,2.292041126139871654e+00
4.100000000000000000e+01,2.362258854613573433e+00
4.200000000000000000e+01,2.431599152685139043e+00
4.300000000000000000e+01,2.500065527455779701e+00
4.400000000000000000e+01,2.567661841880457985e+00
4.500000000000000000e+01,2.634392143651754559e+00
4.600000000000000000e+01,2.700265844490879363e+00
4.700000000000000000e+01,2.765293652521056078e+00
4.800000000000000000e+01,2.829481497493314901e+00
4.900000000000000000e+01,2.892839464853858900e+00
5.000000000000000000e+01,2.955379272835870985e+00
5.100000000000000000e+01,3.017112091291238141e+00
5.200000000000000000e+01,3.078050704443398455e+00
5.300000000000000000e+01,3.138207625059553862e+00
5.400000000000000000e+01,3.197594542590989519e+00
5.500000000000000000e+01,3.256222780765060776e+00
5.600000000000000000e+01,3.314105161039029301e+00
5.700000000000000000e+01,3.371255334006818316e+00
5.800000000000000000e+01,3.427685251475537154e+00
5.900000000000000000e+01,3.483407658044590960e+00
6.000000000000000000e+01,3.538433641445485556e+00
6.100000000000000000e+01,3.592775706096217547e+00
6.200000000000000000e+01,3.646447496792195597e+00
6.300000000000000000e+01,3.699457926749097236e+00
6.400000000000000000e+01,3.751821254187289512e+00
6.500000000000000000e+01,3.803548378350524839e+00
6.600000000000000000e+01,3.854648649808639416e+00
6.700000000000000000e+01,3.905134323268074859e+00
6.800000000000000000e+01,3.955015288560031372e+00
6.900000000000000000e+01,4.004302388304560978e+00
7.000000000000000000e+01,4.053006058298028513e+00
7.100000000000000000e+01,4.101136900181154843e+00
7.200000000000000000e+01,4.148703253203406049e+00
7.300000000000000000e+01,4.195714611659874471e+00
7.400000000000000000e+01,4.242180368808497803e+00
7.500000000000000000e+01,4.288109232329151865e+00
7.600000000000000000e+01,4.333509025935847525e+00
7.700000000000000000e+01,4.378389752704300086e+00
7.800000000000000000e+01,4.422759170845727006e+00
7.900000000000000000e+01,4.466624464376767634e+00
8.000000000000000000e+01,4.509993146503252781e+00
8.100000000000000000e+01,4.552873240825369372e+00
8.200000000000000000e+01,4.595272002268655953e+00
8.300000000000000000e+01,4.637195103876446289e+00
8.400000000000000000e+01,4.678650883395919280e+00
8.500000000000000000e+01,4.719645898200306000e+00
8.600000000000000000e+01,4.760185894300720477e+00
8.700000000000000000e+01,4.800277287766437695e+00
8.800000000000000000e+01,4.839925602714079567e+00
8.900000000000000000e+01,4.879137158185593570e+00
9.000000000000000000e+01,4.917917256281405969e+00
9.100000000000000000e+01,4.956271922367107230e+00
9.200000000000000000e+01,4.994206670982332064e+00
9.300000000000000000e+01,5.031726492366694892e+00
9.400000000000000000e+01,5.068836796945316081e+00
9.500000000000000000e+01,5.105542572059727391e+00
9.600000000000000000e+01,5.141848628918544328e+00
9.700000000000000000e+01,5.177760178361553223e+00
9.800000000000000000e+01,5.213281938511058478e+00
9.900000000000000000e+01,5.248418844353347268e+00
1.000000000000000000e+02,5.283175275421037043e+00
1.010000000000000000e+02,5.317556165172775628e+00
1.020000000000000000e+02,5.351566717844530530e+00
1.030000000000000000e+02,5.385210451823611244e+00
1.040000000000000000e+02,5.418492211587746077e+00
1.050000000000000000e+02,5.451416627846474405e+00
1.060000000000000000e+02,5.483987622584395538e+00
1.070000000000000000e+02,5.516209679876826755e+00
1.080000000000000000e+02,5.548087469691190599e+00
1.090000000000000000e+02,5.579624896153079661e+00
1.100000000000000000e+02,5.610826254580063122e+00
1.110000000000000000e+02,5.641696172131450915e+00
1.120000000000000000e+02,5.672238861469030446e+00
1.130000000000000000e+02,5.702458610118219084e+00
1.140000000000000000e+02,5.732360844668280997e+00
1.150000000000000000e+02,5.761948969175988644e+00
1.160000000000000000e+02,5.791226422035998134e+00
1.170000000000000000e+02,5.820197917613277205e+00
1.180000000000000000e+02,5.848867364352209108e+00
1.190000000000000000e+02,5.877239089914359838e+00
1.200000000000000000e+02,5.905317451908010717e+00
1.210000000000000000e+02,5.933106470862232307e+00
1.220000000000000000e+02,5.960610439070493705e+00
1.230000000000000000e+02,5.987833516637274478e+00
1.240000000000000000e+02,6.014779446543673913e+00
1.250000000000000000e+02,6.041452535552028102e+00
1.260000000000000000e+02,6.067856739725947968e+00
1.270000000000000000e+02,6.093997066936367446e+00
1.280000000000000000e+02,6.119875938547091998e+00
1.290000000000000000e+02,6.145498288254095165e+00
1.300000000000000000e+02,6.170867462486175015e+00
1.310000000000000000e+02,6.195987145676224550e+00
1.320000000000000000e+02,6.220861195850483583e+00
1.330000000000000000e+02,6.245493248172049761e+00
1.340000000000000000e+02,6.269886634889395793e+00
1.350000000000000000e+02,6.294045018037407679e+00
1.360000000000000000e+02,6.317971673598190563e+00
1.370000000000000000e+02,6.341670088671716776e+00
1.380000000000000000e+02,6.365143520791429310e+00
1.390000000000000000e+02,6.388394748712972415e+00
1.400000000000000000e+02,6.411426972902735777e+00
1.410000000000000000e+02,6.434242924404030006e+00
1.420000000000000000e+02,6.456845976827526812e+00
1.430000000000000000e+02,6.479238339944935809e+00
1.440000000000000000e+02,6.501423260144243876e+00
1.450000000000000000e+02,6.523402785104870816e+00
1.460000000000000000e+02,6.545179990267211423e+00
1.470000000000000000e+02,6.566757316518454957e+00
1.480000000000000000e+02,6.588136861034577407e+00
1.490000000000000000e+02,6.609321192557421121e+00
1.500000000000000000e+02,6.630313070440732481e+00
1.510000000000000000e+02,6.651114380647435986e+00
1.520000000000000000e+02,6.671727741115382138e+00
1.530000000000000000e+02,6.692155172728231349e+00
1.540000000000000000e+02,6.712399157003396510e+00
1.550000000000000000e+02,6.732461073076740021e+00
1.560000000000000000e+02,6.752343541252932901e+00
1.570000000000000000e+02,6.772048600239180871e+00
1.580000000000000000e+02,6.791577724350913670e+00
1.590000000000000000e+02,6.810933606259951034e+00
1.600000000000000000e+02,6.830117864574370756e+00
1.610000000000000000e+02,6.849132321857744010e+00
1.620000000000000000e+02,6.867978502888356651e+00
1.630000000000000000e+02,6.886658136646119033e+00
1.640000000000000000e+02,6.905172660009511354e+00
1.650000000000000000e+02,6.923523958352923557e+00
1.660000000000000000e+02,6.941713868115791719e+00
1.670000000000000000e+02,6.959742970029837217e+00
1.680000000000000000e+02,6.977613266312360452e+00
1.690000000000000000e+02,6.995326709316332270e+00
1.700000000000000000e+02,7.012883775012318743e+00
1.710000000000000000e+02,7.030286105132244501e+00
1.720000000000000000e+02,7.047535300132497404e+00
1.730000000000000000e+02,7.064631747719221089e+00
1.740000000000000000e+02,7.081577453202955397e+00
1.750000000000000000e+02,7.098373910249579311e+00
1.760000000000000000e+02,7.115021419514639511e+00
1.770000000000000000e+02,7.131521648297864502e+00
1.780000000000000000e+02,7.147875308027540342e+00
1.790000000000000000e+02,7.164084000801181240e+00
1.800000000000000000e+02,7.180148837125409855e+00
1.810000000000000000e+02,7.196070447061815756e+00
1.820000000000000000e+02,7.211850116212272788e+00
1.830000000000000000e+02,7.227489099261298122e+00
1.840000000000000000e+02,7.242987728280763982e+00
1.850000000000000000e+02,7.258347209982656700e+00
1.860000000000000000e+02,7.273568501030750255e+00
1.870000000000000000e+02,7.288652313392826265e+00
1.880000000000000000e+02,7.303599558356884458e+00
1.890000000000000000e+02,7.318410905422096491e+00
1.900000000000000000e+02,7.333087875682731571e+00
1.910000000000000000e+02,7.347630223096793145e+00
1.920000000000000000e+02,7.362039209022001707e+00
1.930000000000000000e+02,7.376315206264918878e+00
1.940000000000000000e+02,7.390458787895853199e+00
1.950000000000000000e+02,7.404471150453606931e+00
1.960000000000000000e+02,7.418352613324024070e+00
1.970000000000000000e+02,7.432103906720040953e+00
1.980000000000000000e+02,7.445725319525357655e+00
1.990000000000000000e+02,7.459217969682272020e+00
2.000000000000000000e+02,7.472582112238990604e+00
2.010000000000000000e+02,7.485817990369796782e+00
2.020000000000000000e+02,7.498926668202611445e+00
2.030000000000000000e+02,7.511908149565567960e+00
2.040000000000000000e+02,7.524763670403292970e+00
2.050000000000000000e+02,7.537493411415673528e+00
2.060000000000000000e+02,7.550097953373712478e+00
2.070000000000000000e+02,7.562577451757810820e+00
2.080000000000000000e+02,7.574932867806074555e+00
2.090000000000000000e+02,7.587164532005497009e+00
2.100000000000000000e+02,7.599272965118920808e+00
2.110000000000000000e+02,7.611258471049103136e+00
2.120000000000000000e+02,7.623121341696553088e+00
2.130000000000000000e+02,7.634862660413594071e+00
2.140000000000000000e+02,7.646482287872732542e+00
2.150000000000000000e+02,7.657980876708857743e+00
2.160000000000000000e+02,7.669358864566089728e+00
2.170000000000000000e+02,7.680617072640340659e+00
2.180000000000000000e+02,7.691754919420473513e+00
2.190000000000000000e+02,7.702773992180583562e+00
2.200000000000000000e+02,7.713674278108470617e+00
2.210000000000000000e+02,7.724456345042838734e+00
2.220000000000000000e+02,7.735120746449452689e+00
2.230000000000000000e+02,7.745667826576549508e+00
2.240000000000000000e+02,7.756098307112473833e+00
2.250000000000000000e+02,7.766412699971597000e+00
2.260000000000000000e+02,7.776611116597017315e+00
2.270000000000000000e+02,7.786694817727293660e+00
2.280000000000000000e+02,7.796664465529802079e+00
2.290000000000000000e+02,7.806519939328910418e+00
2.300000000000000000e+02,7.816262453141183286e+00
2.310000000000000000e+02,7.825892436676496366e+00
2.320000000000000000e+02,7.835410689139346907e+00
2.330000000000000000e+02,7.844817804207607992e+00
2.340000000000000000e+02,7.854114931667049326e+00
2.350000000000000000e+02,7.863302256440764637e+00
2.360000000000000000e+02,7.872380898792322945e+00
2.370000000000000000e+02,7.881351772948240964e+00
2.380000000000000000e+02,7.890215589636732751e+00
2.390000000000000000e+02,7.898973046132410580e+00
2.400000000000000000e+02,7.907625388143295631e+00
2.410000000000000000e+02,7.916173843611520766e+00
2.420000000000000000e+02,7.924618318334874623e+00
2.430000000000000000e+02,7.932960944321664876e+00
2.440000000000000000e+02,7.941202529757645401e+00
2.450000000000000000e+02,7.949344054972977247e+00
2.460000000000000000e+02,7.957386485979379920e+00
2.470000000000000000e+02,7.965331328305675029e+00
2.480000000000000000e+02,7.973179517036076192e+00
2.490000000000000000e+02,7.980932525338832129e+00
2.500000000000000000e+02,7.988591625764721371e+00
2.510000000000000000e+02,7.996157892431576819e+00
2.520000000000000000e+02,8.003633116821333715e+00
2.530000000000000000e+02,8.011018342136708270e+00
2.540000000000000000e+02,8.018314962882595154e+00
2.550000000000000000e+02,8.025524903643812991e+00
2.560000000000000000e+02,8.032648981835746937e+00
2.570000000000000000e+02,8.039689453223074267e+00
2.580000000000000000e+02,8.046647468535251591e+00
2.590000000000000000e+02,8.053524707655920878e+00
2.600000000000000000e+02,8.060322834819244164e+00
2.610000000000000000e+02,8.067043499027775511e+00
2.620000000000000000e+02,8.073688154873874367e+00
2.630000000000000000e+02,8.080259140138318585e+00
2.640000000000000000e+02,8.086757699894866036e+00
2.650000000000000000e+02,8.093185782747033485e+00
2.660000000000000000e+02,8.099544786427388843e+00
2.670000000000000000e+02,8.105836809497146689e+00
2.680000000000000000e+02,8.112063934621307482e+00
2.690000000000000000e+02,8.118227696137783056e+00
2.700000000000000000e+02,8.124330325924535856e+00
2.710000000000000000e+02,8.130373331722331898e+00
2.720000000000000000e+02,8.136358917372193744e+00
2.730000000000000000e+02,8.142289271660194672e+00
2.740000000000000000e+02,8.148165863436927836e+00
2.750000000000000000e+02,8.153990503398421907e+00
2.760000000000000000e+02,8.159765341835846897e+00
2.770000000000000000e+02,8.165492690887605320e+00
2.780000000000000000e+02,8.171173971700635974e+00
2.790000000000000000e+02,8.176811471625164529e+00
2.800000000000000000e+02,8.182407114533704728e+00
2.810000000000000000e+02,8.187962638103646995e+00
2.820000000000000000e+02,8.193480641462455694e+00
2.830000000000000000e+02,8.198962315791987976e+00
2.840000000000000000e+02,8.204410236375132115e+00
2.850000000000000000e+02,8.209826443115579409e+00
2.860000000000000000e+02,8.215212444225365118e+00
2.870000000000000000e+02,8.220570432382496406e+00
2.880000000000000000e+02,8.225902242397884478e+00
2.890000000000000000e+02,8.231210217522653139e+00
2.900000000000000000e+02,8.236496170958993446e+00
2.910000000000000000e+02,8.241761561687363624e+00
2.920000000000000000e+02,8.247008701595339275e+00
2.930000000000000000e+02,8.252239546858678665e+00
2.940000000000000000e+02,8.257456043621981934e+00
2.950000000000000000e+02,8.262660299580758760e+00
2.960000000000000000e+02,8.267853555529617537e+00
2.970000000000000000e+02,8.273038585292919578e+00
2.980000000000000000e+02,8.278216440601607218e+00
2.990000000000000000e+02,8.283389703377176616e+00
3.000000000000000000e+02,8.288559579521571408e+00
3.010000000000000000e+02,8.293728290019238614e+00
3.020000000000000000e+02,8.298897534898486583e+00
3.030000000000000000e+02,8.304069345243057398e+00
3.040000000000000000e+02,8.309245402929647639e+00
3.050000000000000000e+02,8.314427550773375586e+00
3.060000000000000000e+02,8.319617284121365586e+00
3.070000000000000000e+02,8.324816428624309594e+00
3.080000000000000000e+02,8.330027812931984244e+00
3.090000000000000000e+02,8.335251892565217702e+00
3.100000000000000000e+02,8.340490803368744821e+00
3.110000000000000000e+02,8.345746166063845450e+00
3.120000000000000000e+02,8.351019928669625614e+00
3.130000000000000000e+02,8.356314196708966691e+00
3.140000000000000000e+02,8.361630227534142534e+00
3.150000000000000000e+02,8.366970107753992636e+00
3.160000000000000000e+02,8.372334910844351441e+00
3.170000000000000000e+02,8.377727372085482571e+00
3.180000000000000000e+02,8.383148546357272579e+00
3.190000000000000000e+02,8.388600480492737432e+00
3.200000000000000000e+02,8.394084213088223834e+00
3.210000000000000000e+02,8.399602269712444169e+00
3.220000000000000000e+02,8.405156167520962285e+00
3.230000000000000000e+02,8.410747580067052809e+00
3.240000000000000000e+02,8.416378336107676716e+00
3.250000000000000000e+02,8.422050253354054661e+00
3.260000000000000000e+02,8.427764973541524540e+00
3.270000000000000000e+02,8.433523963429154335e+00
3.280000000000000000e+02,8.439329995045337540e+00
3.290000000000000000e+02,8.445184017975092772e+00
3.300000000000000000e+02,8.451088285879013284e+00
3.310000000000000000e+02,8.457044874149216795e+00
3.320000000000000000e+02,8.463055190557133400e+00
3.330000000000000000e+02,8.469121122178506766e+00
3.340000000000000000e+02,8.475244868760809069e+00
3.350000000000000000e+02,8.481428289240071194e+00
3.360000000000000000e+02,8.487673553879444555e+00
3.370000000000000000e+02,8.493982492660643757e+00
3.380000000000000000e+02,8.500357245510556936e+00
3.390000000000000000e+02,8.506799774359814492e+00
3.400000000000000000e+02,8.513312348676944197e+00
3.410000000000000000e+02,8.519896736415123684e+00
3.420000000000000000e+02,8.526555978657302859e+00
3.430000000000000000e+02,8.533292289363348715e+00
3.440000000000000000e+02,8.540107703384935078e+00
3.450000000000000000e+02,8.547004077461576088e+00
3.460000000000000000e+02,8.553984851057263583e+00
3.470000000000000000e+02,8.561051998252628081e+00
3.480000000000000000e+02,8.568208590452931261e+00
3.490000000000000000e+02,8.575457035661470329e+00
3.500000000000000000e+02,8.582800195807354982e+00
3.510000000000000000e+02,8.590240747695499834e+00
3.520000000000000000e+02,8.597781025564716018e+00
3.530000000000000000e+02,8.605425078429833619e+00
3.540000000000000000e+02,8.613175971596445990e+00
3.550000000000000000e+02,8.621035952041346206e+00
3.560000000000000000e+02,8.629009284944615388e+00
3.570000000000000000e+02,8.637099252702258312e+00
3.580000000000000000e+02,8.645308789485497414e+00
3.590000000000000000e+02,8.653641734146175324e+00
3.600000000000000000e+02,8.662102508439744497e+00
3.610000000000000000e+02,8.670693774451114777e+00
3.620000000000000000e+02,8.679420646394472527e+00
3.630000000000000000e+02,8.688287097969906725e+00
3.640000000000000000e+02,8.697297674674334900e+00
3.650000000000000000e+02,8.706457023063432388e+00
3.660000000000000000e+02,8.715768963385665202e+00
3.670000000000000000e+02,8.725240033329150435e+00
3.680000000000000000e+02,8.734874393521844027e+00
3.690000000000000000e+02,8.744677219282491976e+00
3.700000000000000000e+02,8.754654992758919008e+00
3.710000000000000000e+02,8.764812437962664404e+00
3.720000000000000000e+02,8.775155274919965720e+00
3.730000000000000000e+02,8.785690357184227750e+00
3.740000000000000000e+02,8.796424293703356767e+00
3.750000000000000000e+02,8.807363901197309275e+00
3.760000000000000000e+02,8.818515144447234277e+00
3.770000000000000000e+02,8.829886747031677530e+00
3.780000000000000000e+02,8.841486258460214742e+00
3.790000000000000000e+02,8.853321110367634361e+00
3.800000000000000000e+02,8.865399954154248974e+00
3.810000000000000000e+02,8.877732193964696705e+00
3.820000000000000000e+02,8.890325156589923949e+00
3.830000000000000000e+02,8.903188545721443248e+00
3.840000000000000000e+02,8.916332635066352097e+00
3.850000000000000000e+02,8.929767519042023594e+00
3.860000000000000000e+02,8.943504425292122306e+00
3.870000000000000000e+02,8.957553501014757558e+00
3.880000000000000000e+02,8.971925712096767924e+00
3.890000000000000000e+02,8.986633691264659163e+00
3.900000000000000000e+02,9.001689678618774337e+00
3.910000000000000000e+02,9.017106669255083418e+00
3.920000000000000000e+02,9.032895089379962883e+00
3.930000000000000000e+02,9.049070835680916858e+00
3.940000000000000000e+02,9.065647616369066242e+00
3.950000000000000000e+02,9.082638395394686981e+00
3.960000000000000000e+02,9.100057371553765151e+00
3.970000000000000000e+02,9.117918954802906484e+00
3.980000000000000000e+02,9.136240130440077323e+00
