# Time [s], Mass [Kg]
1.000000000000000000e+00,1.000000000000000000e+00
2.000000000000000000e+00,1.000000000000000000e+00
3.000000000000000000e+00,1.000000000000000000e+00
4.000000000000000000e+00,1.000000000000000000e+00
5.000000000000000000e+00,1.000000000000000000e+00
6.000000000000000000e+00,1.000000000000000000e+00
7.000000000000000000e+00,9.999999400000000316e-01
8.000000000000000000e+00,9.999996399999999674e-01
9.000000000000000000e+00,9.999984499999999832e-01
1.000000000000000000e+01,9.999942800000000132e-01
1.100000000000000000e+01,9.999818200000000212e-01
1.200000000000000000e+01,9.999502900000000194e-01
1.300000000000000000e+01,9.998798399999999642e-01
1.400000000000000000e+01,9.997382200000000108e-01
1.500000000000000000e+01,9.994785200000000369e-01
1.600000000000000000e+01,9.990404200000000401e-01
1.700000000000000000e+01,9.983602799999999888e-01
1.800000000000000000e+01,9.973983199999999494e-01
1.900000000000000000e+01,9.961345200000000233e-01
2.000000000000000000e+01,9.945970800000000223e-01
2.100000000000000000e+01,9.929112799999999517e-01
2.200000000000000000e+01,9.911073400000000033e-01
2.300000000000000000e+01,9.893018599999999774e-01
2.400000000000000000e+01,9.876868100000000261e-01
2.500000000000000000e+01,9.862332900000000402e-01
2.600000000000000000e+01,9.850264800000000376e-01
2.700000000000000000e+01,9.840491399999999889e-01
2.800000000000000000e+01,9.831081600000000087e-01
2.900000000000000000e+01,9.820034500000000000e-01
3.000000000000000000e+01,9.807150399999999824e-01
3.100000000000000000e+01,9.792953699999999984e-01
3.200000000000000000e+01,9.777967300000000028e-01
3.300000000000000000e+01,9.762775299999999490e-01
3.400000000000000000e+01,9.747926599999999775e-01
3.500000000000000000e+01,9.733917100000000211e-01
3.600000000000000000e+01,9.721103899999999909e-01
3.700000000000000000e+01,9.709611500000000506e-01
3.800000000000000000e+01,9.699221799999999671e-01
3.900000000000000000e+01,9.689309600000000078e-01
4.000000000000000000e+01,9.679040899999999947e-01
4.100000000000000000e+01,9.667812599999999756e-01
4.200000000000000000e+01,9.655562600000000550e-01
4.300000000000000000e+01,9.642599800000000165e-01
4.400000000000000000e+01,9.629286500000000526e-01
4.500000000000000000e+01,9.615985200000000122e-01
4.600000000000000000e+01,9.603011599999999870e-01
4.700000000000000000e+01,9.590631099999999964e-01
4.800000000000000000e+01,9.579005200000000331e-01
4.900000000000000000e+01,9.568164300000000511e-01
5.000000000000000000e+01,9.557972599999999819e-01
5.100000000000000000e+01,9.548136600000000085e-01
5.200000000000000000e+01,9.538269600000000015e-01
5.300000000000000000e+01,9.528026000000000550e-01
5.400000000000000000e+01,9.517231000000000440e-01
5.500000000000000000e+01,9.505915600000000021e-01
5.600000000000000000e+01,9.494242099999999907e-01
5.700000000000000000e+01,9.482416500000000470e-01
5.800000000000000000e+01,9.470644599999999969e-01
5.900000000000000000e+01,9.459100400000000075e-01
6.000000000000000000e+01,9.447922100000000212e-01
6.100000000000000000e+01,9.437191499999999511e-01
6.200000000000000000e+01,9.426917999999999687e-01
6.300000000000000000e+01,9.417035599999999951e-01
6.400000000000000000e+01,9.407402900000000345e-01
6.500000000000000000e+01,9.397830400000000139e-01
6.600000000000000000e+01,9.388129699999999689e-01
6.700000000000000000e+01,9.378161400000000203e-01
6.800000000000000000e+01,9.367867699999999909e-01
6.900000000000000000e+01,9.357283699999999760e-01
7.000000000000000000e+01,9.346500599999999492e-01
7.100000000000000000e+01,9.335636499999999671e-01
7.200000000000000000e+01,9.324806300000000325e-01
7.300000000000000000e+01,9.314114999999999478e-01
7.400000000000000000e+01,9.303639500000000506e-01
7.500000000000000000e+01,9.293420300000000411e-01
7.600000000000000000e+01,9.283461600000000313e-01
7.700000000000000000e+01,9.273725200000000335e-01
7.800000000000000000e+01,9.264133599999999635e-01
7.900000000000000000e+01,9.254587300000000072e-01
8.000000000000000000e+01,9.244978400000000152e-01
8.100000000000000000e+01,9.235214600000000162e-01
8.200000000000000000e+01,9.225244500000000514e-01
8.300000000000000000e+01,9.215061700000000133e-01
8.400000000000000000e+01,9.204698199999999941e-01
8.500000000000000000e+01,9.194215500000000318e-01
8.600000000000000000e+01,9.183689400000000225e-01
8.700000000000000000e+01,9.173189400000000271e-01
8.800000000000000000e+01,9.162774099999999589e-01
8.900000000000000000e+01,9.152481599999999773e-01
9.000000000000000000e+01,9.142327900000000174e-01
9.100000000000000000e+01,9.132299999999999862e-01
9.200000000000000000e+01,9.122365700000000244e-01
9.300000000000000000e+01,9.112467800000000340e-01
9.400000000000000000e+01,9.102541800000000238e-01
9.500000000000000000e+01,9.092522299999999946e-01
9.600000000000000000e+01,9.082357899999999873e-01
9.700000000000000000e+01,9.072024800000000333e-01
9.800000000000000000e+01,9.061520100000000078e-01
9.900000000000000000e+01,9.050871700000000519e-01
1.000000000000000000e+02,9.040121399999999641e-01
1.010000000000000000e+02,9.029314499999999688e-01
1.020000000000000000e+02,9.018499300000000218e-01
1.030000000000000000e+02,9.007709000000000410e-01
1.040000000000000000e+02,8.996964699999999704e-01
1.050000000000000000e+02,8.986268600000000273e-01
1.060000000000000000e+02,8.975604799999999939e-01
1.070000000000000000e+02,8.964939100000000050e-01
1.080000000000000000e+02,8.954231099999999666e-01
1.090000000000000000e+02,8.943433200000000527e-01
1.100000000000000000e+02,8.932506999999999531e-01
1.110000000000000000e+02,8.921424700000000207e-01
1.120000000000000000e+02,8.910178500000000001e-01
1.130000000000000000e+02,8.898776800000000042e-01
1.140000000000000000e+02,8.887242100000000145e-01
1.150000000000000000e+02,8.875606099999999721e-01
1.160000000000000000e+02,8.863900900000000194e-01
1.170000000000000000e+02,8.852151000000000325e-01
1.180000000000000000e+02,8.840370199999999512e-01
1.190000000000000000e+02,8.828560699999999928e-01
1.200000000000000000e+02,8.816709499999999533e-01
1.210000000000000000e+02,8.804789800000000222e-01
1.220000000000000000e+02,8.792771099999999729e-01
1.230000000000000000e+02,8.780620099999999484e-01
1.240000000000000000e+02,8.768308200000000108e-01
1.250000000000000000e+02,8.755816199999999494e-01
1.260000000000000000e+02,8.743140099999999748e-01
1.270000000000000000e+02,8.730285199999999746e-01
1.280000000000000000e+02,8.717270499999999478e-01
1.290000000000000000e+02,8.704114600000000257e-01
1.300000000000000000e+02,8.690833999999999504e-01
1.310000000000000000e+02,8.677440299999999995e-01
1.320000000000000000e+02,8.663933299999999615e-01
1.330000000000000000e+02,8.650302899999999795e-01
1.340000000000000000e+02,8.636527099999999901e-01
1.350000000000000000e+02,8.622581999999999747e-01
1.360000000000000000e+02,8.608441399999999799e-01
1.370000000000000000e+02,8.594081399999999871e-01
1.380000000000000000e+02,8.579489000000000143e-01
1.390000000000000000e+02,8.564658800000000127e-01
1.400000000000000000e+02,8.549593100000000279e-01
1.410000000000000000e+02,8.534302700000000463e-01
1.420000000000000000e+02,8.518797200000000069e-01
1.430000000000000000e+02,8.503084199999999537e-01
1.440000000000000000e+02,8.487163800000000480e-01
1.450000000000000000e+02,8.471028800000000025e-01
1.460000000000000000e+02,8.454667300000000552e-01
1.470000000000000000e+02,8.438061500000000326e-01
1.480000000000000000e+02,8.421194600000000419e-01
1.490000000000000000e+02,8.404052300000000031e-01
1.500000000000000000e+02,8.386628600000000100e-01
1.510000000000000000e+02,8.368924899999999889e-01
1.520000000000000000e+02,8.350949300000000131e-01
1.530000000000000000e+02,8.332713200000000375e-01
1.540000000000000000e+02,8.314228099999999566e-01
1.550000000000000000e+02,8.295505600000000479e-01
1.560000000000000000e+02,8.276553199999999721e-01
1.570000000000000000e+02,8.257374800000000237e-01
1.580000000000000000e+02,8.237972300000000470e-01
1.590000000000000000e+02,8.218347400000000080e-01
1.600000000000000000e+02,8.198507999999999907e-01
1.610000000000000000e+02,8.178463599999999945e-01
1.620000000000000000e+02,8.158230199999999543e-01
1.630000000000000000e+02,8.137829899999999839e-01
1.640000000000000000e+02,8.117287800000000386e-01
1.650000000000000000e+02,8.096625800000000206e-01
1.660000000000000000e+02,8.075868499999999672e-01
1.670000000000000000e+02,8.055034899999999887e-01
1.680000000000000000e+02,8.034142899999999754e-01
1.690000000000000000e+02,8.013209700000000213e-01
1.700000000000000000e+02,7.992252100000000192e-01
1.710000000000000000e+02,7.971290300000000162e-01
1.720000000000000000e+02,7.950343500000000008e-01
1.730000000000000000e+02,7.929435999999999707e-01
1.740000000000000000e+02,7.908591000000000371e-01
1.750000000000000000e+02,7.887830700000000306e-01
1.760000000000000000e+02,7.867176500000000461e-01
1.770000000000000000e+02,7.846646299999999741e-01
1.780000000000000000e+02,7.826256799999999902e-01
1.790000000000000000e+02,7.806022799999999817e-01
1.800000000000000000e+02,7.785959199999999969e-01
1.810000000000000000e+02,7.766080499999999942e-01
1.820000000000000000e+02,7.746403200000000489e-01
1.830000000000000000e+02,7.726944100000000537e-01
1.840000000000000000e+02,7.707719200000000548e-01
1.850000000000000000e+02,7.688745299999999450e-01
1.860000000000000000e+02,7.670036000000000076e-01
1.870000000000000000e+02,7.651606199999999580e-01
1.880000000000000000e+02,7.633469699999999580e-01
1.890000000000000000e+02,7.615640200000000082e-01
1.900000000000000000e+02,7.598133700000000434e-01
1.910000000000000000e+02,7.580966900000000175e-01
1.920000000000000000e+02,7.564156699999999844e-01
1.930000000000000000e+02,7.547722500000000334e-01
1.940000000000000000e+02,7.531684600000000396e-01
1.950000000000000000e+02,7.516064000000000078e-01
1.960000000000000000e+02,7.500882700000000014e-01
1.970000000000000000e+02,7.486165200000000075e-01
1.980000000000000000e+02,7.471938099999999583e-01
1.990000000000000000e+02,7.458229699999999740e-01
2.000000000000000000e+02,7.445072499999999538e-01
2.010000000000000000e+02,7.432500699999999849e-01
2.020000000000000000e+02,7.420551800000000364e-01
2.030000000000000000e+02,7.409266799999999487e-01
2.040000000000000000e+02,7.398687000000000458e-01
2.050000000000000000e+02,7.388858200000000265e-01
2.060000000000000000e+02,7.379827500000000207e-01
2.070000000000000000e+02,7.371640799999999993e-01
2.080000000000000000e+02,7.364342799999999967e-01
2.090000000000000000e+02,7.357972900000000482e-01
2.100000000000000000e+02,7.352558999999999623e-01
2.110000000000000000e+02,7.348110700000000106e-01
2.120000000000000000e+02,7.344613100000000339e-01
2.130000000000000000e+02,7.342015499999999806e-01
2.140000000000000000e+02,7.340225599999999906e-01
2.150000000000000000e+02,7.339107999999999743e-01
2.160000000000000000e+02,7.338497000000000492e-01
2.170000000000000000e+02,7.338216899999999709e-01
2.180000000000000000e+02,7.338116199999999978e-01
2.190000000000000000e+02,7.338091100000000422e-01
2.200000000000000000e+02,7.338086999999999804e-01
2.210000000000000000e+02,7.338086999999999804e-01
2.220000000000000000e+02,7.338086999999999804e-01
2.230000000000000000e+02,7.338086999999999804e-01
2.240000000000000000e+02,7.338086999999999804e-01
2.250000000000000000e+02,7.338086999999999804e-01
2.260000000000000000e+02,7.338086999999999804e-01
2.270000000000000000e+02,7.338086999999999804e-01
2.280000000000000000e+02,7.338086999999999804e-01
2.290000000000000000e+02,7.338086999999999804e-01
2.300000000000000000e+02,7.338086999999999804e-01
2.310000000000000000e+02,7.338086999999999804e-01
2.320000000000000000e+02,7.338086999999999804e-01
2.330000000000000000e+02,7.338086999999999804e-01
2.340000000000000000e+02,7.338086999999999804e-01
2.350000000000000000e+02,7.338086999999999804e-01
2.360000000000000000e+02,7.338086999999999804e-01
2.370000000000000000e+02,7.338086999999999804e-01
2.380000000000000000e+02,7.338086999999999804e-01
2.390000000000000000e+02,7.338086999999999804e-01
2.400000000000000000e+02,7.338086999999999804e-01
2.410000000000000000e+02,7.338086999999999804e-01
2.420000000000000000e+02,7.338086999999999804e-01
2.430000000000000000e+02,7.338086999999999804e-01
2.440000000000000000e+02,7.338086999999999804e-01
2.450000000000000000e+02,7.338086999999999804e-01
2.460000000000000000e+02,7.338086999999999804e-01
2.470000000000000000e+02,7.338086999999999804e-01
2.480000000000000000e+02,7.338086999999999804e-01
2.490000000000000000e+02,7.338086999999999804e-01
2.500000000000000000e+02,7.338086999999999804e-01
2.510000000000000000e+02,7.338086999999999804e-01
2.520000000000000000e+02,7.338086999999999804e-01
2.530000000000000000e+02,7.338086999999999804e-01
2.540000000000000000e+02,7.338086999999999804e-01
2.550000000000000000e+02,7.338086999999999804e-01
2.560000000000000000e+02,7.338086999999999804e-01
2.570000000000000000e+02,7.338086999999999804e-01
2.580000000000000000e+02,7.338086999999999804e-01
2.590000000000000000e+02,7.338086999999999804e-01
2.600000000000000000e+02,7.338086999999999804e-01
2.610000000000000000e+02,7.338086999999999804e-01
2.620000000000000000e+02,7.338086999999999804e-01
2.630000000000000000e+02,7.338086999999999804e-01
2.640000000000000000e+02,7.338086999999999804e-01
2.650000000000000000e+02,7.338086999999999804e-01
2.660000000000000000e+02,7.338086999999999804e-01
2.670000000000000000e+02,7.338086999999999804e-01
2.680000000000000000e+02,7.338086999999999804e-01
2.690000000000000000e+02,7.338086999999999804e-01
2.700000000000000000e+02,7.338086999999999804e-01
2.710000000000000000e+02,7.338086999999999804e-01
2.720000000000000000e+02,7.338086999999999804e-01
2.730000000000000000e+02,7.338086999999999804e-01
2.740000000000000000e+02,7.338086999999999804e-01
2.750000000000000000e+02,7.338086999999999804e-01
2.760000000000000000e+02,7.338086999999999804e-01
2.770000000000000000e+02,7.338086999999999804e-01
2.780000000000000000e+02,7.338086999999999804e-01
2.790000000000000000e+02,7.338086999999999804e-01
2.800000000000000000e+02,7.338086999999999804e-01
2.810000000000000000e+02,7.338086999999999804e-01
2.820000000000000000e+02,7.338086999999999804e-01
2.830000000000000000e+02,7.338086999999999804e-01
2.840000000000000000e+02,7.338086999999999804e-01
2.850000000000000000e+02,7.338086999999999804e-01
2.860000000000000000e+02,7.338086999999999804e-01
2.870000000000000000e+02,7.338086999999999804e-01
2.880000000000000000e+02,7.338086999999999804e-01
2.890000000000000000e+02,7.338086999999999804e-01
2.900000000000000000e+02,7.338086999999999804e-01
2.910000000000000000e+02,7.338086999999999804e-01
2.920000000000000000e+02,7.338086999999999804e-01
2.930000000000000000e+02,7.338086999999999804e-01
2.940000000000000000e+02,7.338086999999999804e-01
2.950000000000000000e+02,7.338086999999999804e-01
2.960000000000000000e+02,7.338086999999999804e-01
2.970000000000000000e+02,7.338086999999999804e-01
2.980000000000000000e+02,7.338086999999999804e-01
2.990000000000000000e+02,7.338086999999999804e-01
3.000000000000000000e+02,7.338086999999999804e-01
3.010000000000000000e+02,7.338086999999999804e-01
3.020000000000000000e+02,7.338086999999999804e-01
3.030000000000000000e+02,7.338086999999999804e-01
3.040000000000000000e+02,7.338086999999999804e-01
3.050000000000000000e+02,7.338086999999999804e-01
3.060000000000000000e+02,7.338086999999999804e-01
3.070000000000000000e+02,7.338086999999999804e-01
3.080000000000000000e+02,7.338086999999999804e-01
3.090000000000000000e+02,7.338086999999999804e-01
3.100000000000000000e+02,7.338086999999999804e-01
3.110000000000000000e+02,7.338086999999999804e-01
3.120000000000000000e+02,7.338086999999999804e-01
3.130000000000000000e+02,7.338086999999999804e-01
3.140000000000000000e+02,7.338086999999999804e-01
3.150000000000000000e+02,7.338086999999999804e-01
3.160000000000000000e+02,7.338086999999999804e-01
3.170000000000000000e+02,7.338086999999999804e-01
3.180000000000000000e+02,7.338086999999999804e-01
3.190000000000000000e+02,7.338086999999999804e-01
3.200000000000000000e+02,7.338086999999999804e-01
3.210000000000000000e+02,7.338086999999999804e-01
3.220000000000000000e+02,7.338086999999999804e-01
3.230000000000000000e+02,7.338086999999999804e-01
3.240000000000000000e+02,7.338086999999999804e-01
3.250000000000000000e+02,7.338086999999999804e-01
3.260000000000000000e+02,7.338086999999999804e-01
3.270000000000000000e+02,7.338086999999999804e-01
3.280000000000000000e+02,7.338086999999999804e-01
3.290000000000000000e+02,7.338086999999999804e-01
3.300000000000000000e+02,7.338086999999999804e-01
3.310000000000000000e+02,7.338086999999999804e-01
3.320000000000000000e+02,7.338086999999999804e-01
3.330000000000000000e+02,7.338086999999999804e-01
3.340000000000000000e+02,7.338086999999999804e-01
3.350000000000000000e+02,7.338086999999999804e-01
3.360000000000000000e+02,7.338086999999999804e-01
3.370000000000000000e+02,7.338086999999999804e-01
3.380000000000000000e+02,7.338086999999999804e-01
3.390000000000000000e+02,7.338086999999999804e-01
3.400000000000000000e+02,7.338086999999999804e-01
3.410000000000000000e+02,7.338086999999999804e-01
3.420000000000000000e+02,7.338086999999999804e-01
3.430000000000000000e+02,7.338086999999999804e-01
3.440000000000000000e+02,7.338086999999999804e-01
3.450000000000000000e+02,7.338086999999999804e-01
3.460000000000000000e+02,7.338086999999999804e-01
3.470000000000000000e+02,7.338086999999999804e-01
3.480000000000000000e+02,7.338086999999999804e-01
3.490000000000000000e+02,7.338086999999999804e-01
3.500000000000000000e+02,7.338086999999999804e-01
3.510000000000000000e+02,7.338086999999999804e-01
3.520000000000000000e+02,7.338086999999999804e-01
3.530000000000000000e+02,7.338086999999999804e-01
3.540000000000000000e+02,7.338086999999999804e-01
3.550000000000000000e+02,7.338086999999999804e-01
3.560000000000000000e+02,7.338086999999999804e-01
3.570000000000000000e+02,7.338086999999999804e-01
3.580000000000000000e+02,7.338086999999999804e-01
3.590000000000000000e+02,7.338086999999999804e-01
3.600000000000000000e+02,7.338086999999999804e-01
3.610000000000000000e+02,7.338086999999999804e-01
3.620000000000000000e+02,7.338086999999999804e-01
3.630000000000000000e+02,7.338086999999999804e-01
3.640000000000000000e+02,7.338086999999999804e-01
3.650000000000000000e+02,7.338086999999999804e-01
3.660000000000000000e+02,7.338086999999999804e-01
3.670000000000000000e+02,7.338086999999999804e-01
3.680000000000000000e+02,7.338086999999999804e-01
3.690000000000000000e+02,7.338086999999999804e-01
3.700000000000000000e+02,7.338086999999999804e-01
3.710000000000000000e+02,7.338086999999999804e-01
3.720000000000000000e+02,7.338086999999999804e-01
3.730000000000000000e+02,7.338086999999999804e-01
3.740000000000000000e+02,7.338086999999999804e-01
3.750000000000000000e+02,7.338086999999999804e-01
3.760000000000000000e+02,7.338086999999999804e-01
3.770000000000000000e+02,7.338086999999999804e-01
3.780000000000000000e+02,7.338086999999999804e-01
3.790000000000000000e+02,7.338086999999999804e-01
3.800000000000000000e+02,7.338086999999999804e-01
3.810000000000000000e+02,7.338086999999999804e-01
3.820000000000000000e+02,7.338086999999999804e-01
3.830000000000000000e+02,7.338086999999999804e-01
3.840000000000000000e+02,7.338086999999999804e-01
3.850000000000000000e+02,7.338086999999999804e-01
3.860000000000000000e+02,7.338086999999999804e-01
3.870000000000000000e+02,7.338086999999999804e-01
3.880000000000000000e+02,7.338086999999999804e-01
3.890000000000000000e+02,7.338086999999999804e-01
3.900000000000000000e+02,7.338086999999999804e-01
3.910000000000000000e+02,7.338086999999999804e-01
3.920000000000000000e+02,7.338086999999999804e-01
3.930000000000000000e+02,7.338086999999999804e-01
3.940000000000000000e+02,7.338086999999999804e-01
3.950000000000000000e+02,7.338086999999999804e-01
3.960000000000000000e+02,7.338086999999999804e-01
3.970000000000000000e+02,7.338086999999999804e-01
3.980000000000000000e+02,7.338086999999999804e-01
3.990000000000000000e+02,7.338086999999999804e-01
