# Time [s], Convective Heat Transfer Coefficient [W/m2K]
1.000000000000000000e+00,0.000000000000000000e+00
2.000000000000000000e+00,0.000000000000000000e+00
3.000000000000000000e+00,0.000000000000000000e+00
4.000000000000000000e+00,0.000000000000000000e+00
5.000000000000000000e+00,2.762023300960968902e-02
6.000000000000000000e+00,4.559999999962457279e-02
7.000000000000000000e+00,7.413038420798434558e-02
8.000000000000000000e+00,1.125517535840920846e-01
9.000000000000000000e+00,1.618375684303379469e-01
1.000000000000000000e+01,2.222490496133689430e-01
1.100000000000000000e+01,2.934408153411703912e-01
1.200000000000000000e+01,3.747642448332765275e-01
1.300000000000000000e+01,4.652194550021714892e-01
1.400000000000000000e+01,5.636629033681062051e-01
1.500000000000000000e+01,6.689046668144421615e-01
1.600000000000000000e+01,7.797856107873408771e-01
1.700000000000000000e+01,8.952457229880185219e-01
1.800000000000000000e+01,1.014327240383652073e+00
1.900000000000000000e+01,1.136183408593569366e+00
2.000000000000000000e+01,1.260087527988617007e+00
2.100000000000000000e+01,1.385400964002194479e+00
2.200000000000000000e+01,1.511590519910622765e+00
2.300000000000000000e+01,1.638204343510474725e+00
2.400000000000000000e+01,1.764852572706562261e+00
2.500000000000000000e+01,1.891218216675718988e+00
2.600000000000000000e+01,2.017033732425160597e+00
2.700000000000000000e+01,2.142072971816896487e+00
2.800000000000000000e+01,2.266156399621154893e+00
2.900000000000000000e+01,2.389127032498682635e+00
3.000000000000000000e+01,2.510859753529849137e+00
3.100000000000000000e+01,2.631251566984168289e+00
3.200000000000000000e+01,2.750227027922224288e+00
3.300000000000000000e+01,2.867725936820633148e+00
3.400000000000000000e+01,2.983695787496193130e+00
3.500000000000000000e+01,3.098098614840951726e+00
3.600000000000000000e+01,3.210915490650742665e+00
3.700000000000000000e+01,3.322122013769355231e+00
3.800000000000000000e+01,3.431715290498517756e+00
3.900000000000000000e+01,3.539688644276496099e+00
4.000000000000000000e+01,3.646045823735781788e+00
4.100000000000000000e+01,3.750791841293164453e+00
4.200000000000000000e+01,3.853937726365271654e+00
4.300000000000000000e+01,3.955495380941116412e+00
4.400000000000000000e+01,4.055482663561785550e+00
4.500000000000000000e+01,4.153912608208285562e+00
4.600000000000000000e+01,4.250807961148254321e+00
4.700000000000000000e+01,4.346186628675775765e+00
4.800000000000000000e+01,4.440070175835351129e+00
4.900000000000000000e+01,4.532482668761527833e+00
5.000000000000000000e+01,4.623444045984982154e+00
5.100000000000000000e+01,4.712977647992911301e+00
5.200000000000000000e+01,4.801101756713736179e+00
5.300000000000000000e+01,4.887840080728007131e+00
5.400000000000000000e+01,4.973219564439340878e+00
5.500000000000000000e+01,5.057254496744927330e+00
5.600000000000000000e+01,5.139971471500982325e+00
5.700000000000000000e+01,5.221388207554574556e+00
5.800000000000000000e+01,5.301530511347117169e+00
5.900000000000000000e+01,5.380417413507804447e+00
6.000000000000000000e+01,5.458068759894222133e+00
6.100000000000000000e+01,5.534506590241540458e+00
6.200000000000000000e+01,5.609751134101359504e+00
6.300000000000000000e+01,5.683822003777089016e+00
6.400000000000000000e+01,5.756737940704759637e+00
6.500000000000000000e+01,5.828519671495058674e+00
6.600000000000000000e+01,5.899185902194961528e+00
6.700000000000000000e+01,5.968758354819622802e+00
6.800000000000000000e+01,6.037256842774699983e+00
6.900000000000000000e+01,6.104697360192028022e+00
7.000000000000000000e+01,6.171101269178454807e+00
7.100000000000000000e+01,6.236490483997314982e+00
7.200000000000000000e+01,6.300879391845389144e+00
7.300000000000000000e+01,6.364289877274926788e+00
7.400000000000000000e+01,6.426741949679882104e+00
7.500000000000000000e+01,6.488252815323122924e+00
7.600000000000000000e+01,6.548844185724830069e+00
7.700000000000000000e+01,6.608531641138971402e+00
7.800000000000000000e+01,6.667337191465656510e+00
7.900000000000000000e+01,6.725275768254154407e+00
8.000000000000000000e+01,6.782370316310903924e+00
8.100000000000000000e+01,6.838637107881242905e+00
8.200000000000000000e+01,6.894091447292830743e+00
8.300000000000000000e+01,6.948755012634710404e+00
8.400000000000000000e+01,7.002640559961722744e+00
8.500000000000000000e+01,7.055768582863811034e+00
8.600000000000000000e+01,7.108153995219795185e+00
8.700000000000000000e+01,7.159810416411095169e+00
8.800000000000000000e+01,7.210757689771527978e+00
8.900000000000000000e+01,7.261006796734610802e+00
9.000000000000000000e+01,7.310574039708999550e+00
9.100000000000000000e+01,7.359473121892760261e+00
9.200000000000000000e+01,7.407715958240356890e+00
9.300000000000000000e+01,7.455319529344622609e+00
9.400000000000000000e+01,7.502292670100294991e+00
9.500000000000000000e+01,7.548651569540962392e+00
9.600000000000000000e+01,7.594406540326891886e+00
9.700000000000000000e+01,7.639568386950727152e+00
9.800000000000000000e+01,7.684151351252869411e+00
9.900000000000000000e+01,7.728163902180154921e+00
1.000000000000000000e+02,7.771619915355937991e+00
1.010000000000000000e+02,7.814529175618464052e+00
1.020000000000000000e+02,7.856901204307284559e+00
1.030000000000000000e+02,7.898748651862570469e+00
1.040000000000000000e+02,7.940078781331864732e+00
1.050000000000000000e+02,7.980903855292854843e+00
1.060000000000000000e+02,8.021231788399267870e+00
1.070000000000000000e+02,8.061073571587984432e+00
1.080000000000000000e+02,8.100435809703682821e+00
1.090000000000000000e+02,8.139329768894667083e+00
1.100000000000000000e+02,8.177761006213485118e+00
1.110000000000000000e+02,8.215740909468257414e+00
1.120000000000000000e+02,8.253274403099652545e+00
1.130000000000000000e+02,8.290370630228586890e+00
1.140000000000000000e+02,8.327037871479145537e+00
1.150000000000000000e+02,8.363282078802807717e+00
1.160000000000000000e+02,8.399111457216045906e+00
1.170000000000000000e+02,8.434530941333688858e+00
1.180000000000000000e+02,8.469548533874277751e+00
1.190000000000000000e+02,8.504171134985506697e+00
1.200000000000000000e+02,8.538404749339433053e+00
1.210000000000000000e+02,8.572255319752436264e+00
1.220000000000000000e+02,8.605729047081599248e+00
1.230000000000000000e+02,8.638833479730548603e+00
1.240000000000000000e+02,8.671572327233976196e+00
1.250000000000000000e+02,8.703952403908198576e+00
1.260000000000000000e+02,8.735979220746058260e+00
1.270000000000000000e+02,8.767659014080473767e+00
1.280000000000000000e+02,8.798995999616774810e+00
1.290000000000000000e+02,8.829995597899360504e+00
1.300000000000000000e+02,8.860662306056466875e+00
1.310000000000000000e+02,8.891001211506443624e+00
1.320000000000000000e+02,8.921016796395027981e+00
1.330000000000000000e+02,8.950714127857642310e+00
1.340000000000000000e+02,8.980097388333749819e+00
1.350000000000000000e+02,9.009170770747060075e+00
1.360000000000000000e+02,9.037938622409869893e+00
1.370000000000000000e+02,9.066405156320444192e+00
1.380000000000000000e+02,9.094573748719843920e+00
1.390000000000000000e+02,9.122448231610997382e+00
1.400000000000000000e+02,9.150032879683573483e+00
1.410000000000000000e+02,9.177330869166620886e+00
1.420000000000000000e+02,9.204346383695330758e+00
1.430000000000000000e+02,9.231082662552044127e+00
1.440000000000000000e+02,9.257543257987778773e+00
1.450000000000000000e+02,9.283731076333634036e+00
1.460000000000000000e+02,9.309649612358020576e+00
1.470000000000000000e+02,9.335302127733534405e+00
1.480000000000000000e+02,9.360691791759727209e+00
1.490000000000000000e+02,9.385820754388634057e+00
1.500000000000000000e+02,9.410692685252838530e+00
1.510000000000000000e+02,9.435310761998323414e+00
1.520000000000000000e+02,9.459676114080398435e+00
1.530000000000000000e+02,9.483792300623521854e+00
1.540000000000000000e+02,9.507661882496977412e+00
1.550000000000000000e+02,9.531286834491687898e+00
1.560000000000000000e+02,9.554669970653515421e+00
1.570000000000000000e+02,9.577812754997921729e+00
1.580000000000000000e+02,9.600718509296106262e+00
1.590000000000000000e+02,9.623387945423980128e+00
1.600000000000000000e+02,9.645823881966570923e+00
1.610000000000000000e+02,9.668027563873186736e+00
1.620000000000000000e+02,9.690002314186296317e+00
1.630000000000000000e+02,9.711747902592509973e+00
1.640000000000000000e+02,9.733267173643914916e+00
1.650000000000000000e+02,9.754561796412547281e+00
1.660000000000000000e+02,9.775632657972728623e+00
1.670000000000000000e+02,9.796481343988075352e+00
1.680000000000000000e+02,9.817108545028347066e+00
1.690000000000000000e+02,9.837516978388116229e+00
1.700000000000000000e+02,9.857706046135399802e+00
1.710000000000000000e+02,9.877677061774251754e+00
1.720000000000000000e+02,9.897431180139772522e+00
1.730000000000000000e+02,9.916968686527635413e+00
1.740000000000000000e+02,9.936290555075823150e+00
1.750000000000000000e+02,9.955397136154568116e+00
1.760000000000000000e+02,9.974288756568121528e+00
1.770000000000000000e+02,9.992965954303944187e+00
1.780000000000000000e+02,1.001142854015186856e+01
1.790000000000000000e+02,1.002967665817610587e+01
1.800000000000000000e+02,1.004770985180872422e+01
1.810000000000000000e+02,1.006552846076903762e+01
1.820000000000000000e+02,1.008313210996925591e+01
1.830000000000000000e+02,1.010052075436862218e+01
1.840000000000000000e+02,1.011769398688503863e+01
1.850000000000000000e+02,1.013465172801871894e+01
1.860000000000000000e+02,1.015139262974655132e+01
1.870000000000000000e+02,1.016791613392826932e+01
1.880000000000000000e+02,1.018422212035028096e+01
1.890000000000000000e+02,1.020031033685132549e+01
1.900000000000000000e+02,1.021617849440808889e+01
1.910000000000000000e+02,1.023182677058207979e+01
1.920000000000000000e+02,1.024725398102219920e+01
1.930000000000000000e+02,1.026245915557207411e+01
1.940000000000000000e+02,1.027744175612991206e+01
1.950000000000000000e+02,1.029220078580594766e+01
1.960000000000000000e+02,1.030673501536139192e+01
1.970000000000000000e+02,1.032104419462954148e+01
1.980000000000000000e+02,1.033512728502300959e+01
1.990000000000000000e+02,1.034898356276595521e+01
2.000000000000000000e+02,1.036261250512899679e+01
2.010000000000000000e+02,1.037601367861523904e+01
2.020000000000000000e+02,1.038918630360621265e+01
2.030000000000000000e+02,1.040213023195827446e+01
2.040000000000000000e+02,1.041484539918823771e+01
2.050000000000000000e+02,1.042733139257631692e+01
2.060000000000000000e+02,1.043958842172851043e+01
2.070000000000000000e+02,1.045161613228301789e+01
2.080000000000000000e+02,1.046341660596090861e+01
2.090000000000000000e+02,1.047498921248275039e+01
2.100000000000000000e+02,1.048633500419282072e+01
2.110000000000000000e+02,1.049745521062494724e+01
2.120000000000000000e+02,1.050835208500316753e+01
2.130000000000000000e+02,1.051902582619605475e+01
2.140000000000000000e+02,1.052947892877762115e+01
2.150000000000000000e+02,1.053971384236066378e+01
2.160000000000000000e+02,1.054973171073294047e+01
2.170000000000000000e+02,1.055953752898133224e+01
2.180000000000000000e+02,1.056913298297078185e+01
2.190000000000000000e+02,1.057852129239015682e+01
2.200000000000000000e+02,1.058770667585382697e+01
2.210000000000000000e+02,1.059669215431109279e+01
2.220000000000000000e+02,1.060548310096924496e+01
2.230000000000000000e+02,1.061408213179459281e+01
2.240000000000000000e+02,1.062249545740875867e+01
2.250000000000000000e+02,1.063072684834603621e+01
2.260000000000000000e+02,1.063878210277677105e+01
2.270000000000000000e+02,1.064666634758817843e+01
2.280000000000000000e+02,1.065438538558817960e+01
2.290000000000000000e+02,1.066194425055084238e+01
2.300000000000000000e+02,1.066934927086530749e+01
2.310000000000000000e+02,1.067660590556046074e+01
2.320000000000000000e+02,1.068372090546238695e+01
2.330000000000000000e+02,1.069070046254624273e+01
2.340000000000000000e+02,1.069755072661972051e+01
2.350000000000000000e+02,1.070427780703193221e+01
2.360000000000000000e+02,1.071088869262598386e+01
2.370000000000000000e+02,1.071738971899838866e+01
2.380000000000000000e+02,1.072378687916266493e+01
2.390000000000000000e+02,1.073008745351052617e+01
2.400000000000000000e+02,1.073629715989891942e+01
2.410000000000000000e+02,1.074242300404496220e+01
2.420000000000000000e+02,1.074847104401901632e+01
2.430000000000000000e+02,1.075444730741068078e+01
2.440000000000000000e+02,1.076035880330124961e+01
2.450000000000000000e+02,1.076621159882080114e+01
2.460000000000000000e+02,1.077201122849777626e+01
2.470000000000000000e+02,1.077776410853439515e+01
2.480000000000000000e+02,1.078347582126089499e+01
2.490000000000000000e+02,1.078915262843328726e+01
2.500000000000000000e+02,1.079479986073048181e+01
2.510000000000000000e+02,1.080042372927725403e+01
2.520000000000000000e+02,1.080602851435945055e+01
2.530000000000000000e+02,1.081161998052699680e+01
2.540000000000000000e+02,1.081720346826136847e+01
2.550000000000000000e+02,1.082278419605659359e+01
2.560000000000000000e+02,1.082836716123672893e+01
2.570000000000000000e+02,1.083395654267747332e+01
2.580000000000000000e+02,1.083955969012944109e+01
2.590000000000000000e+02,1.084517824990190960e+01
2.600000000000000000e+02,1.085081793764258151e+01
2.610000000000000000e+02,1.085648365044471753e+01
2.620000000000000000e+02,1.086217917321194193e+01
2.630000000000000000e+02,1.086791085130713164e+01
2.640000000000000000e+02,1.087367926032171717e+01
2.650000000000000000e+02,1.087949268668269909e+01
2.660000000000000000e+02,1.088535256362021819e+01
2.670000000000000000e+02,1.089126495509390757e+01
2.680000000000000000e+02,1.089723165835636820e+01
2.690000000000000000e+02,1.090326056606289562e+01
2.700000000000000000e+02,1.090935255038653118e+01
2.710000000000000000e+02,1.091551181762709355e+01
2.720000000000000000e+02,1.092174431892755138e+01
2.730000000000000000e+02,1.092805293655450960e+01
2.740000000000000000e+02,1.093444278796344271e+01
2.750000000000000000e+02,1.094091847397319661e+01
2.760000000000000000e+02,1.094748251824462137e+01
2.770000000000000000e+02,1.095414084224061924e+01
2.780000000000000000e+02,1.096089660541397315e+01
2.790000000000000000e+02,1.096775693601520452e+01
2.800000000000000000e+02,1.097472347785400970e+01
2.810000000000000000e+02,1.098180348957724206e+01
2.820000000000000000e+02,1.098900050154460217e+01
2.830000000000000000e+02,1.099632063158919415e+01
2.840000000000000000e+02,1.100376831287626800e+01
2.850000000000000000e+02,1.101134968308079287e+01
2.860000000000000000e+02,1.101907035391980472e+01
2.870000000000000000e+02,1.102693473938635904e+01
2.880000000000000000e+02,1.103495086951828696e+01
2.890000000000000000e+02,1.104312431503670844e+01
2.900000000000000000e+02,1.105146059963317384e+01
2.910000000000000000e+02,1.105996883512457529e+01
2.920000000000000000e+02,1.106865452547301842e+01
2.930000000000000000e+02,1.107752274062562314e+01
2.940000000000000000e+02,1.108658583248340435e+01
2.950000000000000000e+02,1.109584682843541792e+01
2.960000000000000000e+02,1.110531564218335809e+01
2.970000000000000000e+02,1.111499944258891048e+01
2.980000000000000000e+02,1.112490910577802339e+01
2.990000000000000000e+02,1.113505039809157005e+01
3.000000000000000000e+02,1.114543438480274951e+01
3.010000000000000000e+02,1.115606975844983850e+01
3.020000000000000000e+02,1.116696332609059716e+01
3.030000000000000000e+02,1.117812676917114700e+01
3.040000000000000000e+02,1.118956677338959160e+01
3.050000000000000000e+02,1.120129253866526398e+01
3.060000000000000000e+02,1.121331090741412062e+01
3.070000000000000000e+02,1.122562647811935754e+01
3.080000000000000000e+02,1.123825339758578501e+01
3.090000000000000000e+02,1.125119037330496141e+01
3.100000000000000000e+02,1.126444335674732855e+01
3.110000000000000000e+02,1.127801864627442718e+01
3.120000000000000000e+02,1.129191149501190949e+01
3.130000000000000000e+02,1.130611348004300609e+01
3.140000000000000000e+02,1.132063027222364759e+01
3.150000000000000000e+02,1.133544474211036857e+01
3.160000000000000000e+02,1.135054024757061164e+01
3.170000000000000000e+02,1.136589873325840294e+01
3.180000000000000000e+02,1.138149416144688075e+01
3.190000000000000000e+02,1.139730056143527648e+01
3.200000000000000000e+02,1.141327487545732211e+01
3.210000000000000000e+02,1.142937674463849618e+01
3.220000000000000000e+02,1.144555874336329460e+01
3.230000000000000000e+02,1.146176497349985723e+01
3.240000000000000000e+02,1.147794336341739019e+01
3.250000000000000000e+02,1.149404366695958224e+01
3.260000000000000000e+02,1.151000992467718653e+01
3.270000000000000000e+02,1.152579868740589575e+01
3.280000000000000000e+02,1.154136512472313392e+01
3.290000000000000000e+02,1.155668082239229300e+01
3.300000000000000000e+02,1.157172682055410817e+01
3.310000000000000000e+02,1.158648816219374922e+01
3.320000000000000000e+02,1.160096435920168645e+01
3.330000000000000000e+02,1.161516391575780993e+01
3.340000000000000000e+02,1.162909781481500104e+01
3.350000000000000000e+02,1.164277975154911893e+01
3.360000000000000000e+02,1.165622403868503021e+01
3.370000000000000000e+02,1.166944577660776794e+01
3.380000000000000000e+02,1.168245922003772641e+01
3.390000000000000000e+02,1.169527548156501062e+01
3.400000000000000000e+02,1.170790709608298030e+01
3.410000000000000000e+02,1.172036298111896890e+01
3.420000000000000000e+02,1.173264924348718985e+01
3.430000000000000000e+02,1.174477515104236325e+01
3.440000000000000000e+02,1.175674522580429660e+01
3.450000000000000000e+02,1.176856723873679655e+01
3.460000000000000000e+02,1.178024323715581367e+01
3.470000000000000000e+02,1.179178366181461968e+01
3.480000000000000000e+02,1.180318894871853175e+01
3.490000000000000000e+02,1.181446346442795559e+01
3.500000000000000000e+02,1.182561220450627459e+01
3.510000000000000000e+02,1.183663727933939924e+01
3.520000000000000000e+02,1.184754186127944564e+01
3.530000000000000000e+02,1.185833209000668376e+01
3.540000000000000000e+02,1.186900740724981240e+01
3.550000000000000000e+02,1.187957264488019682e+01
3.560000000000000000e+02,1.189003077359483562e+01
3.570000000000000000e+02,1.190038267190008980e+01
3.580000000000000000e+02,1.191063250812497998e+01
3.590000000000000000e+02,1.192078351137657322e+01
3.600000000000000000e+02,1.193083518400620591e+01
3.610000000000000000e+02,1.194079031163345839e+01
3.620000000000000000e+02,1.195065108364161155e+01
3.630000000000000000e+02,1.196041909843047435e+01
3.640000000000000000e+02,1.197009675736014422e+01
3.650000000000000000e+02,1.197968554560956100e+01
3.660000000000000000e+02,1.198918693556824522e+01
3.670000000000000000e+02,1.199860287498460032e+01
3.680000000000000000e+02,1.200793407857844564e+01
3.690000000000000000e+02,1.201718263166831768e+01
3.700000000000000000e+02,1.202634971359814031e+01
3.710000000000000000e+02,1.203543778679430964e+01
3.720000000000000000e+02,1.204444566503163827e+01
3.730000000000000000e+02,1.205337466432212246e+01
3.740000000000000000e+02,1.206223011305720938e+01
3.750000000000000000e+02,1.207101023630191250e+01
3.760000000000000000e+02,1.207971543314567953e+01
3.770000000000000000e+02,1.208834697924766921e+01
3.780000000000000000e+02,1.209690862056487326e+01
3.790000000000000000e+02,1.210539816850714345e+01
3.800000000000000000e+02,1.211381743322006344e+01
3.810000000000000000e+02,1.212216861103964938e+01
3.820000000000000000e+02,1.213045046350182510e+01
3.830000000000000000e+02,1.213866723865835873e+01
3.840000000000000000e+02,1.214681720938865972e+01
3.850000000000000000e+02,1.215490063685282784e+01
3.860000000000000000e+02,1.216292118152537149e+01
3.870000000000000000e+02,1.217087663504973172e+01
3.880000000000000000e+02,1.217877063918402314e+01
3.890000000000000000e+02,1.218660106125677700e+01
3.900000000000000000e+02,1.219437144582788690e+01
3.910000000000000000e+02,1.220207918539419367e+01
3.920000000000000000e+02,1.220972875111638878e+01
3.930000000000000000e+02,1.221731753201592774e+01
3.940000000000000000e+02,1.222484817663249856e+01
3.950000000000000000e+02,1.223232222377070677e+01
3.960000000000000000e+02,1.223973659321225682e+01
3.970000000000000000e+02,1.224709485202115289e+01
3.980000000000000000e+02,1.225439813228278219e+01
