# Time [s], Mass [Kg]
1.000000000000000000e+00,1.000000000000000000e+00
2.000000000000000000e+00,1.000000000000000000e+00
3.000000000000000000e+00,1.000000000000000000e+00
4.000000000000000000e+00,1.000000000000000000e+00
5.000000000000000000e+00,1.000000000000000000e+00
6.000000000000000000e+00,1.000000000000000000e+00
7.000000000000000000e+00,9.999999400000000316e-01
8.000000000000000000e+00,9.999995799999999990e-01
9.000000000000000000e+00,9.999980899999999506e-01
1.000000000000000000e+01,9.999930900000000289e-01
1.100000000000000000e+01,9.999783599999999550e-01
1.200000000000000000e+01,9.999415299999999673e-01
1.300000000000000000e+01,9.998598699999999839e-01
1.400000000000000000e+01,9.996971500000000344e-01
1.500000000000000000e+01,9.994015699999999613e-01
1.600000000000000000e+01,9.989091799999999521e-01
1.700000000000000000e+01,9.981573200000000146e-01
1.800000000000000000e+01,9.971082199999999895e-01
1.900000000000000000e+01,9.957599599999999995e-01
2.000000000000000000e+01,9.941567799999999622e-01
2.100000000000000000e+01,9.923942100000000544e-01
2.200000000000000000e+01,9.905543300000000384e-01
2.300000000000000000e+01,9.887504599999999977e-01
2.400000000000000000e+01,9.871148499999999881e-01
2.500000000000000000e+01,9.857137799999999839e-01
2.600000000000000000e+01,9.845916599999999796e-01
2.700000000000000000e+01,9.836733899999999808e-01
2.800000000000000000e+01,9.826386000000000287e-01
2.900000000000000000e+01,9.813672900000000032e-01
3.000000000000000000e+01,9.799142499999999867e-01
3.100000000000000000e+01,9.783458099999999824e-01
3.200000000000000000e+01,9.767322499999999685e-01
3.300000000000000000e+01,9.751437899999999548e-01
3.400000000000000000e+01,9.736446100000000214e-01
3.500000000000000000e+01,9.722853299999999477e-01
3.600000000000000000e+01,9.710887099999999661e-01
3.700000000000000000e+01,9.700353099999999840e-01
3.800000000000000000e+01,9.690475499999999798e-01
3.900000000000000000e+01,9.680126900000000090e-01
4.000000000000000000e+01,9.668441399999999630e-01
4.100000000000000000e+01,9.655601999999999796e-01
4.200000000000000000e+01,9.642001999999999517e-01
4.300000000000000000e+01,9.628050299999999506e-01
4.400000000000000000e+01,9.614169599999999871e-01
4.500000000000000000e+01,9.600738300000000169e-01
4.600000000000000000e+01,9.588059199999999782e-01
4.700000000000000000e+01,9.576316499999999454e-01
4.800000000000000000e+01,9.565510699999999478e-01
4.900000000000000000e+01,9.555414899999999934e-01
5.000000000000000000e+01,9.545589100000000382e-01
5.100000000000000000e+01,9.535509300000000188e-01
5.200000000000000000e+01,9.524798399999999665e-01
5.300000000000000000e+01,9.513371000000000466e-01
5.400000000000000000e+01,9.501419700000000024e-01
5.500000000000000000e+01,9.489187000000000038e-01
5.600000000000000000e+01,9.476910200000000506e-01
5.700000000000000000e+01,9.464818200000000292e-01
5.800000000000000000e+01,9.453100599999999520e-01
5.900000000000000000e+01,9.441891900000000115e-01
6.000000000000000000e+01,9.431245299999999609e-01
6.100000000000000000e+01,9.421121500000000371e-01
6.200000000000000000e+01,9.411369600000000224e-01
6.300000000000000000e+01,9.401760700000000304e-01
6.400000000000000000e+01,9.392034400000000005e-01
6.500000000000000000e+01,9.381984500000000171e-01
6.600000000000000000e+01,9.371522700000000095e-01
6.700000000000000000e+01,9.360685300000000097e-01
6.800000000000000000e+01,9.349598900000000157e-01
6.900000000000000000e+01,9.338409899999999819e-01
7.000000000000000000e+01,9.327263799999999661e-01
7.100000000000000000e+01,9.316281699999999777e-01
7.200000000000000000e+01,9.305561199999999866e-01
7.300000000000000000e+01,9.295157800000000137e-01
7.400000000000000000e+01,9.285083400000000431e-01
7.500000000000000000e+01,9.275292800000000115e-01
7.600000000000000000e+01,9.265690399999999549e-01
7.700000000000000000e+01,9.256144200000000488e-01
7.800000000000000000e+01,9.246515600000000390e-01
7.900000000000000000e+01,9.236685000000000034e-01
8.000000000000000000e+01,9.226590999999999543e-01
8.100000000000000000e+01,9.216234100000000318e-01
8.200000000000000000e+01,9.205673300000000170e-01
8.300000000000000000e+01,9.194995799999999830e-01
8.400000000000000000e+01,9.184296100000000074e-01
8.500000000000000000e+01,9.173657899999999588e-01
8.600000000000000000e+01,9.163148399999999638e-01
8.700000000000000000e+01,9.152810599999999797e-01
8.800000000000000000e+01,9.142657499999999882e-01
8.900000000000000000e+01,9.132672499999999749e-01
9.000000000000000000e+01,9.122807400000000344e-01
9.100000000000000000e+01,9.112988100000000147e-01
9.200000000000000000e+01,9.103128299999999617e-01
9.300000000000000000e+01,9.093145099999999648e-01
9.400000000000000000e+01,9.082980200000000393e-01
9.500000000000000000e+01,9.072608899999999865e-01
9.600000000000000000e+01,9.062043400000000526e-01
9.700000000000000000e+01,9.051328899999999678e-01
9.800000000000000000e+01,9.040525000000000366e-01
9.900000000000000000e+01,9.029695399999999594e-01
1.000000000000000000e+02,9.018893199999999943e-01
1.010000000000000000e+02,9.008157799999999549e-01
1.020000000000000000e+02,8.997507099999999536e-01
1.030000000000000000e+02,8.986939200000000350e-01
1.040000000000000000e+02,8.976426699999999759e-01
1.050000000000000000e+02,8.965927999999999676e-01
1.060000000000000000e+02,8.955384499999999859e-01
1.070000000000000000e+02,8.944740300000000310e-01
1.080000000000000000e+02,8.933945300000000200e-01
1.090000000000000000e+02,8.922971499999999834e-01
1.100000000000000000e+02,8.911814700000000311e-01
1.110000000000000000e+02,8.900494599999999590e-01
1.120000000000000000e+02,8.889047500000000213e-01
1.130000000000000000e+02,8.877518199999999693e-01
1.140000000000000000e+02,8.865948299999999449e-01
1.150000000000000000e+02,8.854366500000000473e-01
1.160000000000000000e+02,8.842787699999999917e-01
1.170000000000000000e+02,8.831210699999999525e-01
1.180000000000000000e+02,8.819616999999999596e-01
1.190000000000000000e+02,8.807972099999999971e-01
1.200000000000000000e+02,8.796235300000000423e-01
1.210000000000000000e+02,8.784364500000000353e-01
1.220000000000000000e+02,8.772324900000000314e-01
1.230000000000000000e+02,8.760096400000000338e-01
1.240000000000000000e+02,8.747675400000000101e-01
1.250000000000000000e+02,8.735076200000000402e-01
1.260000000000000000e+02,8.722324999999999662e-01
1.270000000000000000e+02,8.709450399999999481e-01
1.280000000000000000e+02,8.696477999999999708e-01
1.290000000000000000e+02,8.683422200000000535e-01
1.300000000000000000e+02,8.670285300000000195e-01
1.310000000000000000e+02,8.657053700000000296e-01
1.320000000000000000e+02,8.643702899999999856e-01
1.330000000000000000e+02,8.630201199999999462e-01
1.340000000000000000e+02,8.616515399999999936e-01
1.350000000000000000e+02,8.602616199999999491e-01
1.360000000000000000e+02,8.588486300000000018e-01
1.370000000000000000e+02,8.574119799999999625e-01
1.380000000000000000e+02,8.559524400000000366e-01
1.390000000000000000e+02,8.544714500000000212e-01
1.400000000000000000e+02,8.529707800000000395e-01
1.410000000000000000e+02,8.514516899999999833e-01
1.420000000000000000e+02,8.499147900000000311e-01
1.430000000000000000e+02,8.483594700000000044e-01
1.440000000000000000e+02,8.467841699999999472e-01
1.450000000000000000e+02,8.451867100000000077e-01
1.460000000000000000e+02,8.435646300000000375e-01
1.470000000000000000e+02,8.419159699999999580e-01
1.480000000000000000e+02,8.402394100000000199e-01
1.490000000000000000e+02,8.385347699999999849e-01
1.500000000000000000e+02,8.368027799999999683e-01
1.510000000000000000e+02,8.350447399999999520e-01
1.520000000000000000e+02,8.332625000000000171e-01
1.530000000000000000e+02,8.314573800000000237e-01
1.540000000000000000e+02,8.296303200000000322e-01
1.550000000000000000e+02,8.277815600000000273e-01
1.560000000000000000e+02,8.259110499999999799e-01
1.570000000000000000e+02,8.240183599999999497e-01
1.580000000000000000e+02,8.221033199999999708e-01
1.590000000000000000e+02,8.201662899999999645e-01
1.600000000000000000e+02,8.182083399999999784e-01
1.610000000000000000e+02,8.162314899999999485e-01
1.620000000000000000e+02,8.142380700000000360e-01
1.630000000000000000e+02,8.122307699999999908e-01
1.640000000000000000e+02,8.102121399999999696e-01
1.650000000000000000e+02,8.081843899999999747e-01
1.660000000000000000e+02,8.061492999999999576e-01
1.670000000000000000e+02,8.041084400000000354e-01
1.680000000000000000e+02,8.020628699999999833e-01
1.690000000000000000e+02,8.000141400000000402e-01
1.700000000000000000e+02,7.979640399999999856e-01
1.710000000000000000e+02,7.959145899999999774e-01
1.720000000000000000e+02,7.938681800000000344e-01
1.730000000000000000e+02,7.918273799999999696e-01
1.740000000000000000e+02,7.897945600000000343e-01
1.750000000000000000e+02,7.877718200000000115e-01
1.760000000000000000e+02,7.857609399999999633e-01
1.770000000000000000e+02,7.837634700000000176e-01
1.780000000000000000e+02,7.817806000000000477e-01
1.790000000000000000e+02,7.798137099999999933e-01
1.800000000000000000e+02,7.778640399999999788e-01
1.810000000000000000e+02,7.759330899999999920e-01
1.820000000000000000e+02,7.740226399999999840e-01
1.830000000000000000e+02,7.721343000000000512e-01
1.840000000000000000e+02,7.702696300000000385e-01
1.850000000000000000e+02,7.684301100000000551e-01
1.860000000000000000e+02,7.666171800000000092e-01
1.870000000000000000e+02,7.648318400000000405e-01
1.880000000000000000e+02,7.630754100000000095e-01
1.890000000000000000e+02,7.613490200000000430e-01
1.900000000000000000e+02,7.596541599999999672e-01
1.910000000000000000e+02,7.579923299999999919e-01
1.920000000000000000e+02,7.563652400000000497e-01
1.930000000000000000e+02,7.547746300000000019e-01
1.940000000000000000e+02,7.532223500000000405e-01
1.950000000000000000e+02,7.517102399999999740e-01
1.960000000000000000e+02,7.502403300000000108e-01
1.970000000000000000e+02,7.488145200000000390e-01
1.980000000000000000e+02,7.474351500000000481e-01
1.990000000000000000e+02,7.461047200000000545e-01
2.000000000000000000e+02,7.448257799999999929e-01
2.010000000000000000e+02,7.436015000000000263e-01
2.020000000000000000e+02,7.424349199999999982e-01
2.030000000000000000e+02,7.413294900000000354e-01
2.040000000000000000e+02,7.402886699999999820e-01
2.050000000000000000e+02,7.393161099999999708e-01
2.060000000000000000e+02,7.384155999999999498e-01
2.070000000000000000e+02,7.375909699999999569e-01
2.080000000000000000e+02,7.368460300000000407e-01
2.090000000000000000e+02,7.361841799999999658e-01
2.100000000000000000e+02,7.356082200000000348e-01
2.110000000000000000e+02,7.351198799999999478e-01
2.120000000000000000e+02,7.347190999999999583e-01
2.130000000000000000e+02,7.344038499999999692e-01
2.140000000000000000e+02,7.341689500000000423e-01
2.150000000000000000e+02,7.340061100000000449e-01
2.160000000000000000e+02,7.339034100000000338e-01
2.170000000000000000e+02,7.338466000000000156e-01
2.180000000000000000e+02,7.338203199999999704e-01
2.190000000000000000e+02,7.338109600000000121e-01
2.200000000000000000e+02,7.338088799999999967e-01
2.210000000000000000e+02,7.338086999999999804e-01
2.220000000000000000e+02,7.338086999999999804e-01
2.230000000000000000e+02,7.338086999999999804e-01
2.240000000000000000e+02,7.338086999999999804e-01
2.250000000000000000e+02,7.338086999999999804e-01
2.260000000000000000e+02,7.338086999999999804e-01
2.270000000000000000e+02,7.338086999999999804e-01
2.280000000000000000e+02,7.338086999999999804e-01
2.290000000000000000e+02,7.338086999999999804e-01
2.300000000000000000e+02,7.338086999999999804e-01
2.310000000000000000e+02,7.338086999999999804e-01
2.320000000000000000e+02,7.338086999999999804e-01
2.330000000000000000e+02,7.338086999999999804e-01
2.340000000000000000e+02,7.338086999999999804e-01
2.350000000000000000e+02,7.338086999999999804e-01
2.360000000000000000e+02,7.338086999999999804e-01
2.370000000000000000e+02,7.338086999999999804e-01
2.380000000000000000e+02,7.338086999999999804e-01
2.390000000000000000e+02,7.338086999999999804e-01
2.400000000000000000e+02,7.338086999999999804e-01
2.410000000000000000e+02,7.338086999999999804e-01
2.420000000000000000e+02,7.338086999999999804e-01
2.430000000000000000e+02,7.338086999999999804e-01
2.440000000000000000e+02,7.338086999999999804e-01
2.450000000000000000e+02,7.338086999999999804e-01
2.460000000000000000e+02,7.338086999999999804e-01
2.470000000000000000e+02,7.338086999999999804e-01
2.480000000000000000e+02,7.338086999999999804e-01
2.490000000000000000e+02,7.338086999999999804e-01
2.500000000000000000e+02,7.338086999999999804e-01
2.510000000000000000e+02,7.338086999999999804e-01
2.520000000000000000e+02,7.338086999999999804e-01
2.530000000000000000e+02,7.338086999999999804e-01
2.540000000000000000e+02,7.338086999999999804e-01
2.550000000000000000e+02,7.338086999999999804e-01
2.560000000000000000e+02,7.338086999999999804e-01
2.570000000000000000e+02,7.338086999999999804e-01
2.580000000000000000e+02,7.338086999999999804e-01
2.590000000000000000e+02,7.338086999999999804e-01
2.600000000000000000e+02,7.338086999999999804e-01
2.610000000000000000e+02,7.338086999999999804e-01
2.620000000000000000e+02,7.338086999999999804e-01
2.630000000000000000e+02,7.338086999999999804e-01
2.640000000000000000e+02,7.338086999999999804e-01
2.650000000000000000e+02,7.338086999999999804e-01
2.660000000000000000e+02,7.338086999999999804e-01
2.670000000000000000e+02,7.338086999999999804e-01
2.680000000000000000e+02,7.338086999999999804e-01
2.690000000000000000e+02,7.338086999999999804e-01
2.700000000000000000e+02,7.338086999999999804e-01
2.710000000000000000e+02,7.338086999999999804e-01
2.720000000000000000e+02,7.338086999999999804e-01
2.730000000000000000e+02,7.338086999999999804e-01
2.740000000000000000e+02,7.338086999999999804e-01
2.750000000000000000e+02,7.338086999999999804e-01
2.760000000000000000e+02,7.338086999999999804e-01
2.770000000000000000e+02,7.338086999999999804e-01
2.780000000000000000e+02,7.338086999999999804e-01
2.790000000000000000e+02,7.338086999999999804e-01
2.800000000000000000e+02,7.338086999999999804e-01
2.810000000000000000e+02,7.338086999999999804e-01
2.820000000000000000e+02,7.338086999999999804e-01
2.830000000000000000e+02,7.338086999999999804e-01
2.840000000000000000e+02,7.338086999999999804e-01
2.850000000000000000e+02,7.338086999999999804e-01
2.860000000000000000e+02,7.338086999999999804e-01
2.870000000000000000e+02,7.338086999999999804e-01
2.880000000000000000e+02,7.338086999999999804e-01
2.890000000000000000e+02,7.338086999999999804e-01
2.900000000000000000e+02,7.338086999999999804e-01
2.910000000000000000e+02,7.338086999999999804e-01
2.920000000000000000e+02,7.338086999999999804e-01
2.930000000000000000e+02,7.338086999999999804e-01
2.940000000000000000e+02,7.338086999999999804e-01
2.950000000000000000e+02,7.338086999999999804e-01
2.960000000000000000e+02,7.338086999999999804e-01
2.970000000000000000e+02,7.338086999999999804e-01
2.980000000000000000e+02,7.338086999999999804e-01
2.990000000000000000e+02,7.338086999999999804e-01
3.000000000000000000e+02,7.338086999999999804e-01
3.010000000000000000e+02,7.338086999999999804e-01
3.020000000000000000e+02,7.338086999999999804e-01
3.030000000000000000e+02,7.338086999999999804e-01
3.040000000000000000e+02,7.338086999999999804e-01
3.050000000000000000e+02,7.338086999999999804e-01
3.060000000000000000e+02,7.338086999999999804e-01
3.070000000000000000e+02,7.338086999999999804e-01
3.080000000000000000e+02,7.338086999999999804e-01
3.090000000000000000e+02,7.338086999999999804e-01
3.100000000000000000e+02,7.338086999999999804e-01
3.110000000000000000e+02,7.338086999999999804e-01
3.120000000000000000e+02,7.338086999999999804e-01
3.130000000000000000e+02,7.338086999999999804e-01
3.140000000000000000e+02,7.338086999999999804e-01
3.150000000000000000e+02,7.338086999999999804e-01
3.160000000000000000e+02,7.338086999999999804e-01
3.170000000000000000e+02,7.338086999999999804e-01
3.180000000000000000e+02,7.338086999999999804e-01
3.190000000000000000e+02,7.338086999999999804e-01
3.200000000000000000e+02,7.338086999999999804e-01
3.210000000000000000e+02,7.338086999999999804e-01
3.220000000000000000e+02,7.338086999999999804e-01
3.230000000000000000e+02,7.338086999999999804e-01
3.240000000000000000e+02,7.338086999999999804e-01
3.250000000000000000e+02,7.338086999999999804e-01
3.260000000000000000e+02,7.338086999999999804e-01
3.270000000000000000e+02,7.338086999999999804e-01
3.280000000000000000e+02,7.338086999999999804e-01
3.290000000000000000e+02,7.338086999999999804e-01
3.300000000000000000e+02,7.338086999999999804e-01
3.310000000000000000e+02,7.338086999999999804e-01
3.320000000000000000e+02,7.338086999999999804e-01
3.330000000000000000e+02,7.338086999999999804e-01
3.340000000000000000e+02,7.338086999999999804e-01
3.350000000000000000e+02,7.338086999999999804e-01
3.360000000000000000e+02,7.338086999999999804e-01
3.370000000000000000e+02,7.338086999999999804e-01
3.380000000000000000e+02,7.338086999999999804e-01
3.390000000000000000e+02,7.338086999999999804e-01
3.400000000000000000e+02,7.338086999999999804e-01
3.410000000000000000e+02,7.338086999999999804e-01
3.420000000000000000e+02,7.338086999999999804e-01
3.430000000000000000e+02,7.338086999999999804e-01
3.440000000000000000e+02,7.338086999999999804e-01
3.450000000000000000e+02,7.338086999999999804e-01
3.460000000000000000e+02,7.338086999999999804e-01
3.470000000000000000e+02,7.338086999999999804e-01
3.480000000000000000e+02,7.338086999999999804e-01
3.490000000000000000e+02,7.338086999999999804e-01
3.500000000000000000e+02,7.338086999999999804e-01
3.510000000000000000e+02,7.338086999999999804e-01
3.520000000000000000e+02,7.338086999999999804e-01
3.530000000000000000e+02,7.338086999999999804e-01
3.540000000000000000e+02,7.338086999999999804e-01
3.550000000000000000e+02,7.338086999999999804e-01
3.560000000000000000e+02,7.338086999999999804e-01
3.570000000000000000e+02,7.338086999999999804e-01
3.580000000000000000e+02,7.338086999999999804e-01
3.590000000000000000e+02,7.338086999999999804e-01
3.600000000000000000e+02,7.338086999999999804e-01
3.610000000000000000e+02,7.338086999999999804e-01
3.620000000000000000e+02,7.338086999999999804e-01
3.630000000000000000e+02,7.338086999999999804e-01
3.640000000000000000e+02,7.338086999999999804e-01
3.650000000000000000e+02,7.338086999999999804e-01
3.660000000000000000e+02,7.338086999999999804e-01
3.670000000000000000e+02,7.338086999999999804e-01
3.680000000000000000e+02,7.338086999999999804e-01
3.690000000000000000e+02,7.338086999999999804e-01
3.700000000000000000e+02,7.338086999999999804e-01
3.710000000000000000e+02,7.338086999999999804e-01
3.720000000000000000e+02,7.338086999999999804e-01
3.730000000000000000e+02,7.338086999999999804e-01
3.740000000000000000e+02,7.338086999999999804e-01
3.750000000000000000e+02,7.338086999999999804e-01
3.760000000000000000e+02,7.338086999999999804e-01
3.770000000000000000e+02,7.338086999999999804e-01
3.780000000000000000e+02,7.338086999999999804e-01
3.790000000000000000e+02,7.338086999999999804e-01
3.800000000000000000e+02,7.338086999999999804e-01
3.810000000000000000e+02,7.338086999999999804e-01
3.820000000000000000e+02,7.338086999999999804e-01
3.830000000000000000e+02,7.338086999999999804e-01
3.840000000000000000e+02,7.338086999999999804e-01
3.850000000000000000e+02,7.338086999999999804e-01
3.860000000000000000e+02,7.338086999999999804e-01
3.870000000000000000e+02,7.338086999999999804e-01
3.880000000000000000e+02,7.338086999999999804e-01
3.890000000000000000e+02,7.338086999999999804e-01
3.900000000000000000e+02,7.338086999999999804e-01
3.910000000000000000e+02,7.338086999999999804e-01
3.920000000000000000e+02,7.338086999999999804e-01
3.930000000000000000e+02,7.338086999999999804e-01
3.940000000000000000e+02,7.338086999999999804e-01
3.950000000000000000e+02,7.338086999999999804e-01
3.960000000000000000e+02,7.338086999999999804e-01
3.970000000000000000e+02,7.338086999999999804e-01
3.980000000000000000e+02,7.338086999999999804e-01
3.990000000000000000e+02,7.338086999999999804e-01
