# Time [s], Convective Heat Transfer Coefficient [W/m2K]
1.000000000000000000e+00,0.000000000000000000e+00
2.000000000000000000e+00,0.000000000000000000e+00
3.000000000000000000e+00,0.000000000000000000e+00
4.000000000000000000e+00,0.000000000000000000e+00
5.000000000000000000e+00,2.762023300960968902e-02
6.000000000000000000e+00,4.774898591629385403e-02
7.000000000000000000e+00,7.739297921895853249e-02
8.000000000000000000e+00,1.168231392200433927e-01
9.000000000000000000e+00,1.671162114617205097e-01
1.000000000000000000e+01,2.287183270851611550e-01
1.100000000000000000e+01,3.010712074148823025e-01
1.200000000000000000e+01,3.834941719481874678e-01
1.300000000000000000e+01,4.749814350077458114e-01
1.400000000000000000e+01,5.743643644013129990e-01
1.500000000000000000e+01,6.804461599822481110e-01
1.600000000000000000e+01,7.920865368151160935e-01
1.700000000000000000e+01,9.082280506966726730e-01
1.800000000000000000e+01,1.027918131024550874e+00
1.900000000000000000e+01,1.150324186190386122e+00
2.000000000000000000e+01,1.274717808043248635e+00
2.100000000000000000e+01,1.400476499178851419e+00
2.200000000000000000e+01,1.527072031929190832e+00
2.300000000000000000e+01,1.654055079446646204e+00
2.400000000000000000e+01,1.781038788453489952e+00
2.500000000000000000e+01,1.907709568686767332e+00
2.600000000000000000e+01,2.033797506776548580e+00
2.700000000000000000e+01,2.159081990400085083e+00
2.800000000000000000e+01,2.283378623498189430e+00
2.900000000000000000e+01,2.406527670101090255e+00
3.000000000000000000e+01,2.528412729573705775e+00
3.100000000000000000e+01,2.648930753855763154e+00
3.200000000000000000e+01,2.767997973847737825e+00
3.300000000000000000e+01,2.885556389121657350e+00
3.400000000000000000e+01,3.001558117729761666e+00
3.500000000000000000e+01,3.115971787965868156e+00
3.600000000000000000e+01,3.228771569218752635e+00
3.700000000000000000e+01,3.339944891715078246e+00
3.800000000000000000e+01,3.449481090727382071e+00
3.900000000000000000e+01,3.557383409304223587e+00
4.000000000000000000e+01,3.663655830743794528e+00
4.100000000000000000e+01,3.768306610558954439e+00
4.200000000000000000e+01,3.871345624759259696e+00
4.300000000000000000e+01,3.972793327741420910e+00
4.400000000000000000e+01,4.072660929300144339e+00
4.500000000000000000e+01,4.170969710916810236e+00
4.600000000000000000e+01,4.267736361120573640e+00
4.700000000000000000e+01,4.362985882857747910e+00
4.800000000000000000e+01,4.456737919103844092e+00
4.900000000000000000e+01,4.549014242241698369e+00
5.000000000000000000e+01,4.639838392017030522e+00
5.100000000000000000e+01,4.729232162877526235e+00
5.200000000000000000e+01,4.817219022799096528e+00
5.300000000000000000e+01,4.903819725573790755e+00
5.400000000000000000e+01,4.989057528765698635e+00
5.500000000000000000e+01,5.072956714523567889e+00
5.600000000000000000e+01,5.155537704552873635e+00
5.700000000000000000e+01,5.236820773356497760e+00
5.800000000000000000e+01,5.316829935080321867e+00
5.900000000000000000e+01,5.395584704400007148e+00
6.000000000000000000e+01,5.473107171028401829e+00
6.100000000000000000e+01,5.549417163712988099e+00
6.200000000000000000e+01,5.624535853495575388e+00
6.300000000000000000e+01,5.698482784808591717e+00
6.400000000000000000e+01,5.771276946013609077e+00
6.500000000000000000e+01,5.842939779483620200e+00
6.600000000000000000e+01,5.913490671649832997e+00
6.700000000000000000e+01,5.982949812858413985e+00
6.800000000000000000e+01,6.051339203490166518e+00
6.900000000000000000e+01,6.118673621853304212e+00
7.000000000000000000e+01,6.184975491162979289e+00
7.100000000000000000e+01,6.250265082868044608e+00
7.200000000000000000e+01,6.314559588192405037e+00
7.300000000000000000e+01,6.377880156421252167e+00
7.400000000000000000e+01,6.440243385279780242e+00
7.500000000000000000e+01,6.501671946725616991e+00
7.600000000000000000e+01,6.562181638487611046e+00
7.700000000000000000e+01,6.621794961675631974e+00
7.800000000000000000e+01,6.680526955902983843e+00
7.900000000000000000e+01,6.738400266351193935e+00
8.000000000000000000e+01,6.795429538013324944e+00
8.100000000000000000e+01,6.851636278613818298e+00
8.200000000000000000e+01,6.907035295328794788e+00
8.300000000000000000e+01,6.961646568848744110e+00
8.400000000000000000e+01,7.015486764176453782e+00
8.500000000000000000e+01,7.068569243858842555e+00
8.600000000000000000e+01,7.120914464878568495e+00
8.700000000000000000e+01,7.172536040238184363e+00
8.800000000000000000e+01,7.223447504453552881e+00
8.900000000000000000e+01,7.273667405532677321e+00
9.000000000000000000e+01,7.323205868763098536e+00
9.100000000000000000e+01,7.372079803578658996e+00
9.200000000000000000e+01,7.420302468657506090e+00
9.300000000000000000e+01,7.467883917141527661e+00
9.400000000000000000e+01,7.514840110421094010e+00
9.500000000000000000e+01,7.561182318091820065e+00
9.600000000000000000e+01,7.606920842377394187e+00
9.700000000000000000e+01,7.652070473413151497e+00
9.800000000000000000e+01,7.696640152259305978e+00
9.900000000000000000e+01,7.740642684375221627e+00
1.000000000000000000e+02,7.784088342194502630e+00
1.010000000000000000e+02,7.826987108709214880e+00
1.020000000000000000e+02,7.869351340971019404e+00
1.030000000000000000e+02,7.911188726108962399e+00
1.040000000000000000e+02,7.952512337119634012e+00
1.050000000000000000e+02,7.993328083691787711e+00
1.060000000000000000e+02,8.033647408971544834e+00
1.070000000000000000e+02,8.073478575906074539e+00
1.080000000000000000e+02,8.112831448945984292e+00
1.090000000000000000e+02,8.151713543813849938e+00
1.100000000000000000e+02,8.190133804966905018e+00
1.110000000000000000e+02,8.228099947549656790e+00
1.120000000000000000e+02,8.265620400199114925e+00
1.130000000000000000e+02,8.302701727752316074e+00
1.140000000000000000e+02,8.339352250030668046e+00
1.150000000000000000e+02,8.375577795503462042e+00
1.160000000000000000e+02,8.411386442166723043e+00
1.170000000000000000e+02,8.446785307065191262e+00
1.180000000000000000e+02,8.481779123754799699e+00
1.190000000000000000e+02,8.516376473925106438e+00
1.200000000000000000e+02,8.550582749547634975e+00
1.210000000000000000e+02,8.584403934683646042e+00
1.220000000000000000e+02,8.617846583581119546e+00
1.230000000000000000e+02,8.650917174675553767e+00
1.240000000000000000e+02,8.683619941851205226e+00
1.250000000000000000e+02,8.715961273928137132e+00
1.260000000000000000e+02,8.747946883224777537e+00
1.270000000000000000e+02,8.779582894772254065e+00
1.280000000000000000e+02,8.810873722117129603e+00
1.290000000000000000e+02,8.841823925691347341e+00
1.300000000000000000e+02,8.872438952155613734e+00
1.310000000000000000e+02,8.902722889882252133e+00
1.320000000000000000e+02,8.932681303302215881e+00
1.330000000000000000e+02,8.962318124524555785e+00
1.340000000000000000e+02,8.991637735075126869e+00
1.350000000000000000e+02,9.020644376834587419e+00
1.360000000000000000e+02,9.049342586341285966e+00
1.370000000000000000e+02,9.077735766041413967e+00
1.380000000000000000e+02,9.105827914525670863e+00
1.390000000000000000e+02,9.133623328418458698e+00
1.400000000000000000e+02,9.161125478544795087e+00
1.410000000000000000e+02,9.188338560647759223e+00
1.420000000000000000e+02,9.215266234359974717e+00
1.430000000000000000e+02,9.241911913814563562e+00
1.440000000000000000e+02,9.268279048015426014e+00
1.450000000000000000e+02,9.294370849597051176e+00
1.460000000000000000e+02,9.320191110705978943e+00
1.470000000000000000e+02,9.345743115684603808e+00
1.480000000000000000e+02,9.371030722117279055e+00
1.490000000000000000e+02,9.396056224854229200e+00
1.500000000000000000e+02,9.420823695434121348e+00
1.510000000000000000e+02,9.445336180942941695e+00
1.520000000000000000e+02,9.469595861855117036e+00
1.530000000000000000e+02,9.493607321645257002e+00
1.540000000000000000e+02,9.517372188638301367e+00
1.550000000000000000e+02,9.540893067984088205e+00
1.560000000000000000e+02,9.564174285902206307e+00
1.570000000000000000e+02,9.587216754612569503e+00
1.580000000000000000e+02,9.610024011883279371e+00
1.590000000000000000e+02,9.632597743889121489e+00
1.600000000000000000e+02,9.654941093922166928e+00
1.610000000000000000e+02,9.677054629242812567e+00
1.620000000000000000e+02,9.698941750846312715e+00
1.630000000000000000e+02,9.720604294208827767e+00
1.640000000000000000e+02,9.742043427963528401e+00
1.650000000000000000e+02,9.763260896751750906e+00
1.660000000000000000e+02,9.784258886679253919e+00
1.670000000000000000e+02,9.805037946315637853e+00
1.680000000000000000e+02,9.825598961427102651e+00
1.690000000000000000e+02,9.845943027150456217e+00
1.700000000000000000e+02,9.866072045037434179e+00
1.710000000000000000e+02,9.885986191624184016e+00
1.720000000000000000e+02,9.905685742584468656e+00
1.730000000000000000e+02,9.925171664727443499e+00
1.740000000000000000e+02,9.944444418719665890e+00
1.750000000000000000e+02,9.963504204667511743e+00
1.760000000000000000e+02,9.982351906726615098e+00
1.770000000000000000e+02,1.000098685647275865e+01
1.780000000000000000e+02,1.001940966005320632e+01
1.790000000000000000e+02,1.003762019946120354e+01
1.800000000000000000e+02,1.005561834006800837e+01
1.810000000000000000e+02,1.007340404599205996e+01
1.820000000000000000e+02,1.009097737809357476e+01
1.830000000000000000e+02,1.010833769011460248e+01
1.840000000000000000e+02,1.012548489637860527e+01
1.850000000000000000e+02,1.014241752744612235e+01
1.860000000000000000e+02,1.015913604183887742e+01
1.870000000000000000e+02,1.017563996768209122e+01
1.880000000000000000e+02,1.019192814289517024e+01
1.890000000000000000e+02,1.020799928734972006e+01
1.900000000000000000e+02,1.022385379589337973e+01
1.910000000000000000e+02,1.023949002769523631e+01
1.920000000000000000e+02,1.025490767615668553e+01
1.930000000000000000e+02,1.027010541768767382e+01
1.940000000000000000e+02,1.028508269675401543e+01
1.950000000000000000e+02,1.029983872107012033e+01
1.960000000000000000e+02,1.031437224444699829e+01
1.970000000000000000e+02,1.032868277958045056e+01
1.980000000000000000e+02,1.034276938330474316e+01
1.990000000000000000e+02,1.035663120798556136e+01
2.000000000000000000e+02,1.037026837049705286e+01
2.010000000000000000e+02,1.038367933357816675e+01
2.020000000000000000e+02,1.039686428376973737e+01
2.030000000000000000e+02,1.040982240854719798e+01
2.040000000000000000e+02,1.042255363258061251e+01
2.050000000000000000e+02,1.043505764086951615e+01
2.060000000000000000e+02,1.044733452484885383e+01
2.070000000000000000e+02,1.045938488440796021e+01
2.080000000000000000e+02,1.047120928820732466e+01
2.090000000000000000e+02,1.048280763494392609e+01
2.100000000000000000e+02,1.049418096768683739e+01
2.110000000000000000e+02,1.050533029477424130e+01
2.120000000000000000e+02,1.051625669628743864e+01
2.130000000000000000e+02,1.052696248554848246e+01
2.140000000000000000e+02,1.053744866696928106e+01
2.150000000000000000e+02,1.054771789568344964e+01
2.160000000000000000e+02,1.055777194165749222e+01
2.170000000000000000e+02,1.056761431940263840e+01
2.180000000000000000e+02,1.057724681980205084e+01
2.190000000000000000e+02,1.058667276448187700e+01
2.200000000000000000e+02,1.059589647173879712e+01
2.210000000000000000e+02,1.060492116745397340e+01
2.220000000000000000e+02,1.061375076216733149e+01
2.230000000000000000e+02,1.062238932784629064e+01
2.240000000000000000e+02,1.063084130503877489e+01
2.250000000000000000e+02,1.063911191499223996e+01
2.260000000000000000e+02,1.064720591598687172e+01
2.270000000000000000e+02,1.065512863947193800e+01
2.280000000000000000e+02,1.066288536958253985e+01
2.290000000000000000e+02,1.067048144785139208e+01
2.300000000000000000e+02,1.067792258231717284e+01
2.310000000000000000e+02,1.068521515408156297e+01
2.320000000000000000e+02,1.069236426890097036e+01
2.330000000000000000e+02,1.069937724390815426e+01
2.340000000000000000e+02,1.070625971389565123e+01
2.350000000000000000e+02,1.071301788756527529e+01
2.360000000000000000e+02,1.071965874897960802e+01
2.370000000000000000e+02,1.072618832448183923e+01
2.380000000000000000e+02,1.073261219795347898e+01
2.390000000000000000e+02,1.073893825519989242e+01
2.400000000000000000e+02,1.074517180503038638e+01
2.410000000000000000e+02,1.075131964614791258e+01
2.420000000000000000e+02,1.075738925032933224e+01
2.430000000000000000e+02,1.076338491997715430e+01
2.440000000000000000e+02,1.076931426625953314e+01
2.450000000000000000e+02,1.077518264636606204e+01
2.460000000000000000e+02,1.078099720506954640e+01
2.470000000000000000e+02,1.078676324387168428e+01
2.480000000000000000e+02,1.079248684439983208e+01
2.490000000000000000e+02,1.079817345919670579e+01
2.500000000000000000e+02,1.080382871773279341e+01
2.510000000000000000e+02,1.080945912709167445e+01
2.520000000000000000e+02,1.081506956566256505e+01
2.530000000000000000e+02,1.082066599117451489e+01
2.540000000000000000e+02,1.082625263878251864e+01
2.550000000000000000e+02,1.083183632019737175e+01
2.560000000000000000e+02,1.083742003167133916e+01
2.570000000000000000e+02,1.084300974409633689e+01
2.580000000000000000e+02,1.084861080696787283e+01
2.590000000000000000e+02,1.085422695786990488e+01
2.600000000000000000e+02,1.085986459872040832e+01
2.610000000000000000e+02,1.086552603931918881e+01
2.620000000000000000e+02,1.087121754147198871e+01
2.630000000000000000e+02,1.087694167928397171e+01
2.640000000000000000e+02,1.088270575973025700e+01
2.650000000000000000e+02,1.088851064016728287e+01
2.660000000000000000e+02,1.089436269650189715e+01
2.670000000000000000e+02,1.090026620703155302e+01
2.680000000000000000e+02,1.090622395376730935e+01
2.690000000000000000e+02,1.091224126079407775e+01
2.700000000000000000e+02,1.091832313210688632e+01
2.710000000000000000e+02,1.092447170252423660e+01
2.720000000000000000e+02,1.093069438526719495e+01
2.730000000000000000e+02,1.093699258717591860e+01
2.740000000000000000e+02,1.094337044218019805e+01
2.750000000000000000e+02,1.094983323288395205e+01
2.760000000000000000e+02,1.095638787062252284e+01
2.770000000000000000e+02,1.096303538508803754e+01
2.780000000000000000e+02,1.096978165979543718e+01
2.790000000000000000e+02,1.097663147508578341e+01
2.800000000000000000e+02,1.098358793176403125e+01
2.810000000000000000e+02,1.099065779089337624e+01
2.820000000000000000e+02,1.099784341633420759e+01
2.830000000000000000e+02,1.100515275773675938e+01
2.840000000000000000e+02,1.101259226612677722e+01
2.850000000000000000e+02,1.102016593836534852e+01
2.860000000000000000e+02,1.102787899037099351e+01
2.870000000000000000e+02,1.103573823186111724e+01
2.880000000000000000e+02,1.104374965389199836e+01
2.890000000000000000e+02,1.105192092472332632e+01
2.900000000000000000e+02,1.106025592090651877e+01
2.910000000000000000e+02,1.106876411750063127e+01
2.920000000000000000e+02,1.107744880924616737e+01
2.930000000000000000e+02,1.108632191951843105e+01
2.940000000000000000e+02,1.109538833433166083e+01
2.950000000000000000e+02,1.110465801267435282e+01
2.960000000000000000e+02,1.111413854956578717e+01
2.970000000000000000e+02,1.112383727395100053e+01
2.980000000000000000e+02,1.113376379763484714e+01
2.990000000000000000e+02,1.114392782333001186e+01
3.000000000000000000e+02,1.115433725782068741e+01
3.010000000000000000e+02,1.116500385894365088e+01
3.020000000000000000e+02,1.117593775825152314e+01
3.030000000000000000e+02,1.118714578778076962e+01
3.040000000000000000e+02,1.119863766919528203e+01
3.050000000000000000e+02,1.121042188127855255e+01
3.060000000000000000e+02,1.122250724796914589e+01
3.070000000000000000e+02,1.123490960699126084e+01
3.080000000000000000e+02,1.124762609421795645e+01
3.090000000000000000e+02,1.126066443033158926e+01
3.100000000000000000e+02,1.127403938922811655e+01
3.110000000000000000e+02,1.128774863630922098e+01
3.120000000000000000e+02,1.130178768649376586e+01
3.130000000000000000e+02,1.131616629564465626e+01
3.140000000000000000e+02,1.133087463412808660e+01
3.150000000000000000e+02,1.134590290898738907e+01
3.160000000000000000e+02,1.136123610901422687e+01
3.170000000000000000e+02,1.137685806118418341e+01
3.180000000000000000e+02,1.139274865904511280e+01
3.190000000000000000e+02,1.140887511306186042e+01
3.200000000000000000e+02,1.142519895697379795e+01
3.210000000000000000e+02,1.144168016705509139e+01
3.220000000000000000e+02,1.145826854947656415e+01
3.230000000000000000e+02,1.147491341144071697e+01
3.240000000000000000e+02,1.149155781572001622e+01
3.250000000000000000e+02,1.150814389043208585e+01
3.260000000000000000e+02,1.152461398767823475e+01
3.270000000000000000e+02,1.154092174788448588e+01
3.280000000000000000e+02,1.155701597959722093e+01
3.290000000000000000e+02,1.157286509801263996e+01
3.300000000000000000e+02,1.158844211126971757e+01
3.310000000000000000e+02,1.160373202356525901e+01
3.320000000000000000e+02,1.161872932679844794e+01
3.330000000000000000e+02,1.163343588410118379e+01
3.340000000000000000e+02,1.164786385565724203e+01
3.350000000000000000e+02,1.166202696723620846e+01
3.360000000000000000e+02,1.167594238567519049e+01
3.370000000000000000e+02,1.168962083247282813e+01
3.380000000000000000e+02,1.170307743332442030e+01
3.390000000000000000e+02,1.171632774944206368e+01
3.400000000000000000e+02,1.172938284268756171e+01
3.410000000000000000e+02,1.174225238601074395e+01
3.420000000000000000e+02,1.175494459690980165e+01
3.430000000000000000e+02,1.176746701638142412e+01
3.440000000000000000e+02,1.177982778353850257e+01
3.450000000000000000e+02,1.179203285320704175e+01
3.460000000000000000e+02,1.180408761638979875e+01
3.470000000000000000e+02,1.181599833263098986e+01
3.480000000000000000e+02,1.182776919387095127e+01
3.490000000000000000e+02,1.183940418333632927e+01
3.500000000000000000e+02,1.185090699505658662e+01
3.510000000000000000e+02,1.186228145336338358e+01
3.520000000000000000e+02,1.187353250874819288e+01
3.530000000000000000e+02,1.188466133826042537e+01
3.540000000000000000e+02,1.189567324008579163e+01
3.550000000000000000e+02,1.190656876076629089e+01
3.560000000000000000e+02,1.191735231110147986e+01
3.570000000000000000e+02,1.192802744193590314e+01
3.580000000000000000e+02,1.193859537413619520e+01
3.590000000000000000e+02,1.194905723317221202e+01
3.600000000000000000e+02,1.195941765127434131e+01
3.610000000000000000e+02,1.196967836461712054e+01
3.620000000000000000e+02,1.197983986987188487e+01
3.630000000000000000e+02,1.198990713486230852e+01
3.640000000000000000e+02,1.199987915591491294e+01
3.650000000000000000e+02,1.200975777290871527e+01
3.660000000000000000e+02,1.201954553925334501e+01
3.670000000000000000e+02,1.202924434112830809e+01
3.680000000000000000e+02,1.203885556467342788e+01
3.690000000000000000e+02,1.204838050337722954e+01
3.700000000000000000e+02,1.205781971485604309e+01
3.710000000000000000e+02,1.206717350904516017e+01
3.720000000000000000e+02,1.207644572265676253e+01
3.730000000000000000e+02,1.208563960506028501e+01
3.740000000000000000e+02,1.209475310179412944e+01
3.750000000000000000e+02,1.210378848296129739e+01
3.760000000000000000e+02,1.211274568880600455e+01
3.770000000000000000e+02,1.212162641013450148e+01
3.780000000000000000e+02,1.213043200721641846e+01
3.790000000000000000e+02,1.213916470392346625e+01
3.800000000000000000e+02,1.214782385342156878e+01
3.810000000000000000e+02,1.215640976091983916e+01
3.820000000000000000e+02,1.216492612910979076e+01
3.830000000000000000e+02,1.217337221433687233e+01
3.840000000000000000e+02,1.218174782725162153e+01
3.850000000000000000e+02,1.219005577102748461e+01
3.860000000000000000e+02,1.219829662888288091e+01
3.870000000000000000e+02,1.220646932917260941e+01
3.880000000000000000e+02,1.221457657021314169e+01
3.890000000000000000e+02,1.222261891855649019e+01
3.900000000000000000e+02,1.223059584046711024e+01
3.910000000000000000e+02,1.223850985125592672e+01
3.920000000000000000e+02,1.224635986108994246e+01
3.930000000000000000e+02,1.225414836997641288e+01
3.940000000000000000e+02,1.226187474937015587e+01
3.950000000000000000e+02,1.226954062733690520e+01
3.960000000000000000e+02,1.227714575837223521e+01
3.970000000000000000e+02,1.228469129289151773e+01
3.980000000000000000e+02,1.229217790934567844e+01
