# Time [s], Convective Heat Transfer Coefficient [W/m2K]
1.000000000000000000e+00,0.000000000000000000e+00
2.000000000000000000e+00,0.000000000000000000e+00
3.000000000000000000e+00,0.000000000000000000e+00
4.000000000000000000e+00,0.000000000000000000e+00
5.000000000000000000e+00,3.040000000141642594e-02
6.000000000000000000e+00,5.446232763987680220e-02
7.000000000000000000e+00,8.918545748856174238e-02
8.000000000000000000e+00,1.360452260199130903e-01
9.000000000000000000e+00,1.956011503173640809e-01
1.000000000000000000e+01,2.678830195632073696e-01
1.100000000000000000e+01,3.524406245159968365e-01
1.200000000000000000e+01,4.483337640361346188e-01
1.300000000000000000e+01,5.543237296231170452e-01
1.400000000000000000e+01,6.690459150765692975e-01
1.500000000000000000e+01,7.911207429699798066e-01
1.600000000000000000e+01,9.192439392893304584e-01
1.700000000000000000e+01,1.052210308987537646e+00
1.800000000000000000e+01,1.188949982013001616e+00
1.900000000000000000e+01,1.328518718733562975e+00
2.000000000000000000e+01,1.470102710291089743e+00
2.100000000000000000e+01,1.613001260695103412e+00
2.200000000000000000e+01,1.756619985359462843e+00
2.300000000000000000e+01,1.900451920234338843e+00
2.400000000000000000e+01,2.044059474430567125e+00
2.500000000000000000e+01,2.187073097757086249e+00
2.600000000000000000e+01,2.329161058674308116e+00
2.700000000000000000e+01,2.470059359520194509e+00
2.800000000000000000e+01,2.609535455818915217e+00
2.900000000000000000e+01,2.747390358131355903e+00
3.000000000000000000e+01,2.883464600502966046e+00
3.100000000000000000e+01,3.017633456962149907e+00
3.200000000000000000e+01,3.149790676803160050e+00
3.300000000000000000e+01,3.279857045461056497e+00
3.400000000000000000e+01,3.407789752758072499e+00
3.500000000000000000e+01,3.533548247954972243e+00
3.600000000000000000e+01,3.657117075269212148e+00
3.700000000000000000e+01,3.778502713430011095e+00
3.800000000000000000e+01,3.897712535734467743e+00
3.900000000000000000e+01,4.014761777990218050e+00
4.000000000000000000e+01,4.129684549632576029e+00
4.100000000000000000e+01,4.242517613781661368e+00
4.200000000000000000e+01,4.353293123328414893e+00
4.300000000000000000e+01,4.462053961339455199e+00
4.400000000000000000e+01,4.568840340780774056e+00
4.500000000000000000e+01,4.673701526845666976e+00
4.600000000000000000e+01,4.776683941448981230e+00
4.700000000000000000e+01,4.877830881728721479e+00
4.800000000000000000e+01,4.977188262101408078e+00
4.900000000000000000e+01,5.074804359838876344e+00
5.000000000000000000e+01,5.170726234032187563e+00
5.100000000000000000e+01,5.264993813131836120e+00
5.200000000000000000e+01,5.357657291897402807e+00
5.300000000000000000e+01,5.448754780268188824e+00
5.400000000000000000e+01,5.538331641123662941e+00
5.500000000000000000e+01,5.626427288256372172e+00
5.600000000000000000e+01,5.713081103007488615e+00
5.700000000000000000e+01,5.798330922310105606e+00
5.800000000000000000e+01,5.882214369613699034e+00
5.900000000000000000e+01,5.964767017326538578e+00
6.000000000000000000e+01,6.046026747698082460e+00
6.100000000000000000e+01,6.126278801768162197e+00
6.200000000000000000e+01,6.205148568243226137e+00
6.300000000000000000e+01,6.282783757558758175e+00
6.400000000000000000e+01,6.359235394522203322e+00
6.500000000000000000e+01,6.434543199179562301e+00
6.600000000000000000e+01,6.508738268094736767e+00
6.700000000000000000e+01,6.581850041792430162e+00
6.800000000000000000e+01,6.653910490214433260e+00
6.900000000000000000e+01,6.724950422156250163e+00
7.000000000000000000e+01,6.794994506449484106e+00
7.100000000000000000e+01,6.864068571209278602e+00
7.200000000000000000e+01,6.932193376141541741e+00
7.300000000000000000e+01,6.999393200616517596e+00
7.400000000000000000e+01,7.065687756386695995e+00
7.500000000000000000e+01,7.131095811918584992e+00
7.600000000000000000e+01,7.195636390704399865e+00
7.700000000000000000e+01,7.259328734190153121e+00
7.800000000000000000e+01,7.322185283802804534e+00
7.900000000000000000e+01,7.384223617622241775e+00
8.000000000000000000e+01,7.445458624819679905e+00
8.100000000000000000e+01,7.505904375040708842e+00
8.200000000000000000e+01,7.565574378154384050e+00
8.300000000000000000e+01,7.624484639365188166e+00
8.400000000000000000e+01,7.682645530111417820e+00
8.500000000000000000e+01,7.740069038725220452e+00
8.600000000000000000e+01,7.796770570935116496e+00
8.700000000000000000e+01,7.852758640244529076e+00
8.800000000000000000e+01,7.908044517817438113e+00
8.900000000000000000e+01,7.962642037216154378e+00
9.000000000000000000e+01,8.016559039660490882e+00
9.100000000000000000e+01,8.069805676034174979e+00
9.200000000000000000e+01,8.122394429990244191e+00
9.300000000000000000e+01,8.174331733412328660e+00
9.400000000000000000e+01,8.225626819511175469e+00
9.500000000000000000e+01,8.276290863579154333e+00
9.600000000000000000e+01,8.326329097393934120e+00
9.700000000000000000e+01,8.375749501881271541e+00
9.800000000000000000e+01,8.424561159601896776e+00
9.900000000000000000e+01,8.472769135439630617e+00
1.000000000000000000e+02,8.520380504754664130e+00
1.010000000000000000e+02,8.567403283136433956e+00
1.020000000000000000e+02,8.613840694758065908e+00
1.030000000000000000e+02,8.659697981190062066e+00
1.040000000000000000e+02,8.704981674979675788e+00
1.050000000000000000e+02,8.749694027196953883e+00
1.060000000000000000e+02,8.793839578752660202e+00
1.070000000000000000e+02,8.837421446646450462e+00
1.080000000000000000e+02,8.880443914306859199e+00
1.090000000000000000e+02,8.922907962610063137e+00
1.100000000000000000e+02,8.964816374500333751e+00
1.110000000000000000e+02,9.006171050535339617e+00
1.120000000000000000e+02,9.046978051819335676e+00
1.130000000000000000e+02,9.087233520769306239e+00
1.140000000000000000e+02,9.126948844829756879e+00
1.150000000000000000e+02,9.166136344776326439e+00
1.160000000000000000e+02,9.204801365327600848e+00
1.170000000000000000e+02,9.242938594479847225e+00
1.180000000000000000e+02,9.280531543592291044e+00
1.190000000000000000e+02,9.317562286606859701e+00
1.200000000000000000e+02,9.354014976517092350e+00
1.210000000000000000e+02,9.389876542596438114e+00
1.220000000000000000e+02,9.425137094843167418e+00
1.230000000000000000e+02,9.459782726963792854e+00
1.240000000000000000e+02,9.493800321490610372e+00
1.250000000000000000e+02,9.527176858614414101e+00
1.260000000000000000e+02,9.559894014779453997e+00
1.270000000000000000e+02,9.591935445742896249e+00
1.280000000000000000e+02,9.623283030722635800e+00
1.290000000000000000e+02,9.653914392420924528e+00
1.300000000000000000e+02,9.683808618307683247e+00
1.310000000000000000e+02,9.712943452989703630e+00
1.320000000000000000e+02,9.741295550760373345e+00
1.330000000000000000e+02,9.768843413948362198e+00
1.340000000000000000e+02,9.795564009364262859e+00
1.350000000000000000e+02,9.821436532976138167e+00
1.360000000000000000e+02,9.846441225312574375e+00
1.370000000000000000e+02,9.870563632423229095e+00
1.380000000000000000e+02,9.893790616500634627e+00
1.390000000000000000e+02,9.916113867879895238e+00
1.400000000000000000e+02,9.937531551178825140e+00
1.410000000000000000e+02,9.958045319159655406e+00
1.420000000000000000e+02,9.977663645761166933e+00
1.430000000000000000e+02,9.996404742015974065e+00
1.440000000000000000e+02,1.001428798782876584e+01
1.450000000000000000e+02,1.003134405873456636e+01
1.460000000000000000e+02,1.004760908918440343e+01
1.470000000000000000e+02,1.006312243636432591e+01
1.480000000000000000e+02,1.007793152415037419e+01
1.490000000000000000e+02,1.009208592107639646e+01
1.500000000000000000e+02,1.010563897594544613e+01
1.510000000000000000e+02,1.011927809553181845e+01
1.520000000000000000e+02,1.013226097807806525e+01
1.530000000000000000e+02,1.014475629001253054e+01
1.540000000000000000e+02,1.015677689084922442e+01
1.550000000000000000e+02,1.016834943079991049e+01
1.560000000000000000e+02,1.017955917171019919e+01
1.570000000000000000e+02,1.019049831936916739e+01
1.580000000000000000e+02,1.020124417883203982e+01
1.590000000000000000e+02,1.021186047033099520e+01
1.600000000000000000e+02,1.022239771516318108e+01
1.610000000000000000e+02,1.023289953064661439e+01
1.620000000000000000e+02,1.024340203579466646e+01
1.630000000000000000e+02,1.025394016334603187e+01
1.640000000000000000e+02,1.026454033707093494e+01
1.650000000000000000e+02,1.027523042368126127e+01
1.660000000000000000e+02,1.028603163649835395e+01
1.670000000000000000e+02,1.029696919880247208e+01
1.680000000000000000e+02,1.030806557494636699e+01
1.690000000000000000e+02,1.031933389695490888e+01
1.700000000000000000e+02,1.033079868059008533e+01
1.710000000000000000e+02,1.034247522748652592e+01
1.720000000000000000e+02,1.035438325939892579e+01
1.730000000000000000e+02,1.036653662011820032e+01
1.740000000000000000e+02,1.037895572408189615e+01
1.750000000000000000e+02,1.039165782100893232e+01
1.760000000000000000e+02,1.040466188972666473e+01
1.770000000000000000e+02,1.041798612495832010e+01
1.780000000000000000e+02,1.043165019438472463e+01
1.790000000000000000e+02,1.044568003425555780e+01
1.800000000000000000e+02,1.046008827687673737e+01
1.810000000000000000e+02,1.047490429073396889e+01
1.820000000000000000e+02,1.049014829058754650e+01
1.830000000000000000e+02,1.050584884244360495e+01
1.840000000000000000e+02,1.052203922766019595e+01
1.850000000000000000e+02,1.053874406049343371e+01
1.860000000000000000e+02,1.055599095105839780e+01
1.870000000000000000e+02,1.057381660529345524e+01
1.880000000000000000e+02,1.059226214864308524e+01
1.890000000000000000e+02,1.061700246447631990e+01
1.900000000000000000e+02,1.063735371468334279e+01
1.910000000000000000e+02,1.065748866990629296e+01
1.920000000000000000e+02,1.067844359804016285e+01
1.930000000000000000e+02,1.070029798781284569e+01
1.940000000000000000e+02,1.072308080415415432e+01
1.950000000000000000e+02,1.074679851784476092e+01
1.960000000000000000e+02,1.077145180588262896e+01
1.970000000000000000e+02,1.079704922755433216e+01
1.980000000000000000e+02,1.082359693238171872e+01
1.990000000000000000e+02,1.085105038240201125e+01
2.000000000000000000e+02,1.087939883065294389e+01
2.010000000000000000e+02,1.090857211883201217e+01
2.020000000000000000e+02,1.093849612653063730e+01
2.030000000000000000e+02,1.096905786553828577e+01
2.040000000000000000e+02,1.100011780608775425e+01
2.050000000000000000e+02,1.103151403582431023e+01
2.060000000000000000e+02,1.106307249462526165e+01
2.070000000000000000e+02,1.109460332955443107e+01
2.080000000000000000e+02,1.112592767959275086e+01
2.090000000000000000e+02,1.115687547905091748e+01
2.100000000000000000e+02,1.118732593194724423e+01
2.110000000000000000e+02,1.121717920391348855e+01
2.120000000000000000e+02,1.124636799307001844e+01
2.130000000000000000e+02,1.127486673735177547e+01
2.140000000000000000e+02,1.130266357451925785e+01
2.150000000000000000e+02,1.132977493951370285e+01
2.160000000000000000e+02,1.135622365042598680e+01
2.170000000000000000e+02,1.138204049546758512e+01
2.180000000000000000e+02,1.140726443774088317e+01
2.190000000000000000e+02,1.143193315126145926e+01
2.200000000000000000e+02,1.145608557865754662e+01
2.210000000000000000e+02,1.147975553942241156e+01
2.220000000000000000e+02,1.150298115112591191e+01
2.230000000000000000e+02,1.152579084484767158e+01
2.240000000000000000e+02,1.154821016032022030e+01
2.250000000000000000e+02,1.157025928176674512e+01
2.260000000000000000e+02,1.159195672375566311e+01
2.270000000000000000e+02,1.161332110816357677e+01
2.280000000000000000e+02,1.163436779844705526e+01
2.290000000000000000e+02,1.165510905231997896e+01
2.300000000000000000e+02,1.167555975037189242e+01
2.310000000000000000e+02,1.169572914059004454e+01
2.320000000000000000e+02,1.171562742161126991e+01
2.330000000000000000e+02,1.173526819531367238e+01
2.340000000000000000e+02,1.175465553688336939e+01
2.350000000000000000e+02,1.177380180348148286e+01
2.360000000000000000e+02,1.179271361397483808e+01
2.370000000000000000e+02,1.181139706211462403e+01
2.380000000000000000e+02,1.182986149086076999e+01
2.390000000000000000e+02,1.184810835337481549e+01
2.400000000000000000e+02,1.186614854480635728e+01
2.410000000000000000e+02,1.188398933066036278e+01
2.420000000000000000e+02,1.190163167644770148e+01
2.430000000000000000e+02,1.191908237208559207e+01
2.440000000000000000e+02,1.193634844307396392e+01
2.450000000000000000e+02,1.195343215132867876e+01
2.460000000000000000e+02,1.197033759975016309e+01
2.470000000000000000e+02,1.198707005528207858e+01
2.480000000000000000e+02,1.200363203414160829e+01
2.490000000000000000e+02,1.202002820177232678e+01
2.500000000000000000e+02,1.203626292030729061e+01
2.510000000000000000e+02,1.205233985067399161e+01
2.520000000000000000e+02,1.206826123937159068e+01
2.530000000000000000e+02,1.208403050293580350e+01
2.540000000000000000e+02,1.209965197338563847e+01
2.550000000000000000e+02,1.211512793628818230e+01
2.560000000000000000e+02,1.213046112357212003e+01
2.570000000000000000e+02,1.214565201032026209e+01
2.580000000000000000e+02,1.216070541324417675e+01
2.590000000000000000e+02,1.217562530492901551e+01
2.600000000000000000e+02,1.219041057123520666e+01
2.610000000000000000e+02,1.220506418867192977e+01
2.620000000000000000e+02,1.221959082365653337e+01
2.630000000000000000e+02,1.223398993047761785e+01
2.640000000000000000e+02,1.224826611271866561e+01
2.650000000000000000e+02,1.226241979960470019e+01
2.660000000000000000e+02,1.227645078967295866e+01
2.670000000000000000e+02,1.229036515509613992e+01
2.680000000000000000e+02,1.230416117595079939e+01
2.690000000000000000e+02,1.231784069168193518e+01
2.700000000000000000e+02,1.233140859976704817e+01
2.710000000000000000e+02,1.234486421956608737e+01
2.720000000000000000e+02,1.235821009108033053e+01
2.730000000000000000e+02,1.237144643355460261e+01
2.740000000000000000e+02,1.238457574971683961e+01
2.750000000000000000e+02,1.239759830829204645e+01
2.760000000000000000e+02,1.241051703176813348e+01
2.770000000000000000e+02,1.242333064289889322e+01
2.780000000000000000e+02,1.243604263956213529e+01
2.790000000000000000e+02,1.244865437225874238e+01
2.800000000000000000e+02,1.246116566922028923e+01
2.810000000000000000e+02,1.247357936589119909e+01
2.820000000000000000e+02,1.248589504293683561e+01
2.830000000000000000e+02,1.249811415441253715e+01
2.840000000000000000e+02,1.251023828923169390e+01
2.850000000000000000e+02,1.252226924469595204e+01
2.860000000000000000e+02,1.253420656586251525e+01
2.870000000000000000e+02,1.254605269851279914e+01
2.880000000000000000e+02,1.255780717196416951e+01
2.890000000000000000e+02,1.256947099788335542e+01
2.900000000000000000e+02,1.258104547327504541e+01
2.910000000000000000e+02,1.259253151359529710e+01
2.920000000000000000e+02,1.260393142485874129e+01
2.930000000000000000e+02,1.261524528702460302e+01
2.940000000000000000e+02,1.262647383762807607e+01
2.950000000000000000e+02,1.263761758642896638e+01
2.960000000000000000e+02,1.264867564679138567e+01
2.970000000000000000e+02,1.265965246759070517e+01
2.980000000000000000e+02,1.267054663119956004e+01
2.990000000000000000e+02,1.268135942053244314e+01
3.000000000000000000e+02,1.269209079930738504e+01
3.010000000000000000e+02,1.270274392109722861e+01
3.020000000000000000e+02,1.271331728083701229e+01
3.030000000000000000e+02,1.272381169495502995e+01
3.040000000000000000e+02,1.273422941595947044e+01
3.050000000000000000e+02,1.274457022904716652e+01
3.060000000000000000e+02,1.275483370277981976e+01
3.070000000000000000e+02,1.276502199253856951e+01
3.080000000000000000e+02,1.277513444052529579e+01
3.090000000000000000e+02,1.278517368522366482e+01
3.100000000000000000e+02,1.279513869994428354e+01
3.110000000000000000e+02,1.280503153221612145e+01
3.120000000000000000e+02,1.281485172009637985e+01
3.130000000000000000e+02,1.282459994131324343e+01
3.140000000000000000e+02,1.283427828888776112e+01
3.150000000000000000e+02,1.284388614490066161e+01
3.160000000000000000e+02,1.285342438125542230e+01
3.170000000000000000e+02,1.286289230635652991e+01
3.180000000000000000e+02,1.287229149157138153e+01
3.190000000000000000e+02,1.288162321513780739e+01
3.200000000000000000e+02,1.289088642153572017e+01
3.210000000000000000e+02,1.290008308434359563e+01
3.220000000000000000e+02,1.290921340811716433e+01
3.230000000000000000e+02,1.291827829606815392e+01
3.240000000000000000e+02,1.292727696358407030e+01
3.250000000000000000e+02,1.293621149678555149e+01
3.260000000000000000e+02,1.294508166348669143e+01
3.270000000000000000e+02,1.295388813811060658e+01
3.280000000000000000e+02,1.296263165955313745e+01
3.290000000000000000e+02,1.297131289165847257e+01
3.300000000000000000e+02,1.297993124260243825e+01
3.310000000000000000e+02,1.298848771817363001e+01
3.320000000000000000e+02,1.299698297091721244e+01
3.330000000000000000e+02,1.300541737171431045e+01
3.340000000000000000e+02,1.301379142636193365e+01
3.350000000000000000e+02,1.302210591280067575e+01
3.360000000000000000e+02,1.303036091421191500e+01
3.370000000000000000e+02,1.303855678744617919e+01
3.380000000000000000e+02,1.304669443640469062e+01
3.390000000000000000e+02,1.305477462181501380e+01
3.400000000000000000e+02,1.306279707035156434e+01
3.410000000000000000e+02,1.307076205691634030e+01
3.420000000000000000e+02,1.307866964850653524e+01
3.430000000000000000e+02,1.308652223456026498e+01
3.440000000000000000e+02,1.309431918790487082e+01
3.450000000000000000e+02,1.310206063328961967e+01
3.460000000000000000e+02,1.310974805592979031e+01
3.470000000000000000e+02,1.311738041575631719e+01
3.480000000000000000e+02,1.312495783160543183e+01
3.490000000000000000e+02,1.313248299989287915e+01
3.500000000000000000e+02,1.313995446788948662e+01
3.510000000000000000e+02,1.314737282005016361e+01
3.520000000000000000e+02,1.315473863710538005e+01
3.530000000000000000e+02,1.316205371240467592e+01
3.540000000000000000e+02,1.316931611800475643e+01
3.550000000000000000e+02,1.317652784394599230e+01
3.560000000000000000e+02,1.318368844596541045e+01
3.570000000000000000e+02,1.319079855716250016e+01
3.580000000000000000e+02,1.319785800045892721e+01
3.590000000000000000e+02,1.320486847829255161e+01
3.600000000000000000e+02,1.321182974010601185e+01
3.610000000000000000e+02,1.321874120050189028e+01
3.620000000000000000e+02,1.322560461789848674e+01
3.630000000000000000e+02,1.323241926889186182e+01
3.640000000000000000e+02,1.323918690323464986e+01
3.650000000000000000e+02,1.324590659391902925e+01
3.660000000000000000e+02,1.325257954965845286e+01
3.670000000000000000e+02,1.325920517565625900e+01
3.680000000000000000e+02,1.326578514026427946e+01
3.690000000000000000e+02,1.327231811400103112e+01
3.700000000000000000e+02,1.327880569285715850e+01
3.710000000000000000e+02,1.328524774135162012e+01
3.720000000000000000e+02,1.329164472006528719e+01
3.730000000000000000e+02,1.329799668983153182e+01
3.740000000000000000e+02,1.330430470247291552e+01
3.750000000000000000e+02,1.331056841755493458e+01
3.760000000000000000e+02,1.331678795723343178e+01
3.770000000000000000e+02,1.332296390408774833e+01
3.780000000000000000e+02,1.332909749667317278e+01
3.790000000000000000e+02,1.333518766429498292e+01
3.800000000000000000e+02,1.334123537826216754e+01
3.810000000000000000e+02,1.334724114568472686e+01
3.820000000000000000e+02,1.335320461769856415e+01
3.830000000000000000e+02,1.335912669224312310e+01
3.840000000000000000e+02,1.336500714930664735e+01
3.850000000000000000e+02,1.337084727495541081e+01
3.860000000000000000e+02,1.337664599497191809e+01
3.870000000000000000e+02,1.338240452595223573e+01
3.880000000000000000e+02,1.338812349188458484e+01
3.890000000000000000e+02,1.339380168691741524e+01
3.900000000000000000e+02,1.339944090776455887e+01
3.910000000000000000e+02,1.340504072959132742e+01
3.920000000000000000e+02,1.341060131418339374e+01
3.930000000000000000e+02,1.341612314736325828e+01
3.940000000000000000e+02,1.342160716764036366e+01
3.950000000000000000e+02,1.342705262169688041e+01
3.960000000000000000e+02,1.343246038003108112e+01
3.970000000000000000e+02,1.343783053185546095e+01
3.980000000000000000e+02,1.344316284166408693e+01
