# Time [s], Convective Heat Transfer Coefficient [W/m2K]
1.000000000000000000e+00,0.000000000000000000e+00
2.000000000000000000e+00,0.000000000000000000e+00
3.000000000000000000e+00,0.000000000000000000e+00
4.000000000000000000e+00,0.000000000000000000e+00
5.000000000000000000e+00,0.000000000000000000e+00
6.000000000000000000e+00,2.412849599104084641e-02
7.000000000000000000e+00,4.193564748117330210e-02
8.000000000000000000e+00,6.603611858342180174e-02
9.000000000000000000e+00,9.884494996052221871e-02
1.000000000000000000e+01,1.408097186817782731e-01
1.100000000000000000e+01,1.923342972364132653e-01
1.200000000000000000e+01,2.533947939768209645e-01
1.300000000000000000e+01,3.236639629338021740e-01
1.400000000000000000e+01,4.026078114837982613e-01
1.500000000000000000e+01,4.894681063550282984e-01
1.600000000000000000e+01,5.834183853618480908e-01
1.700000000000000000e+01,6.836044461944087436e-01
1.800000000000000000e+01,7.891726513483938721e-01
1.900000000000000000e+01,8.993168026232579715e-01
2.000000000000000000e+01,1.019362986058888643e+00
2.100000000000000000e+01,1.139152674069182858e+00
2.200000000000000000e+01,1.260573917714941761e+00
2.300000000000000000e+01,1.383547439187363670e+00
2.400000000000000000e+01,1.507687331273657172e+00
2.500000000000000000e+01,1.632630551166879274e+00
2.600000000000000000e+01,1.758041821198507382e+00
2.700000000000000000e+01,1.883630144666744943e+00
2.800000000000000000e+01,2.009135189105761388e+00
2.900000000000000000e+01,2.134337447695422441e+00
3.000000000000000000e+01,2.259047775216290965e+00
3.100000000000000000e+01,2.383103935421907238e+00
3.200000000000000000e+01,2.506375194920808624e+00
3.300000000000000000e+01,2.628745317925818448e+00
3.400000000000000000e+01,2.750123176765746358e+00
3.500000000000000000e+01,2.870428321675690508e+00
3.600000000000000000e+01,2.989597055223093047e+00
3.700000000000000000e+01,3.107576771611786359e+00
3.800000000000000000e+01,3.224325566828508904e+00
3.900000000000000000e+01,3.339813189900690205e+00
4.000000000000000000e+01,3.454013450075798630e+00
4.100000000000000000e+01,3.566909568181308110e+00
4.200000000000000000e+01,3.678490838546276009e+00
4.300000000000000000e+01,3.788751323571509122e+00
4.400000000000000000e+01,3.897689650840917786e+00
4.500000000000000000e+01,4.005306108782057173e+00
4.600000000000000000e+01,4.111609789474472088e+00
4.700000000000000000e+01,4.216606623819145305e+00
4.800000000000000000e+01,4.320308184360514225e+00
4.900000000000000000e+01,4.422726495606418062e+00
5.000000000000000000e+01,4.523876138665521296e+00
5.100000000000000000e+01,4.623773688959427197e+00
5.200000000000000000e+01,4.722432408232510426e+00
5.300000000000000000e+01,4.819872170381015231e+00
5.400000000000000000e+01,4.916109764527146098e+00
5.500000000000000000e+01,5.011163067882137945e+00
5.600000000000000000e+01,5.105050195915212363e+00
5.700000000000000000e+01,5.197790398518740140e+00
5.800000000000000000e+01,5.289402562322769619e+00
5.900000000000000000e+01,5.379903371298397019e+00
6.000000000000000000e+01,5.469313895648203250e+00
6.100000000000000000e+01,5.557650657907167613e+00
6.200000000000000000e+01,5.644945857962658131e+00
6.300000000000000000e+01,5.731195988745242609e+00
6.400000000000000000e+01,5.816425044893471785e+00
6.500000000000000000e+01,5.900652978772583879e+00
6.600000000000000000e+01,5.983896526512035408e+00
6.700000000000000000e+01,6.066175317645038589e+00
6.800000000000000000e+01,6.147509563360423535e+00
6.900000000000000000e+01,6.227917378383240887e+00
7.000000000000000000e+01,6.307420600772395858e+00
7.100000000000000000e+01,6.386035926615690528e+00
7.200000000000000000e+01,6.463781131284819459e+00
7.300000000000000000e+01,6.540672296468050817e+00
7.400000000000000000e+01,6.616724307628329527e+00
7.500000000000000000e+01,6.691951549097826302e+00
7.600000000000000000e+01,6.766366516122586106e+00
7.700000000000000000e+01,6.839980483894932739e+00
7.800000000000000000e+01,6.912806544007162657e+00
7.900000000000000000e+01,6.984854590662052054e+00
8.000000000000000000e+01,7.056135377414028298e+00
8.100000000000000000e+01,7.126659946849780880e+00
8.200000000000000000e+01,7.196439353799338079e+00
8.300000000000000000e+01,7.265482203700504904e+00
8.400000000000000000e+01,7.333799648387758552e+00
8.500000000000000000e+01,7.401402999073144251e+00
8.600000000000000000e+01,7.468300337394049748e+00
8.700000000000000000e+01,7.534501937728752985e+00
8.800000000000000000e+01,7.600017631959093301e+00
8.900000000000000000e+01,7.664857231908759339e+00
9.000000000000000000e+01,7.729029930702409956e+00
9.100000000000000000e+01,7.792544919846536189e+00
9.200000000000000000e+01,7.855411378587039195e+00
9.300000000000000000e+01,7.917637718005408054e+00
9.400000000000000000e+01,7.979233285671681664e+00
9.500000000000000000e+01,8.040206475368727013e+00
9.600000000000000000e+01,8.100566038977063954e+00
9.700000000000000000e+01,8.160319646635249669e+00
9.800000000000000000e+01,8.219476556698685599e+00
9.900000000000000000e+01,8.278043055773119718e+00
1.000000000000000000e+02,8.336027713088016711e+00
1.010000000000000000e+02,8.393437064795223890e+00
1.020000000000000000e+02,8.450279516053743833e+00
1.030000000000000000e+02,8.506560844856272396e+00
1.040000000000000000e+02,8.562288520038570994e+00
1.050000000000000000e+02,8.617469854732307866e+00
1.060000000000000000e+02,8.672109366457943835e+00
1.070000000000000000e+02,8.726214327166372797e+00
1.080000000000000000e+02,8.779790491253171680e+00
1.090000000000000000e+02,8.832853436748344222e+00
1.100000000000000000e+02,8.885397142649498647e+00
1.110000000000000000e+02,8.937438916065721273e+00
1.120000000000000000e+02,8.988998637649251222e+00
1.130000000000000000e+02,9.040090311134736822e+00
1.140000000000000000e+02,9.090720410130806783e+00
1.150000000000000000e+02,9.140886750578596676e+00
1.160000000000000000e+02,9.190584361319894313e+00
1.170000000000000000e+02,9.239810152280840683e+00
1.180000000000000000e+02,9.288561453248886934e+00
1.190000000000000000e+02,9.336836658448792292e+00
1.200000000000000000e+02,9.384634369985464630e+00
1.210000000000000000e+02,9.431952461882024963e+00
1.220000000000000000e+02,9.478789023650751489e+00
1.230000000000000000e+02,9.525140022735529399e+00
1.240000000000000000e+02,9.571000679291817193e+00
1.250000000000000000e+02,9.616363723404097286e+00
1.260000000000000000e+02,9.661220131267329592e+00
1.270000000000000000e+02,9.705558327364881777e+00
1.280000000000000000e+02,9.749364412800778368e+00
1.290000000000000000e+02,9.792621523979423870e+00
1.300000000000000000e+02,9.835310431572356293e+00
1.310000000000000000e+02,9.877409384684563420e+00
1.320000000000000000e+02,9.918893482822653596e+00
1.330000000000000000e+02,9.959735372050124269e+00
1.340000000000000000e+02,9.999904496666578879e+00
1.350000000000000000e+02,1.003937009687047777e+01
1.360000000000000000e+02,1.007809898955395944e+01
1.370000000000000000e+02,1.011606019473421725e+01
1.380000000000000000e+02,1.015322446888212760e+01
1.390000000000000000e+02,1.018956566347717185e+01
1.400000000000000000e+02,1.022506762618126608e+01
1.410000000000000000e+02,1.025972304254676537e+01
1.420000000000000000e+02,1.029353941392437477e+01
1.430000000000000000e+02,1.032653889716713991e+01
1.440000000000000000e+02,1.035968549167019859e+01
1.450000000000000000e+02,1.039190497313545514e+01
1.460000000000000000e+02,1.042337276660451906e+01
1.470000000000000000e+02,1.045416993938772343e+01
1.480000000000000000e+02,1.048445362419240112e+01
1.490000000000000000e+02,1.051442158785048520e+01
1.500000000000000000e+02,1.054425938398305718e+01
1.510000000000000000e+02,1.057414859801927953e+01
1.520000000000000000e+02,1.060426808821235767e+01
1.530000000000000000e+02,1.063478229070514303e+01
1.540000000000000000e+02,1.066584716279647971e+01
1.550000000000000000e+02,1.069759972416515303e+01
1.560000000000000000e+02,1.073016502897490554e+01
1.570000000000000000e+02,1.076364429441255410e+01
1.580000000000000000e+02,1.079812727763672342e+01
1.590000000000000000e+02,1.083367658720213456e+01
1.600000000000000000e+02,1.087034177258237300e+01
1.610000000000000000e+02,1.090814762498953350e+01
1.620000000000000000e+02,1.094710333288389670e+01
1.630000000000000000e+02,1.098719231421429932e+01
1.640000000000000000e+02,1.102837834126028760e+01
1.650000000000000000e+02,1.107060287607369098e+01
1.660000000000000000e+02,1.111378600452310650e+01
1.670000000000000000e+02,1.115783218578313551e+01
1.680000000000000000e+02,1.120262747669877967e+01
1.690000000000000000e+02,1.124804006316385063e+01
1.700000000000000000e+02,1.129392702768330103e+01
1.710000000000000000e+02,1.134015025949683952e+01
1.720000000000000000e+02,1.138971669776041651e+01
1.730000000000000000e+02,1.143695402950890205e+01
1.740000000000000000e+02,1.148326872057195303e+01
1.750000000000000000e+02,1.152939861645328179e+01
1.760000000000000000e+02,1.157510839272731928e+01
1.770000000000000000e+02,1.162040129059232996e+01
1.780000000000000000e+02,1.166514658358271994e+01
1.790000000000000000e+02,1.170929705018637179e+01
1.800000000000000000e+02,1.175278621557376368e+01
1.810000000000000000e+02,1.179556358836002161e+01
1.820000000000000000e+02,1.183759620263160883e+01
1.830000000000000000e+02,1.187885932898702102e+01
1.840000000000000000e+02,1.191933178974520935e+01
1.850000000000000000e+02,1.195901046107586474e+01
1.860000000000000000e+02,1.199789258323676755e+01
1.870000000000000000e+02,1.203597743739687154e+01
1.880000000000000000e+02,1.207327125367159226e+01
1.890000000000000000e+02,1.210978707604980364e+01
1.900000000000000000e+02,1.214553718425624140e+01
1.910000000000000000e+02,1.218053541343821244e+01
1.920000000000000000e+02,1.221479970862344722e+01
1.930000000000000000e+02,1.224834562452994113e+01
1.940000000000000000e+02,1.228119486377204339e+01
1.950000000000000000e+02,1.231336277553638325e+01
1.960000000000000000e+02,1.234487174727271075e+01
1.970000000000000000e+02,1.237573499063086757e+01
1.980000000000000000e+02,1.240597488456201702e+01
1.990000000000000000e+02,1.243560649185919686e+01
2.000000000000000000e+02,1.246464739052570359e+01
2.010000000000000000e+02,1.249311920220537075e+01
2.020000000000000000e+02,1.252103205851592094e+01
2.030000000000000000e+02,1.254840449289318194e+01
2.040000000000000000e+02,1.257525001730184577e+01
2.050000000000000000e+02,1.260158645385355847e+01
2.060000000000000000e+02,1.262742609110252268e+01
2.070000000000000000e+02,1.265278509235350235e+01
2.080000000000000000e+02,1.267767082677766766e+01
2.090000000000000000e+02,1.270210004130020209e+01
2.100000000000000000e+02,1.272608546061380785e+01
2.110000000000000000e+02,1.274963306248503159e+01
2.120000000000000000e+02,1.277275949921207499e+01
2.130000000000000000e+02,1.279547296408035351e+01
2.140000000000000000e+02,1.281778339361876462e+01
2.150000000000000000e+02,1.283969924655742112e+01
2.160000000000000000e+02,1.286123340727792019e+01
2.170000000000000000e+02,1.288239176075287062e+01
2.180000000000000000e+02,1.290318477196226787e+01
2.190000000000000000e+02,1.292362005688122295e+01
2.200000000000000000e+02,1.294370431793455722e+01
2.210000000000000000e+02,1.296344635648228127e+01
2.220000000000000000e+02,1.298285287732172044e+01
2.230000000000000000e+02,1.300193233170409712e+01
2.240000000000000000e+02,1.302068964739230417e+01
2.250000000000000000e+02,1.303913247854108448e+01
2.260000000000000000e+02,1.305726814867742647e+01
2.270000000000000000e+02,1.307510235722827119e+01
2.280000000000000000e+02,1.309264050157783643e+01
2.290000000000000000e+02,1.310988986266081824e+01
2.300000000000000000e+02,1.312685299297180919e+01
2.310000000000000000e+02,1.314353875662326132e+01
2.320000000000000000e+02,1.315995123383474308e+01
2.330000000000000000e+02,1.317609571629644449e+01
2.340000000000000000e+02,1.319197694504026508e+01
2.350000000000000000e+02,1.320760012530666039e+01
2.360000000000000000e+02,1.322297065489434686e+01
2.370000000000000000e+02,1.323809232011921111e+01
2.380000000000000000e+02,1.325297044804339741e+01
2.390000000000000000e+02,1.326760863211702990e+01
2.400000000000000000e+02,1.328201173864588291e+01
2.410000000000000000e+02,1.329618397405697294e+01
2.420000000000000000e+02,1.331012968617385894e+01
2.430000000000000000e+02,1.332385303428042533e+01
2.440000000000000000e+02,1.333735733420778580e+01
2.450000000000000000e+02,1.335064644708548798e+01
2.460000000000000000e+02,1.336372385724762957e+01
2.470000000000000000e+02,1.337659568628125228e+01
2.480000000000000000e+02,1.338926224564446166e+01
2.490000000000000000e+02,1.340172865086091036e+01
2.500000000000000000e+02,1.341399833698454813e+01
2.510000000000000000e+02,1.342607404914146763e+01
2.520000000000000000e+02,1.343796115556664006e+01
2.530000000000000000e+02,1.344966011883506063e+01
2.540000000000000000e+02,1.346117597098544039e+01
2.550000000000000000e+02,1.347251111643478261e+01
2.560000000000000000e+02,1.348366928249016006e+01
2.570000000000000000e+02,1.349465126655064573e+01
2.580000000000000000e+02,1.350546304692010580e+01
2.590000000000000000e+02,1.351610657907860968e+01
2.600000000000000000e+02,1.352658341098148753e+01
2.610000000000000000e+02,1.353689781673808135e+01
2.620000000000000000e+02,1.354705135475943045e+01
2.630000000000000000e+02,1.355704702862046496e+01
2.640000000000000000e+02,1.356688819571025029e+01
2.650000000000000000e+02,1.357657640605161298e+01
2.660000000000000000e+02,1.358611528422320980e+01
2.670000000000000000e+02,1.359550589214155103e+01
2.680000000000000000e+02,1.360475187005789266e+01
2.690000000000000000e+02,1.361385430349248438e+01
2.700000000000000000e+02,1.362281710233892440e+01
2.710000000000000000e+02,1.363164125013781280e+01
2.720000000000000000e+02,1.364033036003239019e+01
2.730000000000000000e+02,1.364888531731575405e+01
2.740000000000000000e+02,1.365730925490141168e+01
2.750000000000000000e+02,1.366560308931446599e+01
2.760000000000000000e+02,1.367377104401640686e+01
2.770000000000000000e+02,1.368181243805210734e+01
2.780000000000000000e+02,1.368973083466251239e+01
2.790000000000000000e+02,1.369752852655203768e+01
2.800000000000000000e+02,1.370520697984477287e+01
2.810000000000000000e+02,1.371276783505348540e+01
2.820000000000000000e+02,1.372021365258385295e+01
2.830000000000000000e+02,1.372754604450817695e+01
2.840000000000000000e+02,1.373476648664020949e+01
2.850000000000000000e+02,1.374187675340570891e+01
2.860000000000000000e+02,1.374887879268572100e+01
2.870000000000000000e+02,1.375577398283550501e+01
2.880000000000000000e+02,1.376256461905046891e+01
2.890000000000000000e+02,1.376925279773084831e+01
2.900000000000000000e+02,1.377583850554602130e+01
2.910000000000000000e+02,1.378232425160495467e+01
2.920000000000000000e+02,1.378871259300488461e+01
2.930000000000000000e+02,1.379500342838494475e+01
2.940000000000000000e+02,1.380119923409499094e+01
2.950000000000000000e+02,1.380730136858674051e+01
2.960000000000000000e+02,1.381331130459293988e+01
2.970000000000000000e+02,1.381923032232018222e+01
2.980000000000000000e+02,1.382505981667019590e+01
2.990000000000000000e+02,1.383080105213911537e+01
3.000000000000000000e+02,1.383645546924126357e+01
3.010000000000000000e+02,1.384202541709754009e+01
3.020000000000000000e+02,1.384751048716945476e+01
3.030000000000000000e+02,1.385291368524640276e+01
3.040000000000000000e+02,1.385823495728981669e+01
3.050000000000000000e+02,1.386347668294182078e+01
3.060000000000000000e+02,1.386863946702264805e+01
3.070000000000000000e+02,1.387372482223127079e+01
3.080000000000000000e+02,1.387873303888078169e+01
3.090000000000000000e+02,1.388366652953322244e+01
3.100000000000000000e+02,1.388852569487328914e+01
3.110000000000000000e+02,1.389331226638256744e+01
3.120000000000000000e+02,1.389802675648480879e+01
3.130000000000000000e+02,1.390267076421237746e+01
3.140000000000000000e+02,1.390724521648655454e+01
3.150000000000000000e+02,1.391175164062721237e+01
3.160000000000000000e+02,1.391618986557015347e+01
3.170000000000000000e+02,1.392056183305934702e+01
3.180000000000000000e+02,1.392486802921595945e+01
3.190000000000000000e+02,1.392911044551712152e+01
3.200000000000000000e+02,1.393328919764164375e+01
3.210000000000000000e+02,1.393740590587218442e+01
3.220000000000000000e+02,1.394146019754836452e+01
3.230000000000000000e+02,1.394545482929516922e+01
3.240000000000000000e+02,1.394938954196834935e+01
3.250000000000000000e+02,1.395326551853657904e+01
3.260000000000000000e+02,1.395708399798714794e+01
3.270000000000000000e+02,1.396084531430807019e+01
3.280000000000000000e+02,1.396455009955110604e+01
3.290000000000000000e+02,1.396820054301256420e+01
3.300000000000000000e+02,1.397179558999498994e+01
3.310000000000000000e+02,1.397533832227224515e+01
3.320000000000000000e+02,1.397882738117333368e+01
3.330000000000000000e+02,1.398226494226241989e+01
3.340000000000000000e+02,1.398565155982069541e+01
3.350000000000000000e+02,1.398898754669727751e+01
3.360000000000000000e+02,1.399227417072630431e+01
3.370000000000000000e+02,1.399551150107339659e+01
3.380000000000000000e+02,1.399870097968791249e+01
3.390000000000000000e+02,1.400184386579551976e+01
3.400000000000000000e+02,1.400493902814428360e+01
3.410000000000000000e+02,1.400798879662874441e+01
3.420000000000000000e+02,1.401099317059491156e+01
3.430000000000000000e+02,1.401395298301408765e+01
3.440000000000000000e+02,1.401686864754819517e+01
3.450000000000000000e+02,1.401974129103408373e+01
3.460000000000000000e+02,1.402257168048395819e+01
3.470000000000000000e+02,1.402535992632320472e+01
3.480000000000000000e+02,1.402810673291667598e+01
3.490000000000000000e+02,1.403081286226602487e+01
3.500000000000000000e+02,1.403347883674019059e+01
3.510000000000000000e+02,1.403610571199713064e+01
3.520000000000000000e+02,1.403869382871661209e+01
3.530000000000000000e+02,1.404124340769825174e+01
3.540000000000000000e+02,1.404375538103642462e+01
3.550000000000000000e+02,1.404622990757543199e+01
3.560000000000000000e+02,1.404866815364586152e+01
3.570000000000000000e+02,1.405107039403008073e+01
3.580000000000000000e+02,1.405343708040539141e+01
3.590000000000000000e+02,1.405576860405750139e+01
3.600000000000000000e+02,1.405806576985935941e+01
3.610000000000000000e+02,1.406032926270549588e+01
3.620000000000000000e+02,1.406255917418498669e+01
3.630000000000000000e+02,1.406475583200299972e+01
3.640000000000000000e+02,1.406692045035658722e+01
3.650000000000000000e+02,1.406905329527254978e+01
3.660000000000000000e+02,1.407115451378708038e+01
3.670000000000000000e+02,1.407322442965596210e+01
3.680000000000000000e+02,1.407526413398091591e+01
3.690000000000000000e+02,1.407727335758164067e+01
3.700000000000000000e+02,1.407925348471486870e+01
3.710000000000000000e+02,1.408120430369570109e+01
3.720000000000000000e+02,1.408312607488975132e+01
3.730000000000000000e+02,1.408501994311040306e+01
3.740000000000000000e+02,1.408688563584189879e+01
3.750000000000000000e+02,1.408872411899734800e+01
3.760000000000000000e+02,1.409053517797286403e+01
3.770000000000000000e+02,1.409231989485499703e+01
3.780000000000000000e+02,1.409407817173681998e+01
3.790000000000000000e+02,1.409581055858761367e+01
3.800000000000000000e+02,1.409751736894675389e+01
3.810000000000000000e+02,1.409919926909696386e+01
3.820000000000000000e+02,1.410085633568774810e+01
3.830000000000000000e+02,1.410248935135416559e+01
3.840000000000000000e+02,1.410409786198759718e+01
3.850000000000000000e+02,1.410568270797223356e+01
3.860000000000000000e+02,1.410724455223687457e+01
3.870000000000000000e+02,1.410878346882566170e+01
3.880000000000000000e+02,1.411029941390841103e+01
3.890000000000000000e+02,1.411179351911385460e+01
3.900000000000000000e+02,1.411326544565980612e+01
3.910000000000000000e+02,1.411471591248239932e+01
3.920000000000000000e+02,1.411614487403333307e+01
3.930000000000000000e+02,1.411755281321497257e+01
3.940000000000000000e+02,1.411893997746596519e+01
3.950000000000000000e+02,1.412030720096052683e+01
3.960000000000000000e+02,1.412165408435479996e+01
3.970000000000000000e+02,1.412298105008447635e+01
3.980000000000000000e+02,1.412428875481160695e+01
