# Time [s], Temperature [C]
1.000000000000000000e+00,2.499997300000000067e+01
2.000000000000000000e+00,3.254520000000000124e+01
3.000000000000000000e+00,3.682498199999999855e+01
4.000000000000000000e+00,4.029621499999999656e+01
5.000000000000000000e+00,4.320286200000000321e+01
6.000000000000000000e+00,4.575859499999999969e+01
7.000000000000000000e+00,4.805303200000000174e+01
8.000000000000000000e+00,5.014885699999999957e+01
9.000000000000000000e+00,5.208551400000000342e+01
1.000000000000000000e+01,5.389132299999999987e+01
1.100000000000000000e+01,5.558739500000000078e+01
1.200000000000000000e+01,5.718891500000000150e+01
1.300000000000000000e+01,5.870886600000000044e+01
1.400000000000000000e+01,6.015718499999999835e+01
1.500000000000000000e+01,6.154168299999999903e+01
1.600000000000000000e+01,6.286899600000000277e+01
1.700000000000000000e+01,6.414481399999999667e+01
1.800000000000000000e+01,6.537389400000000705e+01
1.900000000000000000e+01,6.656022600000000011e+01
2.000000000000000000e+01,6.770738199999999551e+01
2.100000000000000000e+01,6.881827499999999986e+01
2.200000000000000000e+01,6.989559199999999350e+01
2.300000000000000000e+01,7.094207799999999509e+01
2.400000000000000000e+01,7.195947300000000268e+01
2.500000000000000000e+01,7.294943999999999562e+01
2.600000000000000000e+01,7.391420700000000465e+01
2.700000000000000000e+01,7.485501100000000463e+01
2.800000000000000000e+01,7.577332300000000487e+01
2.900000000000000000e+01,7.667028000000000532e+01
3.000000000000000000e+01,7.754698899999999639e+01
3.100000000000000000e+01,7.840463300000000402e+01
3.200000000000000000e+01,7.924419399999999314e+01
3.300000000000000000e+01,8.006646000000000640e+01
3.400000000000000000e+01,8.087207800000000191e+01
3.500000000000000000e+01,8.166220900000000427e+01
3.600000000000000000e+01,8.243724100000000021e+01
3.700000000000000000e+01,8.319802900000000534e+01
3.800000000000000000e+01,8.394497699999999440e+01
3.900000000000000000e+01,8.467867999999999995e+01
4.000000000000000000e+01,8.539967300000000705e+01
4.100000000000000000e+01,8.610854299999999739e+01
4.200000000000000000e+01,8.680570199999999659e+01
4.300000000000000000e+01,8.749160000000000537e+01
4.400000000000000000e+01,8.816704599999999914e+01
4.500000000000000000e+01,8.883171799999999507e+01
4.600000000000000000e+01,8.948629800000000500e+01
4.700000000000000000e+01,9.013154600000000016e+01
4.800000000000000000e+01,9.076707500000000550e+01
4.900000000000000000e+01,9.139352399999999932e+01
5.000000000000000000e+01,9.201161199999999951e+01
5.100000000000000000e+01,9.262087200000000564e+01
5.200000000000000000e+01,9.322225199999999745e+01
5.300000000000000000e+01,9.381549800000000516e+01
5.400000000000000000e+01,9.440114599999999712e+01
5.500000000000000000e+01,9.497937799999999697e+01
5.600000000000000000e+01,9.555047600000000330e+01
5.700000000000000000e+01,9.611457099999999798e+01
5.800000000000000000e+01,9.667208100000000570e+01
5.900000000000000000e+01,9.722291599999999789e+01
6.000000000000000000e+01,9.776734899999999584e+01
6.100000000000000000e+01,9.830559499999999673e+01
6.200000000000000000e+01,9.883788300000000504e+01
6.300000000000000000e+01,9.936439500000000180e+01
6.400000000000000000e+01,9.988536799999999971e+01
6.500000000000000000e+01,1.004008199999999960e+02
6.600000000000000000e+01,1.009109299999999934e+02
6.700000000000000000e+01,1.014159599999999983e+02
6.800000000000000000e+01,1.019160399999999953e+02
6.900000000000000000e+01,1.024111300000000000e+02
7.000000000000000000e+01,1.029013999999999953e+02
7.100000000000000000e+01,1.033871800000000007e+02
7.200000000000000000e+01,1.038685399999999959e+02
7.300000000000000000e+01,1.043451799999999992e+02
7.400000000000000000e+01,1.048178599999999960e+02
7.500000000000000000e+01,1.052864600000000053e+02
7.600000000000000000e+01,1.057510800000000017e+02
7.700000000000000000e+01,1.062118399999999951e+02
7.800000000000000000e+01,1.066684000000000054e+02
7.900000000000000000e+01,1.071214800000000054e+02
8.000000000000000000e+01,1.075710700000000060e+02
8.100000000000000000e+01,1.080171500000000009e+02
8.200000000000000000e+01,1.084598100000000045e+02
8.300000000000000000e+01,1.088991199999999964e+02
8.400000000000000000e+01,1.093349699999999984e+02
8.500000000000000000e+01,1.097677999999999940e+02
8.600000000000000000e+01,1.101976300000000037e+02
8.700000000000000000e+01,1.106243099999999941e+02
8.800000000000000000e+01,1.110481800000000021e+02
8.900000000000000000e+01,1.114692299999999960e+02
9.000000000000000000e+01,1.118874299999999948e+02
9.100000000000000000e+01,1.123028900000000050e+02
9.200000000000000000e+01,1.127157700000000062e+02
9.300000000000000000e+01,1.131260500000000064e+02
9.400000000000000000e+01,1.135336300000000023e+02
9.500000000000000000e+01,1.139389000000000038e+02
9.600000000000000000e+01,1.143417699999999968e+02
9.700000000000000000e+01,1.147422700000000049e+02
9.800000000000000000e+01,1.151405299999999983e+02
9.900000000000000000e+01,1.155365199999999959e+02
1.000000000000000000e+02,1.159303299999999979e+02
1.010000000000000000e+02,1.163220400000000012e+02
1.020000000000000000e+02,1.167116199999999964e+02
1.030000000000000000e+02,1.170991099999999960e+02
1.040000000000000000e+02,1.174846000000000004e+02
1.050000000000000000e+02,1.178681600000000032e+02
1.060000000000000000e+02,1.182497999999999934e+02
1.070000000000000000e+02,1.186296200000000027e+02
1.080000000000000000e+02,1.190075899999999933e+02
1.090000000000000000e+02,1.193837699999999984e+02
1.100000000000000000e+02,1.197582199999999943e+02
1.110000000000000000e+02,1.201309499999999986e+02
1.120000000000000000e+02,1.205019900000000064e+02
1.130000000000000000e+02,1.208714200000000005e+02
1.140000000000000000e+02,1.212392200000000031e+02
1.150000000000000000e+02,1.216055499999999938e+02
1.160000000000000000e+02,1.219702400000000040e+02
1.170000000000000000e+02,1.223335799999999978e+02
1.180000000000000000e+02,1.226953000000000031e+02
1.190000000000000000e+02,1.230556299999999936e+02
1.200000000000000000e+02,1.234145000000000039e+02
1.210000000000000000e+02,1.237719299999999976e+02
1.220000000000000000e+02,1.241279899999999969e+02
1.230000000000000000e+02,1.244826699999999988e+02
1.240000000000000000e+02,1.248360100000000017e+02
1.250000000000000000e+02,1.251880699999999962e+02
1.260000000000000000e+02,1.255389499999999998e+02
1.270000000000000000e+02,1.258884400000000028e+02
1.280000000000000000e+02,1.262367299999999943e+02
1.290000000000000000e+02,1.265837899999999934e+02
1.300000000000000000e+02,1.269296400000000062e+02
1.310000000000000000e+02,1.272745100000000065e+02
1.320000000000000000e+02,1.276180999999999983e+02
1.330000000000000000e+02,1.279605300000000057e+02
1.340000000000000000e+02,1.283019600000000082e+02
1.350000000000000000e+02,1.286421799999999962e+02
1.360000000000000000e+02,1.289813699999999983e+02
1.370000000000000000e+02,1.293194599999999923e+02
1.380000000000000000e+02,1.296564799999999877e+02
1.390000000000000000e+02,1.299924499999999910e+02
1.400000000000000000e+02,1.303275899999999865e+02
1.410000000000000000e+02,1.306617400000000089e+02
1.420000000000000000e+02,1.309947500000000105e+02
1.430000000000000000e+02,1.313268099999999947e+02
1.440000000000000000e+02,1.316578700000000026e+02
1.450000000000000000e+02,1.319880100000000027e+02
1.460000000000000000e+02,1.323172800000000109e+02
1.470000000000000000e+02,1.326458299999999895e+02
1.480000000000000000e+02,1.329732400000000041e+02
1.490000000000000000e+02,1.332997400000000141e+02
1.500000000000000000e+02,1.336253199999999879e+02
1.510000000000000000e+02,1.339500099999999918e+02
1.520000000000000000e+02,1.342738799999999912e+02
1.530000000000000000e+02,1.345969699999999989e+02
1.540000000000000000e+02,1.349192799999999863e+02
1.550000000000000000e+02,1.352407200000000103e+02
1.560000000000000000e+02,1.355612500000000011e+02
1.570000000000000000e+02,1.358809400000000096e+02
1.580000000000000000e+02,1.361999399999999980e+02
1.590000000000000000e+02,1.365179899999999975e+02
1.600000000000000000e+02,1.368354199999999992e+02
1.610000000000000000e+02,1.371520500000000027e+02
1.620000000000000000e+02,1.374678800000000081e+02
1.630000000000000000e+02,1.377829700000000059e+02
1.640000000000000000e+02,1.380971999999999866e+02
1.650000000000000000e+02,1.384106600000000071e+02
1.660000000000000000e+02,1.387235100000000045e+02
1.670000000000000000e+02,1.390355399999999975e+02
1.680000000000000000e+02,1.393469499999999925e+02
1.690000000000000000e+02,1.396575300000000084e+02
1.700000000000000000e+02,1.399674200000000042e+02
1.710000000000000000e+02,1.402767000000000053e+02
1.720000000000000000e+02,1.405852399999999989e+02
1.730000000000000000e+02,1.408929599999999880e+02
1.740000000000000000e+02,1.412000099999999918e+02
1.750000000000000000e+02,1.415063600000000008e+02
1.760000000000000000e+02,1.418122299999999996e+02
1.770000000000000000e+02,1.421173699999999940e+02
1.780000000000000000e+02,1.424216800000000092e+02
1.790000000000000000e+02,1.427253900000000044e+02
1.800000000000000000e+02,1.430284000000000049e+02
1.810000000000000000e+02,1.433309500000000014e+02
1.820000000000000000e+02,1.436326599999999871e+02
1.830000000000000000e+02,1.439336900000000128e+02
1.840000000000000000e+02,1.442340499999999963e+02
1.850000000000000000e+02,1.445339500000000044e+02
1.860000000000000000e+02,1.448332200000000114e+02
1.870000000000000000e+02,1.451317400000000077e+02
1.880000000000000000e+02,1.454296300000000031e+02
1.890000000000000000e+02,1.457269400000000132e+02
1.900000000000000000e+02,1.460236800000000130e+02
1.910000000000000000e+02,1.463197800000000086e+02
1.920000000000000000e+02,1.466151700000000062e+02
1.930000000000000000e+02,1.469100300000000061e+02
1.940000000000000000e+02,1.472041900000000112e+02
1.950000000000000000e+02,1.474979199999999935e+02
1.960000000000000000e+02,1.477909400000000062e+02
1.970000000000000000e+02,1.480834199999999896e+02
1.980000000000000000e+02,1.483751499999999908e+02
1.990000000000000000e+02,1.486664399999999944e+02
2.000000000000000000e+02,1.489571100000000001e+02
2.010000000000000000e+02,1.492472500000000082e+02
2.020000000000000000e+02,1.495366500000000087e+02
2.030000000000000000e+02,1.498256399999999928e+02
2.040000000000000000e+02,1.501139699999999948e+02
2.050000000000000000e+02,1.504017900000000054e+02
2.060000000000000000e+02,1.506889199999999960e+02
2.070000000000000000e+02,1.509755900000000111e+02
2.080000000000000000e+02,1.512616399999999999e+02
2.090000000000000000e+02,1.515470699999999908e+02
2.100000000000000000e+02,1.518319500000000062e+02
2.110000000000000000e+02,1.521163799999999924e+02
2.120000000000000000e+02,1.524002199999999903e+02
2.130000000000000000e+02,1.526833799999999997e+02
2.140000000000000000e+02,1.529660000000000082e+02
2.150000000000000000e+02,1.532482300000000066e+02
2.160000000000000000e+02,1.535298600000000135e+02
2.170000000000000000e+02,1.538108100000000036e+02
2.180000000000000000e+02,1.540912500000000023e+02
2.190000000000000000e+02,1.543713199999999972e+02
2.200000000000000000e+02,1.546506300000000067e+02
2.210000000000000000e+02,1.549294700000000091e+02
2.220000000000000000e+02,1.552078199999999981e+02
2.230000000000000000e+02,1.554856100000000083e+02
2.240000000000000000e+02,1.557628200000000049e+02
2.250000000000000000e+02,1.560394300000000101e+02
2.260000000000000000e+02,1.563157300000000021e+02
2.270000000000000000e+02,1.565913400000000024e+02
2.280000000000000000e+02,1.568663799999999924e+02
2.290000000000000000e+02,1.571409800000000132e+02
2.300000000000000000e+02,1.574150999999999954e+02
2.310000000000000000e+02,1.576885699999999986e+02
2.320000000000000000e+02,1.579615499999999884e+02
2.330000000000000000e+02,1.582341000000000122e+02
2.340000000000000000e+02,1.585060300000000097e+02
2.350000000000000000e+02,1.587774699999999939e+02
2.360000000000000000e+02,1.590482599999999991e+02
2.370000000000000000e+02,1.593187299999999880e+02
2.380000000000000000e+02,1.595885600000000011e+02
2.390000000000000000e+02,1.598579300000000103e+02
2.400000000000000000e+02,1.601267699999999934e+02
2.410000000000000000e+02,1.603950700000000040e+02
2.420000000000000000e+02,1.606629299999999887e+02
2.430000000000000000e+02,1.609301100000000133e+02
2.440000000000000000e+02,1.611969499999999869e+02
2.450000000000000000e+02,1.614633300000000133e+02
2.460000000000000000e+02,1.617290000000000134e+02
2.470000000000000000e+02,1.619943100000000129e+02
2.480000000000000000e+02,1.622591400000000021e+02
2.490000000000000000e+02,1.625233299999999872e+02
2.500000000000000000e+02,1.627871199999999874e+02
2.510000000000000000e+02,1.630503999999999962e+02
2.520000000000000000e+02,1.633130500000000040e+02
2.530000000000000000e+02,1.635753799999999956e+02
2.540000000000000000e+02,1.638371699999999862e+02
2.550000000000000000e+02,1.640983300000000042e+02
2.560000000000000000e+02,1.643590100000000120e+02
2.570000000000000000e+02,1.646194199999999910e+02
2.580000000000000000e+02,1.648790999999999940e+02
2.590000000000000000e+02,1.651383199999999931e+02
2.600000000000000000e+02,1.653972500000000139e+02
2.610000000000000000e+02,1.656554600000000050e+02
2.620000000000000000e+02,1.659131600000000049e+02
2.630000000000000000e+02,1.661706399999999917e+02
2.640000000000000000e+02,1.664273699999999963e+02
2.650000000000000000e+02,1.666837199999999939e+02
2.660000000000000000e+02,1.669396199999999908e+02
2.670000000000000000e+02,1.671949199999999962e+02
2.680000000000000000e+02,1.674498000000000104e+02
2.690000000000000000e+02,1.677042199999999923e+02
2.700000000000000000e+02,1.679580699999999922e+02
2.710000000000000000e+02,1.682114599999999882e+02
2.720000000000000000e+02,1.684644299999999930e+02
2.730000000000000000e+02,1.687168399999999906e+02
2.740000000000000000e+02,1.689687999999999874e+02
2.750000000000000000e+02,1.692203399999999931e+02
2.760000000000000000e+02,1.694713099999999883e+02
2.770000000000000000e+02,1.697218000000000018e+02
2.780000000000000000e+02,1.699719100000000083e+02
2.790000000000000000e+02,1.702215400000000045e+02
2.800000000000000000e+02,1.704704999999999870e+02
2.810000000000000000e+02,1.707192200000000071e+02
2.820000000000000000e+02,1.709674200000000042e+02
2.830000000000000000e+02,1.712151000000000067e+02
2.840000000000000000e+02,1.714623100000000022e+02
2.850000000000000000e+02,1.717090800000000002e+02
2.860000000000000000e+02,1.719553200000000004e+02
2.870000000000000000e+02,1.722011599999999873e+02
2.880000000000000000e+02,1.724464000000000112e+02
2.890000000000000000e+02,1.726912499999999966e+02
2.900000000000000000e+02,1.729356999999999971e+02
2.910000000000000000e+02,1.731795299999999997e+02
2.920000000000000000e+02,1.734230000000000018e+02
2.930000000000000000e+02,1.736660300000000063e+02
2.940000000000000000e+02,1.739084599999999909e+02
2.950000000000000000e+02,1.741505999999999972e+02
2.960000000000000000e+02,1.743921499999999867e+02
2.970000000000000000e+02,1.746333600000000104e+02
2.980000000000000000e+02,1.748740200000000016e+02
2.990000000000000000e+02,1.751141700000000014e+02
3.000000000000000000e+02,1.753540299999999945e+02
3.010000000000000000e+02,1.755932200000000023e+02
3.020000000000000000e+02,1.758319899999999905e+02
3.030000000000000000e+02,1.760704700000000003e+02
3.040000000000000000e+02,1.763082699999999932e+02
3.050000000000000000e+02,1.765458700000000078e+02
3.060000000000000000e+02,1.767828100000000120e+02
3.070000000000000000e+02,1.770192900000000122e+02
3.080000000000000000e+02,1.772555099999999868e+02
3.090000000000000000e+02,1.774910600000000045e+02
3.100000000000000000e+02,1.777262399999999900e+02
3.110000000000000000e+02,1.779610000000000127e+02
3.120000000000000000e+02,1.781952200000000062e+02
3.130000000000000000e+02,1.784291399999999896e+02
3.140000000000000000e+02,1.786624799999999880e+02
3.150000000000000000e+02,1.788953899999999919e+02
3.160000000000000000e+02,1.791278499999999951e+02
3.170000000000000000e+02,1.793598499999999945e+02
3.180000000000000000e+02,1.795915500000000122e+02
3.190000000000000000e+02,1.798225999999999942e+02
3.200000000000000000e+02,1.800533000000000072e+02
3.210000000000000000e+02,1.802835399999999879e+02
3.220000000000000000e+02,1.805133500000000026e+02
3.230000000000000000e+02,1.807426000000000101e+02
3.240000000000000000e+02,1.809715400000000045e+02
3.250000000000000000e+02,1.812000099999999918e+02
3.260000000000000000e+02,1.814280699999999911e+02
3.270000000000000000e+02,1.816556899999999928e+02
3.280000000000000000e+02,1.818828100000000063e+02
3.290000000000000000e+02,1.821095699999999908e+02
3.300000000000000000e+02,1.823357399999999870e+02
3.310000000000000000e+02,1.825615500000000111e+02
3.320000000000000000e+02,1.827869699999999966e+02
3.330000000000000000e+02,1.830119200000000035e+02
3.340000000000000000e+02,1.832364499999999907e+02
3.350000000000000000e+02,1.834604500000000087e+02
3.360000000000000000e+02,1.836841599999999914e+02
3.370000000000000000e+02,1.839072700000000111e+02
3.380000000000000000e+02,1.841301100000000019e+02
3.390000000000000000e+02,1.843524800000000141e+02
3.400000000000000000e+02,1.845742799999999875e+02
3.410000000000000000e+02,1.847958500000000015e+02
3.420000000000000000e+02,1.850167999999999893e+02
3.430000000000000000e+02,1.852375000000000114e+02
3.440000000000000000e+02,1.854576299999999947e+02
3.450000000000000000e+02,1.856774299999999869e+02
3.460000000000000000e+02,1.858967299999999909e+02
3.470000000000000000e+02,1.861155400000000100e+02
3.480000000000000000e+02,1.863341100000000097e+02
3.490000000000000000e+02,1.865520600000000115e+02
3.500000000000000000e+02,1.867698100000000068e+02
3.510000000000000000e+02,1.869868899999999883e+02
3.520000000000000000e+02,1.872037500000000136e+02
3.530000000000000000e+02,1.874200400000000002e+02
3.540000000000000000e+02,1.876359600000000114e+02
3.550000000000000000e+02,1.878514399999999966e+02
3.560000000000000000e+02,1.880664700000000096e+02
3.570000000000000000e+02,1.882812000000000126e+02
3.580000000000000000e+02,1.884953500000000020e+02
3.590000000000000000e+02,1.887092700000000036e+02
3.600000000000000000e+02,1.889226099999999917e+02
3.610000000000000000e+02,1.891355700000000013e+02
3.620000000000000000e+02,1.893481400000000008e+02
3.630000000000000000e+02,1.895602599999999995e+02
3.640000000000000000e+02,1.897719600000000071e+02
3.650000000000000000e+02,1.899833099999999888e+02
3.660000000000000000e+02,1.901942099999999982e+02
3.670000000000000000e+02,1.904047099999999944e+02
3.680000000000000000e+02,1.906147899999999993e+02
3.690000000000000000e+02,1.908243999999999971e+02
3.700000000000000000e+02,1.910336200000000133e+02
3.710000000000000000e+02,1.912424800000000005e+02
3.720000000000000000e+02,1.914509099999999933e+02
3.730000000000000000e+02,1.916589199999999948e+02
3.740000000000000000e+02,1.918665499999999895e+02
3.750000000000000000e+02,1.920737499999999898e+02
3.760000000000000000e+02,1.922805299999999988e+02
3.770000000000000000e+02,1.924869099999999946e+02
3.780000000000000000e+02,1.926928900000000056e+02
3.790000000000000000e+02,1.928984199999999873e+02
3.800000000000000000e+02,1.931036200000000065e+02
3.810000000000000000e+02,1.933082699999999932e+02
3.820000000000000000e+02,1.935126999999999953e+02
3.830000000000000000e+02,1.937165799999999933e+02
3.840000000000000000e+02,1.939201799999999878e+02
3.850000000000000000e+02,1.941232300000000066e+02
3.860000000000000000e+02,1.943260799999999904e+02
3.870000000000000000e+02,1.945283200000000079e+02
3.880000000000000000e+02,1.947303300000000092e+02
3.890000000000000000e+02,1.949318100000000129e+02
3.900000000000000000e+02,1.951330399999999941e+02
3.910000000000000000e+02,1.953337099999999964e+02
3.920000000000000000e+02,1.955341600000000142e+02
3.930000000000000000e+02,1.957340199999999868e+02
3.940000000000000000e+02,1.959336399999999969e+02
3.950000000000000000e+02,1.961327100000000030e+02
3.960000000000000000e+02,1.963315399999999897e+02
3.970000000000000000e+02,1.965298200000000008e+02
3.980000000000000000e+02,1.967279100000000085e+02
3.990000000000000000e+02,1.969254200000000026e+02
