# Time [s], Convective Heat Transfer Coefficient [W/m2K]
1.000000000000000000e+00,0.000000000000000000e+00
2.000000000000000000e+00,0.000000000000000000e+00
3.000000000000000000e+00,0.000000000000000000e+00
4.000000000000000000e+00,0.000000000000000000e+00
5.000000000000000000e+00,1.915079995362458862e-02
6.000000000000000000e+00,2.762023300960968902e-02
7.000000000000000000e+00,4.322677809297574558e-02
8.000000000000000000e+00,6.549481457711230081e-02
9.000000000000000000e+00,9.326404508278456074e-02
1.000000000000000000e+01,1.272690947474902357e-01
1.100000000000000000e+01,1.669903708934731001e-01
1.200000000000000000e+01,2.120216463004903074e-01
1.300000000000000000e+01,2.618427396493400727e-01
1.400000000000000000e+01,3.157740952314048721e-01
1.500000000000000000e+01,3.731991169693169019e-01
1.600000000000000000e+01,4.334735114859664118e-01
1.700000000000000000e+01,4.960439808381853499e-01
1.800000000000000000e+01,5.603831337309883587e-01
1.900000000000000000e+01,6.260771977595077642e-01
2.000000000000000000e+01,6.927279264077302878e-01
2.100000000000000000e+01,7.600222926794288902e-01
2.200000000000000000e+01,8.276835822720283176e-01
2.300000000000000000e+01,8.954822742477182018e-01
2.400000000000000000e+01,9.632258739273863446e-01
2.500000000000000000e+01,1.030754225074173247e+00
2.600000000000000000e+01,1.097933486569805828e+00
2.700000000000000000e+01,1.164655723687132216e+00
2.800000000000000000e+01,1.230829985848353569e+00
2.900000000000000000e+01,1.296382772066892120e+00
3.000000000000000000e+01,1.361256923979607292e+00
3.100000000000000000e+01,1.425409980286970857e+00
3.200000000000000000e+01,1.488800848587716663e+00
3.300000000000000000e+01,1.551402069097503889e+00
3.400000000000000000e+01,1.613194255414193812e+00
3.500000000000000000e+01,1.674166228055179895e+00
3.600000000000000000e+01,1.734304735818225085e+00
3.700000000000000000e+01,1.793605458185056012e+00
3.800000000000000000e+01,1.852067298877539514e+00
3.900000000000000000e+01,1.909691773780670232e+00
4.000000000000000000e+01,1.966483774921169436e+00
4.100000000000000000e+01,2.022448909498550051e+00
4.200000000000000000e+01,2.077595173551561647e+00
4.300000000000000000e+01,2.131930260436922353e+00
4.400000000000000000e+01,2.185466995129511592e+00
4.500000000000000000e+01,2.238215813094551532e+00
4.600000000000000000e+01,2.290188172301746761e+00
4.700000000000000000e+01,2.341397609827061466e+00
4.800000000000000000e+01,2.391854196830132562e+00
4.900000000000000000e+01,2.441573101214275621e+00
5.000000000000000000e+01,2.490567771680714859e+00
5.100000000000000000e+01,2.538851376100633050e+00
5.200000000000000000e+01,2.586438813984036411e+00
5.300000000000000000e+01,2.633341559157484024e+00
5.400000000000000000e+01,2.679574978040660138e+00
5.500000000000000000e+01,2.725151436075669675e+00
5.600000000000000000e+01,2.770083737248163480e+00
5.700000000000000000e+01,2.814385120285019415e+00
5.800000000000000000e+01,2.858069690412265995e+00
5.900000000000000000e+01,2.901150554167077456e+00
6.000000000000000000e+01,2.943638549453374331e+00
6.100000000000000000e+01,2.985545526577401798e+00
6.200000000000000000e+01,3.026885182931528639e+00
6.300000000000000000e+01,3.067669290578781904e+00
6.400000000000000000e+01,3.107908751224403243e+00
6.500000000000000000e+01,3.147614731633729956e+00
6.600000000000000000e+01,3.186799519764910382e+00
6.700000000000000000e+01,3.225472422675280004e+00
6.800000000000000000e+01,3.263644701922501667e+00
6.900000000000000000e+01,3.301327393256256570e+00
7.000000000000000000e+01,3.338530049137345301e+00
7.100000000000000000e+01,3.375262112326391506e+00
7.200000000000000000e+01,3.411533613048571834e+00
7.300000000000000000e+01,3.447353417035394330e+00
7.400000000000000000e+01,3.482731162070086040e+00
7.500000000000000000e+01,3.517675086650672522e+00
7.600000000000000000e+01,3.552195121940860734e+00
7.700000000000000000e+01,3.586299261540483396e+00
7.800000000000000000e+01,3.619996322062134286e+00
7.900000000000000000e+01,3.653293491002553406e+00
8.000000000000000000e+01,3.686198617277771206e+00
8.100000000000000000e+01,3.718719976441597019e+00
8.200000000000000000e+01,3.750864813037518175e+00
8.300000000000000000e+01,3.782640239161155993e+00
8.400000000000000000e+01,3.814053239679714213e+00
8.500000000000000000e+01,3.845110914902758026e+00
8.600000000000000000e+01,3.875820155182251536e+00
8.700000000000000000e+01,3.906187653170882346e+00
8.800000000000000000e+01,3.936219537460539541e+00
8.900000000000000000e+01,3.965922081218761441e+00
9.000000000000000000e+01,3.995301835108108879e+00
9.100000000000000000e+01,4.024364664977380990e+00
9.200000000000000000e+01,4.053116439366427848e+00
9.300000000000000000e+01,4.081562464931964840e+00
9.400000000000000000e+01,4.109708631787877486e+00
9.500000000000000000e+01,4.137560073211874467e+00
9.600000000000000000e+01,4.165122293775629814e+00
9.700000000000000000e+01,4.192400411094850732e+00
9.800000000000000000e+01,4.219399179353509055e+00
9.900000000000000000e+01,4.246123595302297105e+00
1.000000000000000000e+02,4.272578946276675893e+00
1.010000000000000000e+02,4.298769081349120391e+00
1.020000000000000000e+02,4.324699375845234783e+00
1.030000000000000000e+02,4.350373795249254272e+00
1.040000000000000000e+02,4.375796994121884609e+00
1.050000000000000000e+02,4.400973309027751412e+00
1.060000000000000000e+02,4.425906835834805264e+00
1.070000000000000000e+02,4.450601738164514209e+00
1.080000000000000000e+02,4.475061951067918820e+00
1.090000000000000000e+02,4.499291424365752690e+00
1.100000000000000000e+02,4.523294350471725345e+00
1.110000000000000000e+02,4.547073906007062405e+00
1.120000000000000000e+02,4.570634041115726909e+00
1.130000000000000000e+02,4.593978275122271526e+00
1.140000000000000000e+02,4.617110706530481501e+00
1.150000000000000000e+02,4.640032776526296310e+00
1.160000000000000000e+02,4.662748567229804131e+00
1.170000000000000000e+02,4.685261688047129169e+00
1.180000000000000000e+02,4.707575034229837918e+00
1.190000000000000000e+02,4.729692180926298839e+00
1.200000000000000000e+02,4.751615640865819223e+00
1.210000000000000000e+02,4.773349070670696470e+00
1.220000000000000000e+02,4.794895080998260006e+00
1.230000000000000000e+02,4.816256494332101568e+00
1.240000000000000000e+02,4.837436185649675480e+00
1.250000000000000000e+02,4.858436981075660022e+00
1.260000000000000000e+02,4.879261512602670159e+00
1.270000000000000000e+02,4.899912567712062739e+00
1.280000000000000000e+02,4.920392647871024927e+00
1.290000000000000000e+02,4.940704220236486144e+00
1.300000000000000000e+02,4.960849766733739230e+00
1.310000000000000000e+02,4.980832302634580877e+00
1.320000000000000000e+02,5.000653623576800655e+00
1.330000000000000000e+02,5.020316397205150771e+00
1.340000000000000000e+02,5.039821594672557303e+00
1.350000000000000000e+02,5.059172260223490092e+00
1.360000000000000000e+02,5.078370436982230451e+00
1.370000000000000000e+02,5.097418601299639640e+00
1.380000000000000000e+02,5.116318573635722622e+00
1.390000000000000000e+02,5.135072696953732141e+00
1.400000000000000000e+02,5.153682936501811085e+00
1.410000000000000000e+02,5.172151156072663625e+00
1.420000000000000000e+02,5.190479512777977256e+00
1.430000000000000000e+02,5.208669799735484496e+00
1.440000000000000000e+02,5.226723758787491292e+00
1.450000000000000000e+02,5.244643805854853902e+00
1.460000000000000000e+02,5.262431232953286298e+00
1.470000000000000000e+02,5.280087673622237965e+00
1.480000000000000000e+02,5.297615383636076203e+00
1.490000000000000000e+02,5.315016184828094126e+00
1.500000000000000000e+02,5.332291191218534010e+00
1.510000000000000000e+02,5.349442222669681613e+00
1.520000000000000000e+02,5.366471538643339478e+00
1.530000000000000000e+02,5.383380532046003530e+00
1.540000000000000000e+02,5.400169595861618710e+00
1.550000000000000000e+02,5.416840547663984928e+00
1.560000000000000000e+02,5.433395039699838946e+00
1.570000000000000000e+02,5.449834800552669556e+00
1.580000000000000000e+02,5.466161045361253024e+00
1.590000000000000000e+02,5.482375503789037374e+00
1.600000000000000000e+02,5.498479243481130929e+00
1.610000000000000000e+02,5.514473921264921863e+00
1.620000000000000000e+02,5.530360579808505150e+00
1.630000000000000000e+02,5.546140806946284307e+00
1.640000000000000000e+02,5.561815850017902463e+00
1.650000000000000000e+02,5.577386964215109266e+00
1.660000000000000000e+02,5.592855375044360144e+00
1.670000000000000000e+02,5.608222465338848828e+00
1.680000000000000000e+02,5.623489141812648917e+00
1.690000000000000000e+02,5.638656805252490578e+00
1.700000000000000000e+02,5.653726824703892540e+00
1.710000000000000000e+02,5.668699992024613721e+00
1.720000000000000000e+02,5.683577588019942617e+00
1.730000000000000000e+02,5.698360684846219826e+00
1.740000000000000000e+02,5.713050187360022569e+00
1.750000000000000000e+02,5.727647693847052857e+00
1.760000000000000000e+02,5.742153809962852407e+00
1.770000000000000000e+02,5.756569763372787918e+00
1.780000000000000000e+02,5.770896439290066127e+00
1.790000000000000000e+02,5.785134983624548255e+00
1.800000000000000000e+02,5.799286274592138746e+00
1.810000000000000000e+02,5.813351379590099732e+00
1.820000000000000000e+02,5.827331378364868364e+00
1.830000000000000000e+02,5.841226848188253662e+00
1.840000000000000000e+02,5.855038797759867464e+00
1.850000000000000000e+02,5.868768521191683796e+00
1.860000000000000000e+02,5.882416475103364739e+00
1.870000000000000000e+02,5.895983678650277504e+00
1.880000000000000000e+02,5.909471331971298369e+00
1.890000000000000000e+02,5.922879644272856403e+00
1.900000000000000000e+02,5.936210015435823273e+00
1.910000000000000000e+02,5.949462859837967521e+00
1.920000000000000000e+02,5.962639340388625087e+00
1.930000000000000000e+02,5.975739844196731987e+00
1.940000000000000000e+02,5.988765729402692806e+00
1.950000000000000000e+02,6.001717321858339282e+00
1.960000000000000000e+02,6.014595522949767847e+00
1.970000000000000000e+02,6.027401088495288661e+00
1.980000000000000000e+02,6.040134824405608782e+00
1.990000000000000000e+02,6.052797330078547589e+00
2.000000000000000000e+02,6.065389575496114460e+00
2.010000000000000000e+02,6.077911879602911682e+00
2.020000000000000000e+02,6.090365217611357629e+00
2.030000000000000000e+02,6.102750076177586358e+00
2.040000000000000000e+02,6.115067433762089166e+00
2.050000000000000000e+02,6.127317784265550848e+00
2.060000000000000000e+02,6.139501581507293082e+00
2.070000000000000000e+02,6.151619734975986908e+00
2.080000000000000000e+02,6.163672923066976672e+00
2.090000000000000000e+02,6.175661597644778844e+00
2.100000000000000000e+02,6.187586416505221898e+00
2.110000000000000000e+02,6.199448269918060639e+00
2.120000000000000000e+02,6.211247274959327491e+00
2.130000000000000000e+02,6.222984331795955448e+00
2.140000000000000000e+02,6.234659844181299704e+00
2.150000000000000000e+02,6.246274598848509996e+00
2.160000000000000000e+02,6.257829011150564114e+00
2.170000000000000000e+02,6.269323846719320414e+00
2.180000000000000000e+02,6.280759473247470304e+00
2.190000000000000000e+02,6.292136252115517081e+00
2.200000000000000000e+02,6.303455186668338150e+00
2.210000000000000000e+02,6.314716384261788384e+00
2.220000000000000000e+02,6.325920564081937592e+00
2.230000000000000000e+02,6.337068317636637360e+00
2.240000000000000000e+02,6.348159907705855254e+00
2.250000000000000000e+02,6.359196084602087851e+00
2.260000000000000000e+02,6.370176923882406861e+00
2.270000000000000000e+02,6.381103620370331519e+00
2.280000000000000000e+02,6.391976148390297929e+00
2.290000000000000000e+02,6.402795281276826067e+00
2.300000000000000000e+02,6.413561496527323769e+00
2.310000000000000000e+02,6.424274697156949543e+00
2.320000000000000000e+02,6.434935889149763000e+00
2.330000000000000000e+02,6.445545247271683209e+00
2.340000000000000000e+02,6.456103504884655564e+00
2.350000000000000000e+02,6.466610825138841889e+00
2.360000000000000000e+02,6.477067647320636112e+00
2.370000000000000000e+02,6.487474404287672414e+00
2.380000000000000000e+02,6.497831522597388165e+00
2.390000000000000000e+02,6.508139699005432099e+00
2.400000000000000000e+02,6.518398794226079040e+00
2.410000000000000000e+02,6.528609493905949357e+00
2.420000000000000000e+02,6.538772474413081071e+00
2.430000000000000000e+02,6.548887584196974920e+00
2.440000000000000000e+02,6.558955761287519337e+00
2.450000000000000000e+02,6.568977388989559962e+00
2.460000000000000000e+02,6.578952304361102676e+00
2.470000000000000000e+02,6.588881424306586077e+00
2.480000000000000000e+02,6.598764578713678830e+00
2.490000000000000000e+02,6.608602939001944065e+00
2.500000000000000000e+02,6.618395791358763880e+00
2.510000000000000000e+02,6.628144561380428179e+00
2.520000000000000000e+02,6.637848531899617655e+00
2.530000000000000000e+02,6.647508847805577048e+00
2.540000000000000000e+02,6.657125319394918250e+00
2.550000000000000000e+02,6.666699075442094724e+00
2.560000000000000000e+02,6.676229655414705810e+00
2.570000000000000000e+02,6.685717912852189748e+00
2.580000000000000000e+02,6.695164168750302736e+00
2.590000000000000000e+02,6.704568219087342129e+00
2.600000000000000000e+02,6.713930900298577420e+00
2.610000000000000000e+02,6.723252262037918925e+00
2.620000000000000000e+02,6.732532611104262266e+00
2.630000000000000000e+02,6.741772250363617047e+00
2.640000000000000000e+02,6.750971735666324136e+00
2.650000000000000000e+02,6.760130847824981970e+00
2.660000000000000000e+02,6.769250135863286388e+00
2.670000000000000000e+02,6.778330651926006922e+00
2.680000000000000000e+02,6.787371657707847561e+00
2.690000000000000000e+02,6.796373942794570411e+00
2.700000000000000000e+02,6.805337529635212768e+00
2.710000000000000000e+02,6.814262692033922875e+00
2.720000000000000000e+02,6.823149951871466001e+00
2.730000000000000000e+02,6.831999072738348389e+00
2.740000000000000000e+02,6.840811070899532886e+00
2.750000000000000000e+02,6.849585953678049677e+00
2.760000000000000000e+02,6.858323727852118523e+00
2.770000000000000000e+02,6.867024896135515810e+00
2.780000000000000000e+02,6.875689955694792133e+00
2.790000000000000000e+02,6.884318410269735011e+00
2.800000000000000000e+02,6.892910999992179377e+00
2.810000000000000000e+02,6.901467965642006597e+00
2.820000000000000000e+02,6.909989545173762515e+00
2.830000000000000000e+02,6.918475973761803566e+00
2.840000000000000000e+02,6.926927483844520950e+00
2.850000000000000000e+02,6.935344305167675749e+00
2.860000000000000000e+02,6.943726422040490398e+00
2.870000000000000000e+02,6.952074545105443093e+00
2.880000000000000000e+02,6.960388652908206630e+00
2.890000000000000000e+02,6.968668723788722374e+00
2.900000000000000000e+02,6.976915216840295031e+00
2.910000000000000000e+02,6.985128826336175933e+00
2.920000000000000000e+02,6.993309282226148227e+00
2.930000000000000000e+02,7.001456794187161492e+00
2.940000000000000000e+02,7.009571569556475090e+00
2.950000000000000000e+02,7.017653813367134674e+00
2.960000000000000000e+02,7.025703965536448159e+00
2.970000000000000000e+02,7.033722224971680426e+00
2.980000000000000000e+02,7.041708552325336434e+00
2.990000000000000000e+02,7.049663143778702512e+00
3.000000000000000000e+02,7.057586663407652949e+00
3.010000000000000000e+02,7.065478831020473471e+00
3.020000000000000000e+02,7.073339602534286286e+00
3.030000000000000000e+02,7.081170101155572993e+00
3.040000000000000000e+02,7.088969809262150257e+00
3.050000000000000000e+02,7.096739143149518370e+00
3.060000000000000000e+02,7.104478051284727869e+00
3.070000000000000000e+02,7.112187407922936799e+00
3.080000000000000000e+02,7.119866232053174926e+00
3.090000000000000000e+02,7.127515855031208325e+00
3.100000000000000000e+02,7.135136216875674009e+00
3.110000000000000000e+02,7.142726798907572672e+00
3.120000000000000000e+02,7.150288460282756553e+00
3.130000000000000000e+02,7.157821367147207070e+00
3.140000000000000000e+02,7.165324999937291217e+00
3.150000000000000000e+02,7.172800208266889577e+00
3.160000000000000000e+02,7.180247607317477687e+00
3.170000000000000000e+02,7.187666220783627047e+00
3.180000000000000000e+02,7.195056889059883609e+00
3.190000000000000000e+02,7.202419542712176437e+00
3.200000000000000000e+02,7.209754562973921921e+00
3.210000000000000000e+02,7.217062327689544254e+00
3.220000000000000000e+02,7.224342314200452364e+00
3.230000000000000000e+02,7.231595346808248337e+00
3.240000000000000000e+02,7.238820902561976744e+00
3.250000000000000000e+02,7.246019800096672903e+00
3.260000000000000000e+02,7.253191738723552717e+00
3.270000000000000000e+02,7.260337530212714441e+00
3.280000000000000000e+02,7.267456428223539433e+00
3.290000000000000000e+02,7.274549461622717317e+00
3.300000000000000000e+02,7.281615884789187199e+00
3.310000000000000000e+02,7.288656720410322087e+00
3.320000000000000000e+02,7.295671443537865564e+00
3.330000000000000000e+02,7.302660630520648510e+00
3.340000000000000000e+02,7.309623976692491532e+00
3.350000000000000000e+02,7.316562272807764167e+00
3.360000000000000000e+02,7.323474993822941315e+00
3.370000000000000000e+02,7.330363143348568755e+00
3.380000000000000000e+02,7.337225542795150268e+00
3.390000000000000000e+02,7.344063409536947695e+00
3.400000000000000000e+02,7.350876651836885323e+00
3.410000000000000000e+02,7.357665394634906875e+00
3.420000000000000000e+02,7.364429761712217193e+00
3.430000000000000000e+02,7.371169875705781749e+00
3.440000000000000000e+02,7.377885643069517663e+00
3.450000000000000000e+02,7.384577400026724803e+00
3.460000000000000000e+02,7.391245051582634673e+00
3.470000000000000000e+02,7.397889572651203061e+00
3.480000000000000000e+02,7.404509582337119866e+00
3.490000000000000000e+02,7.411106906305405140e+00
3.500000000000000000e+02,7.417680378507303551e+00
3.510000000000000000e+02,7.424230752309215475e+00
3.520000000000000000e+02,7.430758139539888951e+00
3.530000000000000000e+02,7.437262016131700015e+00
3.540000000000000000e+02,7.443743762833380906e+00
3.550000000000000000e+02,7.450202219810857507e+00
3.560000000000000000e+02,7.456638129852941610e+00
3.570000000000000000e+02,7.463051599899136690e+00
3.580000000000000000e+02,7.469442735949774814e+00
3.590000000000000000e+02,7.475811433621105451e+00
3.600000000000000000e+02,7.482158216335430545e+00
3.610000000000000000e+02,7.488482768780354348e+00
3.620000000000000000e+02,7.494785194361605285e+00
3.630000000000000000e+02,7.501066219730940787e+00
3.640000000000000000e+02,7.507325320284103931e+00
3.650000000000000000e+02,7.513562804139283458e+00
3.660000000000000000e+02,7.519778563149080775e+00
3.670000000000000000e+02,7.525973316376402877e+00
3.680000000000000000e+02,7.532146746300247386e+00
3.690000000000000000e+02,7.538298743288825321e+00
3.700000000000000000e+02,7.544429815222237323e+00
3.710000000000000000e+02,7.550540055838816933e+00
3.720000000000000000e+02,7.556629353090762891e+00
3.730000000000000000e+02,7.562698004809875307e+00
3.740000000000000000e+02,7.568746102395926378e+00
3.750000000000000000e+02,7.574773532469668780e+00
3.760000000000000000e+02,7.580780793279730645e+00
3.770000000000000000e+02,7.586767362878161336e+00
3.780000000000000000e+02,7.592733940755480582e+00
3.790000000000000000e+02,7.598680208155743188e+00
3.800000000000000000e+02,7.604606455405456877e+00
3.810000000000000000e+02,7.610512768745809176e+00
3.820000000000000000e+02,7.616399435509537241e+00
3.830000000000000000e+02,7.622266136638651268e+00
3.840000000000000000e+02,7.628113560745560129e+00
3.850000000000000000e+02,7.633941186855983219e+00
3.860000000000000000e+02,7.639749299259625204e+00
3.870000000000000000e+02,7.645538180355374358e+00
3.880000000000000000e+02,7.651307910717836336e+00
3.890000000000000000e+02,7.657058170964824662e+00
3.900000000000000000e+02,7.662789440903329918e+00
3.910000000000000000e+02,7.668501799192950941e+00
3.920000000000000000e+02,7.674195323871751739e+00
3.930000000000000000e+02,7.679869893889646804e+00
3.940000000000000000e+02,7.685525983299500652e+00
3.950000000000000000e+02,7.691163469546896891e+00
3.960000000000000000e+02,7.696782033044534010e+00
3.970000000000000000e+02,7.702382342486656874e+00
3.980000000000000000e+02,7.707964077392100322e+00
