# Time [s], Mass [Kg]
1.000000000000000000e+00,1.389829478312586963e-01
2.000000000000000000e+00,1.389829478252610218e-01
3.000000000000000000e+00,1.389829478188767120e-01
4.000000000000000000e+00,1.389829478120174489e-01
5.000000000000000000e+00,1.389829478046014088e-01
6.000000000000000000e+00,1.389829477965482118e-01
7.000000000000000000e+00,1.389829477877759234e-01
8.000000000000000000e+00,1.389829477782001943e-01
9.000000000000000000e+00,1.389829477677336778e-01
1.000000000000000000e+01,1.389829477562855853e-01
1.100000000000000000e+01,1.389829477437613814e-01
1.200000000000000000e+01,1.389829477300624505e-01
1.300000000000000000e+01,1.389829477150860693e-01
1.400000000000000000e+01,1.389829476987248791e-01
1.500000000000000000e+01,1.389829476808670805e-01
1.600000000000000000e+01,1.389829476613959058e-01
1.700000000000000000e+01,1.389829476401897579e-01
1.800000000000000000e+01,1.389829476171217659e-01
1.900000000000000000e+01,1.389829475920598134e-01
2.000000000000000000e+01,1.389829475648663715e-01
2.100000000000000000e+01,1.389829475353982768e-01
2.200000000000000000e+01,1.389829475035065931e-01
2.300000000000000000e+01,1.389829474690364441e-01
2.400000000000000000e+01,1.389829474318269309e-01
2.500000000000000000e+01,1.389829473917109370e-01
2.600000000000000000e+01,1.389829473485148792e-01
2.700000000000000000e+01,1.389829473020586792e-01
2.800000000000000000e+01,1.389829472521556530e-01
2.900000000000000000e+01,1.389829471986121223e-01
3.000000000000000000e+01,1.389829471412273310e-01
3.100000000000000000e+01,1.389829470797935007e-01
3.200000000000000000e+01,1.389829470140954149e-01
3.300000000000000000e+01,1.389829469439101683e-01
3.400000000000000000e+01,1.389829468690072234e-01
3.500000000000000000e+01,1.389829467891482706e-01
3.600000000000000000e+01,1.389829467040870070e-01
3.700000000000000000e+01,1.389829466135690250e-01
3.800000000000000000e+01,1.389829465173311462e-01
3.900000000000000000e+01,1.389829464151014771e-01
4.000000000000000000e+01,1.389829463065994086e-01
4.100000000000000000e+01,1.389829461915353670e-01
4.200000000000000000e+01,1.389829460696107855e-01
4.300000000000000000e+01,1.389829459405177159e-01
4.400000000000000000e+01,1.389829458039383014e-01
4.500000000000000000e+01,1.389829456595448320e-01
4.600000000000000000e+01,1.389829455069999387e-01
4.700000000000000000e+01,1.389829453459557607e-01
4.800000000000000000e+01,1.389829451760537238e-01
4.900000000000000000e+01,1.389829449969246511e-01
5.000000000000000000e+01,1.389829448081883467e-01
5.100000000000000000e+01,1.389829446094533738e-01
5.200000000000000000e+01,1.389829444003169434e-01
5.300000000000000000e+01,1.389829441803640819e-01
5.400000000000000000e+01,1.389829439491680751e-01
5.500000000000000000e+01,1.389829437062902462e-01
5.600000000000000000e+01,1.389829434512789008e-01
5.700000000000000000e+01,1.389829431836694662e-01
5.800000000000000000e+01,1.389829429029836583e-01
5.900000000000000000e+01,1.389829426087298703e-01
6.000000000000000000e+01,1.389829423004034226e-01
6.100000000000000000e+01,1.389829419774854524e-01
6.200000000000000000e+01,1.389829416394420258e-01
6.300000000000000000e+01,1.389829412857243873e-01
6.400000000000000000e+01,1.389829409157682660e-01
6.500000000000000000e+01,1.389829405289937647e-01
6.600000000000000000e+01,1.389829401248053320e-01
6.700000000000000000e+01,1.389829397025912627e-01
6.800000000000000000e+01,1.389829392617237813e-01
6.900000000000000000e+01,1.389829388015570988e-01
7.000000000000000000e+01,1.389829383214274683e-01
7.100000000000000000e+01,1.389829378206528798e-01
7.200000000000000000e+01,1.389829372985330325e-01
7.300000000000000000e+01,1.389829367543499172e-01
7.400000000000000000e+01,1.389829361873654856e-01
7.500000000000000000e+01,1.389829355968211499e-01
7.600000000000000000e+01,1.389829349819385329e-01
7.700000000000000000e+01,1.389829343419178576e-01
7.800000000000000000e+01,1.389829336759391687e-01
7.900000000000000000e+01,1.389829329831599458e-01
8.000000000000000000e+01,1.389829322627137154e-01
8.100000000000000000e+01,1.389829315137130483e-01
8.200000000000000000e+01,1.389829307352464793e-01
8.300000000000000000e+01,1.389829299263765083e-01
8.400000000000000000e+01,1.389829290861414601e-01
8.500000000000000000e+01,1.389829282135566224e-01
8.600000000000000000e+01,1.389829273076101102e-01
8.700000000000000000e+01,1.389829263672613668e-01
8.800000000000000000e+01,1.389829253914433571e-01
8.900000000000000000e+01,1.389829243790614011e-01
9.000000000000000000e+01,1.389829233289938126e-01
9.100000000000000000e+01,1.389829222400880693e-01
9.200000000000000000e+01,1.389829211111595075e-01
9.300000000000000000e+01,1.389829199409938210e-01
9.400000000000000000e+01,1.389829187283445622e-01
9.500000000000000000e+01,1.389829174719325600e-01
9.600000000000000000e+01,1.389829161704466132e-01
9.700000000000000000e+01,1.389829148225434630e-01
9.800000000000000000e+01,1.389829134268422972e-01
9.900000000000000000e+01,1.389829119819248060e-01
1.000000000000000000e+02,1.389829104863375131e-01
1.010000000000000000e+02,1.389829089385877514e-01
1.020000000000000000e+02,1.389829073371450507e-01
1.030000000000000000e+02,1.389829056804406660e-01
1.040000000000000000e+02,1.389829039668633581e-01
1.050000000000000000e+02,1.389829021947610044e-01
1.060000000000000000e+02,1.389829003624404591e-01
1.070000000000000000e+02,1.389828984681631130e-01
1.080000000000000000e+02,1.389828965101461145e-01
1.090000000000000000e+02,1.389828944865624527e-01
1.100000000000000000e+02,1.389828923955362672e-01
1.110000000000000000e+02,1.389828902351440965e-01
1.120000000000000000e+02,1.389828880034152669e-01
1.130000000000000000e+02,1.389828856983263139e-01
1.140000000000000000e+02,1.389828833178027023e-01
1.150000000000000000e+02,1.389828808597188547e-01
1.160000000000000000e+02,1.389828783218929609e-01
1.170000000000000000e+02,1.389828757020885597e-01
1.180000000000000000e+02,1.389828729980141508e-01
1.190000000000000000e+02,1.389828702073179489e-01
1.200000000000000000e+02,1.389828673275894655e-01
1.210000000000000000e+02,1.389828643563583155e-01
1.220000000000000000e+02,1.389828612910865013e-01
1.230000000000000000e+02,1.389828581291794596e-01
1.240000000000000000e+02,1.389828548679793718e-01
1.250000000000000000e+02,1.389828515047498714e-01
1.260000000000000000e+02,1.389828480366895047e-01
1.270000000000000000e+02,1.389828444609376712e-01
1.280000000000000000e+02,1.389828407745546113e-01
1.290000000000000000e+02,1.389828369745218228e-01
1.300000000000000000e+02,1.389828330577512483e-01
1.310000000000000000e+02,1.389828290210788075e-01
1.320000000000000000e+02,1.389828248612623718e-01
1.330000000000000000e+02,1.389828205749736589e-01
1.340000000000000000e+02,1.389828161588046174e-01
1.350000000000000000e+02,1.389828116092734211e-01
1.360000000000000000e+02,1.389828069228030705e-01
1.370000000000000000e+02,1.389828020957218635e-01
1.380000000000000000e+02,1.389827971242734994e-01
1.390000000000000000e+02,1.389827920046131093e-01
1.400000000000000000e+02,1.389827867328022604e-01
1.410000000000000000e+02,1.389827813047964655e-01
1.420000000000000000e+02,1.389827757164570077e-01
1.430000000000000000e+02,1.389827699635564073e-01
1.440000000000000000e+02,1.389827640417514998e-01
1.450000000000000000e+02,1.389827579465883201e-01
1.460000000000000000e+02,1.389827516735042678e-01
1.470000000000000000e+02,1.389827452178313549e-01
1.480000000000000000e+02,1.389827385748053090e-01
1.490000000000000000e+02,1.389827317395302964e-01
1.500000000000000000e+02,1.389827247069860550e-01
1.510000000000000000e+02,1.389827174720342506e-01
1.520000000000000000e+02,1.389827100294154516e-01
1.530000000000000000e+02,1.389827023737629508e-01
1.540000000000000000e+02,1.389826944995651015e-01
1.550000000000000000e+02,1.389826864011705077e-01
1.560000000000000000e+02,1.389826780727927702e-01
1.570000000000000000e+02,1.389826695085100150e-01
1.580000000000000000e+02,1.389826607022819072e-01
1.590000000000000000e+02,1.389826516479047980e-01
1.600000000000000000e+02,1.389826423390236598e-01
1.610000000000000000e+02,1.389826327691370544e-01
1.620000000000000000e+02,1.389826229315845041e-01
1.630000000000000000e+02,1.389826128195712496e-01
1.640000000000000000e+02,1.389826024261232584e-01
1.650000000000000000e+02,1.389825917440972725e-01
1.660000000000000000e+02,1.389825807661917711e-01
1.670000000000000000e+02,1.389825694849252669e-01
1.680000000000000000e+02,1.389825578926647542e-01
1.690000000000000000e+02,1.389825459815832720e-01
1.700000000000000000e+02,1.389825337436612629e-01
1.710000000000000000e+02,1.389825211707002572e-01
1.720000000000000000e+02,1.389825082543072465e-01
1.730000000000000000e+02,1.389824949859077563e-01
1.740000000000000000e+02,1.389824813567287487e-01
1.750000000000000000e+02,1.389824673577907677e-01
1.760000000000000000e+02,1.389824529798832642e-01
1.770000000000000000e+02,1.389824382135932679e-01
1.780000000000000000e+02,1.389824230493102719e-01
1.790000000000000000e+02,1.389824074771887630e-01
1.800000000000000000e+02,1.389823914871897714e-01
1.810000000000000000e+02,1.389823750690192539e-01
1.820000000000000000e+02,1.389823582121277601e-01
1.830000000000000000e+02,1.389823409057462655e-01
1.840000000000000000e+02,1.389823231388537528e-01
1.850000000000000000e+02,1.389823049001992494e-01
1.860000000000000000e+02,1.389822861782712693e-01
1.870000000000000000e+02,1.389822669612862660e-01
1.880000000000000000e+02,1.389822472371867734e-01
1.890000000000000000e+02,1.389822269936437649e-01
1.900000000000000000e+02,1.389822062180547657e-01
1.910000000000000000e+02,1.389821848975297536e-01
1.920000000000000000e+02,1.389821630189172486e-01
1.930000000000000000e+02,1.389821405687762523e-01
1.940000000000000000e+02,1.389821175333422476e-01
1.950000000000000000e+02,1.389820938985332488e-01
1.960000000000000000e+02,1.389820696499577679e-01
1.970000000000000000e+02,1.389820447729307462e-01
1.980000000000000000e+02,1.389820192524097719e-01
1.990000000000000000e+02,1.389819930730222530e-01
2.000000000000000000e+02,1.389819662191052463e-01
2.010000000000000000e+02,1.389819386746137531e-01
2.020000000000000000e+02,1.389819104231192481e-01
2.030000000000000000e+02,1.389818814478452624e-01
2.040000000000000000e+02,1.389818517316842583e-01
2.050000000000000000e+02,1.389818212571317657e-01
2.060000000000000000e+02,1.389817900062927658e-01
2.070000000000000000e+02,1.389817579609297638e-01
2.080000000000000000e+02,1.389817251023722500e-01
2.090000000000000000e+02,1.389816914115152569e-01
2.100000000000000000e+02,1.389816568688577725e-01
2.110000000000000000e+02,1.389816214545082640e-01
2.120000000000000000e+02,1.389815851481087661e-01
2.130000000000000000e+02,1.389815479288592504e-01
2.140000000000000000e+02,1.389815097755367490e-01
2.150000000000000000e+02,1.389814706664697641e-01
2.160000000000000000e+02,1.389814305795257499e-01
2.170000000000000000e+02,1.389813894920652604e-01
2.180000000000000000e+02,1.389813473809927702e-01
2.190000000000000000e+02,1.389813042226817619e-01
2.200000000000000000e+02,1.389812599930107528e-01
2.210000000000000000e+02,1.389812146673687632e-01
2.220000000000000000e+02,1.389811682205982502e-01
2.230000000000000000e+02,1.389811206270792632e-01
2.240000000000000000e+02,1.389810718606137585e-01
2.250000000000000000e+02,1.389810218944282638e-01
2.260000000000000000e+02,1.389809707011692708e-01
2.270000000000000000e+02,1.389809182529062603e-01
2.280000000000000000e+02,1.389808645211617621e-01
2.290000000000000000e+02,1.389808094768507640e-01
2.300000000000000000e+02,1.389807530902787691e-01
2.310000000000000000e+02,1.389806953311137627e-01
2.320000000000000000e+02,1.389806361684512714e-01
2.330000000000000000e+02,1.389805755707042567e-01
2.340000000000000000e+02,1.389805135056127461e-01
2.350000000000000000e+02,1.389804499402722548e-01
2.360000000000000000e+02,1.389803848410802734e-01
2.370000000000000000e+02,1.389803181737487570e-01
2.380000000000000000e+02,1.389802499032662675e-01
2.390000000000000000e+02,1.389801799938967519e-01
2.400000000000000000e+02,1.389801084091817629e-01
2.410000000000000000e+02,1.389800351119757638e-01
2.420000000000000000e+02,1.389799600643347732e-01
2.430000000000000000e+02,1.389798832275462581e-01
2.440000000000000000e+02,1.389798045621257472e-01
2.450000000000000000e+02,1.389797240277282631e-01
2.460000000000000000e+02,1.389796415831827670e-01
2.470000000000000000e+02,1.389795571864947676e-01
2.480000000000000000e+02,1.389794707948152630e-01
2.490000000000000000e+02,1.389793823644342730e-01
2.500000000000000000e+02,1.389792918509377695e-01
2.510000000000000000e+02,1.389791992088737493e-01
2.520000000000000000e+02,1.389791043918387481e-01
2.530000000000000000e+02,1.389790073525572489e-01
2.540000000000000000e+02,1.389789080427087653e-01
2.550000000000000000e+02,1.389788064130587641e-01
2.560000000000000000e+02,1.389787024133787574e-01
2.570000000000000000e+02,1.389785959924837722e-01
2.580000000000000000e+02,1.389784870981837506e-01
2.590000000000000000e+02,1.389783756772187684e-01
2.600000000000000000e+02,1.389782616753237610e-01
2.610000000000000000e+02,1.389781450372937488e-01
2.620000000000000000e+02,1.389780257066637603e-01
2.630000000000000000e+02,1.389779036257487721e-01
2.640000000000000000e+02,1.389777787358237593e-01
2.650000000000000000e+02,1.389776509769937718e-01
2.660000000000000000e+02,1.389775202882487515e-01
2.670000000000000000e+02,1.389773866073987507e-01
2.680000000000000000e+02,1.389772498709937465e-01
2.690000000000000000e+02,1.389771100144337468e-01
2.700000000000000000e+02,1.389769669720037626e-01
2.710000000000000000e+02,1.389768206764287473e-01
2.720000000000000000e+02,1.389766710591787691e-01
2.730000000000000000e+02,1.389765180504437536e-01
2.740000000000000000e+02,1.389763615790187701e-01
2.750000000000000000e+02,1.389762015724737565e-01
2.760000000000000000e+02,1.389760379568537596e-01
2.770000000000000000e+02,1.389758706567887636e-01
2.780000000000000000e+02,1.389756995956037688e-01
2.790000000000000000e+02,1.389755246950487577e-01
2.800000000000000000e+02,1.389753458753537618e-01
2.810000000000000000e+02,1.389751630553887618e-01
2.820000000000000000e+02,1.389749761523987603e-01
2.830000000000000000e+02,1.389747850821287656e-01
2.840000000000000000e+02,1.389745897585687728e-01
2.850000000000000000e+02,1.389743900942237709e-01
2.860000000000000000e+02,1.389741859998287477e-01
2.870000000000000000e+02,1.389739773846087600e-01
2.880000000000000000e+02,1.389737641561187564e-01
2.890000000000000000e+02,1.389735462199437610e-01
2.900000000000000000e+02,1.389733234800037687e-01
2.910000000000000000e+02,1.389730958384287618e-01
2.920000000000000000e+02,1.389728631956187732e-01
2.930000000000000000e+02,1.389726254500337488e-01
2.940000000000000000e+02,1.389723824983537526e-01
2.950000000000000000e+02,1.389721342351987465e-01
2.960000000000000000e+02,1.389718805535137547e-01
2.970000000000000000e+02,1.389716213439887715e-01
2.980000000000000000e+02,1.389713564954237479e-01
2.990000000000000000e+02,1.389710858945637506e-01
3.000000000000000000e+02,1.389708094261187521e-01
3.010000000000000000e+02,1.389705269725587666e-01
3.020000000000000000e+02,1.389702384143587655e-01
3.030000000000000000e+02,1.389699436299937640e-01
3.040000000000000000e+02,1.389696424952787668e-01
3.050000000000000000e+02,1.389693348843287490e-01
3.060000000000000000e+02,1.389690206686637619e-01
3.070000000000000000e+02,1.389686997173537608e-01
3.080000000000000000e+02,1.389683718973087623e-01
3.090000000000000000e+02,1.389680370730937697e-01
3.100000000000000000e+02,1.389676951066337596e-01
3.110000000000000000e+02,1.389673458579587517e-01
3.120000000000000000e+02,1.389669891841287530e-01
3.130000000000000000e+02,1.389666249395187514e-01
3.140000000000000000e+02,1.389662529761537535e-01
3.150000000000000000e+02,1.389658731434437466e-01
3.160000000000000000e+02,1.389654852880237712e-01
3.170000000000000000e+02,1.389650892540037486e-01
3.180000000000000000e+02,1.389646848829837467e-01
3.190000000000000000e+02,1.389642720132337472e-01
3.200000000000000000e+02,1.389638504804287522e-01
3.210000000000000000e+02,1.389634201174187733e-01
3.220000000000000000e+02,1.389629807541137574e-01
3.230000000000000000e+02,1.389625322173537458e-01
3.240000000000000000e+02,1.389620743313187690e-01
3.250000000000000000e+02,1.389616069166537682e-01
3.260000000000000000e+02,1.389611297912387577e-01
3.270000000000000000e+02,1.389606427698987512e-01
3.280000000000000000e+02,1.389601456641687549e-01
3.290000000000000000e+02,1.389596382823537479e-01
3.300000000000000000e+02,1.389591204294537696e-01
3.310000000000000000e+02,1.389585919067687636e-01
3.320000000000000000e+02,1.389580525128287503e-01
3.330000000000000000e+02,1.389575020429087704e-01
3.340000000000000000e+02,1.389569402880137527e-01
3.350000000000000000e+02,1.389563670360887682e-01
3.360000000000000000e+02,1.389557820714987513e-01
3.370000000000000000e+02,1.389551851747287681e-01
3.380000000000000000e+02,1.389545761229287468e-01
3.390000000000000000e+02,1.389539546894437705e-01
3.400000000000000000e+02,1.389533206434787616e-01
3.410000000000000000e+02,1.389526737508887666e-01
3.420000000000000000e+02,1.389520137737287608e-01
3.430000000000000000e+02,1.389513404694837639e-01
3.440000000000000000e+02,1.389506535922437613e-01
3.450000000000000000e+02,1.389499528919637683e-01
3.460000000000000000e+02,1.389492381138087707e-01
3.470000000000000000e+02,1.389485089995737555e-01
3.480000000000000000e+02,1.389477652867737723e-01
3.490000000000000000e+02,1.389470067078337479e-01
3.500000000000000000e+02,1.389462329917437733e-01
3.510000000000000000e+02,1.389454438634237510e-01
3.520000000000000000e+02,1.389446390417487520e-01
3.530000000000000000e+02,1.389438182429037494e-01
3.540000000000000000e+02,1.389429811785337643e-01
3.550000000000000000e+02,1.389421275542887524e-01
3.560000000000000000e+02,1.389412570719087692e-01
3.570000000000000000e+02,1.389403694283187496e-01
3.580000000000000000e+02,1.389394643145287489e-01
3.590000000000000000e+02,1.389385414179637734e-01
3.600000000000000000e+02,1.389376004209487703e-01
3.610000000000000000e+02,1.389366409996237728e-01
3.620000000000000000e+02,1.389356628264937499e-01
3.630000000000000000e+02,1.389346655688037668e-01
3.640000000000000000e+02,1.389336488872537634e-01
3.650000000000000000e+02,1.389326124389037576e-01
3.660000000000000000e+02,1.389315558752537705e-01
3.670000000000000000e+02,1.389304788408537716e-01
3.680000000000000000e+02,1.389293809766037613e-01
3.690000000000000000e+02,1.389282619178537626e-01
3.700000000000000000e+02,1.389271212927037646e-01
3.710000000000000000e+02,1.389259587254037531e-01
3.720000000000000000e+02,1.389247738343037664e-01
3.730000000000000000e+02,1.389235662300537522e-01
3.740000000000000000e+02,1.389223355198037635e-01
3.750000000000000000e+02,1.389210813045037574e-01
3.760000000000000000e+02,1.389198031768537622e-01
3.770000000000000000e+02,1.389185007263037674e-01
3.780000000000000000e+02,1.389171735355037574e-01
3.790000000000000000e+02,1.389158211785537500e-01
3.800000000000000000e+02,1.389144432260037698e-01
3.810000000000000000e+02,1.389130392417537718e-01
3.820000000000000000e+02,1.389116087806537558e-01
3.830000000000000000e+02,1.389101513940537713e-01
3.840000000000000000e+02,1.389086666266537706e-01
3.850000000000000000e+02,1.389071540135037586e-01
3.860000000000000000e+02,1.389056130862537652e-01
3.870000000000000000e+02,1.389040433702037614e-01
3.880000000000000000e+02,1.389024443797537700e-01
3.890000000000000000e+02,1.389008156262537541e-01
3.900000000000000000e+02,1.388991566136537625e-01
3.910000000000000000e+02,1.388974668352537523e-01
3.920000000000000000e+02,1.388957457813037588e-01
3.930000000000000000e+02,1.388939929345037461e-01
3.940000000000000000e+02,1.388922077663037602e-01
3.950000000000000000e+02,1.388903897453537539e-01
3.960000000000000000e+02,1.388885383323037459e-01
3.970000000000000000e+02,1.388866529763037594e-01
3.980000000000000000e+02,1.388847331236037486e-01
3.990000000000000000e+02,1.388827782124037458e-01
