# Time [s], Convective Heat Transfer Coefficient [W/m2K]
1.000000000000000000e+00,0.000000000000000000e+00
2.000000000000000000e+00,0.000000000000000000e+00
3.000000000000000000e+00,0.000000000000000000e+00
4.000000000000000000e+00,0.000000000000000000e+00
5.000000000000000000e+00,1.915079995362458862e-02
6.000000000000000000e+00,2.762023300960968902e-02
7.000000000000000000e+00,4.322677809297574558e-02
8.000000000000000000e+00,6.494441196138320271e-02
9.000000000000000000e+00,9.326404508278456074e-02
1.000000000000000000e+01,1.275575242773482887e-01
1.100000000000000000e+01,1.679918363379448165e-01
1.200000000000000000e+01,2.140336507480758155e-01
1.300000000000000000e+01,2.651806077696764463e-01
1.400000000000000000e+01,3.206524886537354679e-01
1.500000000000000000e+01,3.798134551053520269e-01
1.600000000000000000e+01,4.420375843500108926e-01
1.700000000000000000e+01,5.067166528461262143e-01
1.800000000000000000e+01,5.733121066499782259e-01
1.900000000000000000e+01,6.413761268504130086e-01
2.000000000000000000e+01,7.104932360786309076e-01
2.100000000000000000e+01,7.803261962414873576e-01
2.200000000000000000e+01,8.505888470176505844e-01
2.300000000000000000e+01,9.210289103067971217e-01
2.400000000000000000e+01,9.914500607756099315e-01
2.500000000000000000e+01,1.061677710562251686e+00
2.600000000000000000e+01,1.131570847775646538e+00
2.700000000000000000e+01,1.201011040192208501e+00
2.800000000000000000e+01,1.269901685693805904e+00
2.900000000000000000e+01,1.338168319104604764e+00
3.000000000000000000e+01,1.405744066393179725e+00
3.100000000000000000e+01,1.472583585237920101e+00
3.200000000000000000e+01,1.538644216288521882e+00
3.300000000000000000e+01,1.603894755009428019e+00
3.400000000000000000e+01,1.668315412406975451e+00
3.500000000000000000e+01,1.731888019129683265e+00
3.600000000000000000e+01,1.794604474223614687e+00
3.700000000000000000e+01,1.856455161257571040e+00
3.800000000000000000e+01,1.917438065573020989e+00
3.900000000000000000e+01,1.977557746013685058e+00
4.000000000000000000e+01,2.036813261961618160e+00
4.100000000000000000e+01,2.095214006167485543e+00
4.200000000000000000e+01,2.152766091263978776e+00
4.300000000000000000e+01,2.209475975087317856e+00
4.400000000000000000e+01,2.265357399252228010e+00
4.500000000000000000e+01,2.320418772696404286e+00
4.600000000000000000e+01,2.374673454240316950e+00
4.700000000000000000e+01,2.428136668272119270e+00
4.800000000000000000e+01,2.480817098803713705e+00
4.900000000000000000e+01,2.532729512979657649e+00
5.000000000000000000e+01,2.583889370119448969e+00
5.100000000000000000e+01,2.634308478590519975e+00
5.200000000000000000e+01,2.684002666539639481e+00
5.300000000000000000e+01,2.732983729468471346e+00
5.400000000000000000e+01,2.781266660563721516e+00
5.500000000000000000e+01,2.828865646617122920e+00
5.600000000000000000e+01,2.875792684002361099e+00
5.700000000000000000e+01,2.922064003302946134e+00
5.800000000000000000e+01,2.967692698440843824e+00
5.900000000000000000e+01,3.012689762948342231e+00
6.000000000000000000e+01,3.057068085196183116e+00
6.100000000000000000e+01,3.100842002506784212e+00
6.200000000000000000e+01,3.144023378952379932e+00
6.300000000000000000e+01,3.186622346562239638e+00
6.400000000000000000e+01,3.228653774396581522e+00
6.500000000000000000e+01,3.270128422020132763e+00
6.600000000000000000e+01,3.311057573379788455e+00
6.700000000000000000e+01,3.351452837432376874e+00
6.800000000000000000e+01,3.391325368531777240e+00
6.900000000000000000e+01,3.430685892063346287e+00
7.000000000000000000e+01,3.469545214693396495e+00
7.100000000000000000e+01,3.507913337837181622e+00
7.200000000000000000e+01,3.545799337664586659e+00
7.300000000000000000e+01,3.583213540458376478e+00
7.400000000000000000e+01,3.620164967659511124e+00
7.500000000000000000e+01,3.656663289717215548e+00
7.600000000000000000e+01,3.692717719575266511e+00
7.700000000000000000e+01,3.728336960277247147e+00
7.800000000000000000e+01,3.763529737639476735e+00
7.900000000000000000e+01,3.798304301563468766e+00
8.000000000000000000e+01,3.832669017606479489e+00
8.100000000000000000e+01,3.866632270530545590e+00
8.200000000000000000e+01,3.900201147300264459e+00
8.300000000000000000e+01,3.933383809634901418e+00
8.400000000000000000e+01,3.966187017929686309e+00
8.500000000000000000e+01,3.998618362579122731e+00
8.600000000000000000e+01,4.030684824038050174e+00
8.700000000000000000e+01,4.062393312588659988e+00
8.800000000000000000e+01,4.093750180763382929e+00
8.900000000000000000e+01,4.124761812005929507e+00
9.000000000000000000e+01,4.155435021750801816e+00
9.100000000000000000e+01,4.185778225864880575e+00
9.200000000000000000e+01,4.215795265183466256e+00
9.300000000000000000e+01,4.245491698218484267e+00
9.400000000000000000e+01,4.274873206971968820e+00
9.500000000000000000e+01,4.303945460151045843e+00
9.600000000000000000e+01,4.332714424082578120e+00
9.700000000000000000e+01,4.361185911013124361e+00
9.800000000000000000e+01,4.389367106790849071e+00
9.900000000000000000e+01,4.417260184090674002e+00
1.000000000000000000e+02,4.444869782012934145e+00
1.010000000000000000e+02,4.472201741396777841e+00
1.020000000000000000e+02,4.499260776510394244e+00
1.030000000000000000e+02,4.526052026986527643e+00
1.040000000000000000e+02,4.552581936108791361e+00
1.050000000000000000e+02,4.578851810841022107e+00
1.060000000000000000e+02,4.604866171427389965e+00
1.070000000000000000e+02,4.630629896256277966e+00
1.080000000000000000e+02,4.656147176092708229e+00
1.090000000000000000e+02,4.681422779596069006e+00
1.100000000000000000e+02,4.706462075270214207e+00
1.110000000000000000e+02,4.731266241410451379e+00
1.120000000000000000e+02,4.755839262436388104e+00
1.130000000000000000e+02,4.780185223596518540e+00
1.140000000000000000e+02,4.804308305908365107e+00
1.150000000000000000e+02,4.828212781524444885e+00
1.160000000000000000e+02,4.851902014961007481e+00
1.170000000000000000e+02,4.875377226519885809e+00
1.180000000000000000e+02,4.898642667167570686e+00
1.190000000000000000e+02,4.921702238230746040e+00
1.200000000000000000e+02,4.944559795217201348e+00
1.210000000000000000e+02,4.967218486001022448e+00
1.220000000000000000e+02,4.989678902224401469e+00
1.230000000000000000e+02,5.011945344077374465e+00
1.240000000000000000e+02,5.034020991701578573e+00
1.250000000000000000e+02,5.055908824265131329e+00
1.260000000000000000e+02,5.077613354094015818e+00
1.270000000000000000e+02,5.099134889613468502e+00
1.280000000000000000e+02,5.120476095408750261e+00
1.290000000000000000e+02,5.141640212112352337e+00
1.300000000000000000e+02,5.162630154769231261e+00
1.310000000000000000e+02,5.183449484756291525e+00
1.320000000000000000e+02,5.204099272379002272e+00
1.330000000000000000e+02,5.224581239686519218e+00
1.340000000000000000e+02,5.244898330733493985e+00
1.350000000000000000e+02,5.265053778040539534e+00
1.360000000000000000e+02,5.285049625222074887e+00
1.370000000000000000e+02,5.304888685255014558e+00
1.380000000000000000e+02,5.324571332892348963e+00
1.390000000000000000e+02,5.344100102664310903e+00
1.400000000000000000e+02,5.363477901520155022e+00
1.410000000000000000e+02,5.382706783759163116e+00
1.420000000000000000e+02,5.401789786789430003e+00
1.430000000000000000e+02,5.420727351450173259e+00
1.440000000000000000e+02,5.439521170501660841e+00
1.450000000000000000e+02,5.458173674129035646e+00
1.460000000000000000e+02,5.476687068484322296e+00
1.470000000000000000e+02,5.495063731142589170e+00
1.480000000000000000e+02,5.513305666534335181e+00
1.490000000000000000e+02,5.531412452438318361e+00
1.500000000000000000e+02,5.549387020446758356e+00
1.510000000000000000e+02,5.567231167063662944e+00
1.520000000000000000e+02,5.584946791054368198e+00
1.530000000000000000e+02,5.602537046530615683e+00
1.540000000000000000e+02,5.620001152493103724e+00
1.550000000000000000e+02,5.637340776160530531e+00
1.560000000000000000e+02,5.654558237372307339e+00
1.570000000000000000e+02,5.671654778747202030e+00
1.580000000000000000e+02,5.688632877054121906e+00
1.590000000000000000e+02,5.705494300969548682e+00
1.600000000000000000e+02,5.722239202625202026e+00
1.610000000000000000e+02,5.738868510436275550e+00
1.620000000000000000e+02,5.755384224745145438e+00
1.630000000000000000e+02,5.771787700747050387e+00
1.640000000000000000e+02,5.788081134423752161e+00
1.650000000000000000e+02,5.804266392606306724e+00
1.660000000000000000e+02,5.820343709262681742e+00
1.670000000000000000e+02,5.836313551762993157e+00
1.680000000000000000e+02,5.852177947475862396e+00
1.690000000000000000e+02,5.867937858110154004e+00
1.700000000000000000e+02,5.883594459504227103e+00
1.710000000000000000e+02,5.899150750665786092e+00
1.720000000000000000e+02,5.914606520385482291e+00
1.730000000000000000e+02,5.929962625186341540e+00
1.740000000000000000e+02,5.945220431884657764e+00
1.750000000000000000e+02,5.960380684353528302e+00
1.760000000000000000e+02,5.975445224146830547e+00
1.770000000000000000e+02,5.990414483941811419e+00
1.780000000000000000e+02,6.005290768577563831e+00
1.790000000000000000e+02,6.020074236178911242e+00
1.800000000000000000e+02,6.034766068561433272e+00
1.810000000000000000e+02,6.049366687129219322e+00
1.820000000000000000e+02,6.063877776787126805e+00
1.830000000000000000e+02,6.078299879648058734e+00
1.840000000000000000e+02,6.092634156544575852e+00
1.850000000000000000e+02,6.106881682069355222e+00
1.860000000000000000e+02,6.121044165281051441e+00
1.870000000000000000e+02,6.135121509447028387e+00
1.880000000000000000e+02,6.149114701508672454e+00
1.890000000000000000e+02,6.163024739701657317e+00
1.900000000000000000e+02,6.176852142488627351e+00
1.910000000000000000e+02,6.190598333828608801e+00
1.920000000000000000e+02,6.204263798614513270e+00
1.930000000000000000e+02,6.217849677791150498e+00
1.940000000000000000e+02,6.231357362248873599e+00
1.950000000000000000e+02,6.244786806589082140e+00
1.960000000000000000e+02,6.258138921161513935e+00
1.970000000000000000e+02,6.271414539839430979e+00
1.980000000000000000e+02,6.284614510618319549e+00
1.990000000000000000e+02,6.297739459271491924e+00
2.000000000000000000e+02,6.310790176118917572e+00
2.010000000000000000e+02,6.323767495602782951e+00
2.020000000000000000e+02,6.336671974767074111e+00
2.030000000000000000e+02,6.349505292633542020e+00
2.040000000000000000e+02,6.362267046641280288e+00
2.050000000000000000e+02,6.374958279535309025e+00
2.060000000000000000e+02,6.387579471094645633e+00
2.070000000000000000e+02,6.400131578069858662e+00
2.080000000000000000e+02,6.412615113990217885e+00
2.090000000000000000e+02,6.425030781660053592e+00
2.100000000000000000e+02,6.437379158828610670e+00
2.110000000000000000e+02,6.449660925748720075e+00
2.120000000000000000e+02,6.461877031484823064e+00
2.130000000000000000e+02,6.474028130337075915e+00
2.140000000000000000e+02,6.486114309161477465e+00
2.150000000000000000e+02,6.498136206804854709e+00
2.160000000000000000e+02,6.510094727743364729e+00
2.170000000000000000e+02,6.521990486887673910e+00
2.180000000000000000e+02,6.533823814902291360e+00
2.190000000000000000e+02,6.545595583014138796e+00
2.200000000000000000e+02,6.557306104399842184e+00
2.210000000000000000e+02,6.568955957987240524e+00
2.220000000000000000e+02,6.580545713462263357e+00
2.230000000000000000e+02,6.592075931470541050e+00
2.240000000000000000e+02,6.603547432258193517e+00
2.250000000000000000e+02,6.614960221157950571e+00
2.260000000000000000e+02,6.626315102229042964e+00
2.270000000000000000e+02,6.637612867559463226e+00
2.280000000000000000e+02,6.648852973540456901e+00
2.290000000000000000e+02,6.660037521995494814e+00
2.300000000000000000e+02,6.671165692363816291e+00
2.310000000000000000e+02,6.682238509165801865e+00
2.320000000000000000e+02,6.693256459868873520e+00
2.330000000000000000e+02,6.704219503752101517e+00
2.340000000000000000e+02,6.715128897694664367e+00
2.350000000000000000e+02,6.725984587620422062e+00
2.360000000000000000e+02,6.736787293064685933e+00
2.370000000000000000e+02,6.747537209283371418e+00
2.380000000000000000e+02,6.758234784490713132e+00
2.390000000000000000e+02,6.768880460393881471e+00
2.400000000000000000e+02,6.779474927015177066e+00
2.410000000000000000e+02,6.790018357157356910e+00
2.420000000000000000e+02,6.800511173789605124e+00
2.430000000000000000e+02,6.810953793870381467e+00
2.440000000000000000e+02,6.821346880040019656e+00
2.450000000000000000e+02,6.831690584483899542e+00
2.460000000000000000e+02,6.841985556897999921e+00
2.470000000000000000e+02,6.852231690487600169e+00
2.480000000000000000e+02,6.862429873257793744e+00
2.490000000000000000e+02,6.872579990593611576e+00
2.500000000000000000e+02,6.882682916932260753e+00
2.510000000000000000e+02,6.892739022969766260e+00
2.520000000000000000e+02,6.902748674382469751e+00
2.530000000000000000e+02,6.912711986949930498e+00
2.540000000000000000e+02,6.922629318689276445e+00
2.550000000000000000e+02,6.932501022832395776e+00
2.560000000000000000e+02,6.942327690797343465e+00
2.570000000000000000e+02,6.952109422254857840e+00
2.580000000000000000e+02,6.961846798138309644e+00
2.590000000000000000e+02,6.971539910541752150e+00
2.600000000000000000e+02,6.981189330261602599e+00
2.610000000000000000e+02,6.990795381635901862e+00
2.620000000000000000e+02,7.000358145946633748e+00
2.630000000000000000e+02,7.009878179412137200e+00
2.640000000000000000e+02,7.019355556443884758e+00
2.650000000000000000e+02,7.028790823927636211e+00
2.660000000000000000e+02,7.038184285977869159e+00
2.670000000000000000e+02,7.047536242878984503e+00
2.680000000000000000e+02,7.056846756085910499e+00
2.690000000000000000e+02,7.066116354716285741e+00
2.700000000000000000e+02,7.075345094099847465e+00
2.710000000000000000e+02,7.084533728109623674e+00
2.720000000000000000e+02,7.093681606482741486e+00
2.730000000000000000e+02,7.102789941341304036e+00
2.740000000000000000e+02,7.111859006088574908e+00
2.750000000000000000e+02,7.120888609102937750e+00
2.760000000000000000e+02,7.129879250981659311e+00
2.770000000000000000e+02,7.138831197055343303e+00
2.780000000000000000e+02,7.147744938599256415e+00
2.790000000000000000e+02,7.156620504375887926e+00
2.800000000000000000e+02,7.165458378337447698e+00
2.810000000000000000e+02,7.174258129436283049e+00
2.820000000000000000e+02,7.183020918483334682e+00
2.830000000000000000e+02,7.191746310197335568e+00
2.840000000000000000e+02,7.200435001931978718e+00
2.850000000000000000e+02,7.209087458601449505e+00
2.860000000000000000e+02,7.217703241384008983e+00
2.870000000000000000e+02,7.226283260183158141e+00
2.880000000000000000e+02,7.234827073968711275e+00
2.890000000000000000e+02,7.243335360979197723e+00
2.900000000000000000e+02,7.251807902253166738e+00
2.910000000000000000e+02,7.260245368720909198e+00
2.920000000000000000e+02,7.268647981508896017e+00
2.930000000000000000e+02,7.277015738205820483e+00
2.940000000000000000e+02,7.285349297630961729e+00
2.950000000000000000e+02,7.293648872062633792e+00
2.960000000000000000e+02,7.301914232328861942e+00
2.970000000000000000e+02,7.310145808070107165e+00
2.980000000000000000e+02,7.318344024642885692e+00
2.990000000000000000e+02,7.326508430871696120e+00
3.000000000000000000e+02,7.334640102345579393e+00
3.010000000000000000e+02,7.342738802035741585e+00
3.020000000000000000e+02,7.350804944520625384e+00
3.030000000000000000e+02,7.358838291849513880e+00
3.040000000000000000e+02,7.366839470537060564e+00
3.050000000000000000e+02,7.374808240346760968e+00
3.060000000000000000e+02,7.382745436569846831e+00
3.070000000000000000e+02,7.390651029710010533e+00
3.080000000000000000e+02,7.398524990149555336e+00
3.090000000000000000e+02,7.406367714949010583e+00
3.100000000000000000e+02,7.414179384489631097e+00
3.110000000000000000e+02,7.421960177270479520e+00
3.120000000000000000e+02,7.429709845808140756e+00
3.130000000000000000e+02,7.437429414050200194e+00
3.140000000000000000e+02,7.445118418807057381e+00
3.150000000000000000e+02,7.452777243364203663e+00
3.160000000000000000e+02,7.460406477833608108e+00
3.170000000000000000e+02,7.468005657704513744e+00
3.180000000000000000e+02,7.475575369240394785e+00
3.190000000000000000e+02,7.483115566487139603e+00
3.200000000000000000e+02,7.490626412152929348e+00
3.210000000000000000e+02,7.498108067308932867e+00
3.220000000000000000e+02,7.505560691411521823e+00
3.230000000000000000e+02,7.512984649712532104e+00
3.240000000000000000e+02,7.520380304261579774e+00
3.250000000000000000e+02,7.527747394227322530e+00
3.260000000000000000e+02,7.535086485193411399e+00
3.270000000000000000e+02,7.542397109167445990e+00
3.280000000000000000e+02,7.549680239102362300e+00
3.290000000000000000e+02,7.556935610259768232e+00
3.300000000000000000e+02,7.564162755038680075e+00
3.310000000000000000e+02,7.571362842710201768e+00
3.320000000000000000e+02,7.578535606660099511e+00
3.330000000000000000e+02,7.585681392293334824e+00
3.340000000000000000e+02,7.592800542128049557e+00
3.350000000000000000e+02,7.599892382476120645e+00
3.360000000000000000e+02,7.606957862741961840e+00
3.370000000000000000e+02,7.613996511553080104e+00
3.380000000000000000e+02,7.621008868484120846e+00
3.390000000000000000e+02,7.627995066502631261e+00
3.400000000000000000e+02,7.634955237329810629e+00
3.410000000000000000e+02,7.641889711907096761e+00
3.420000000000000000e+02,7.648798018157155987e+00
3.430000000000000000e+02,7.655680885507984534e+00
3.440000000000000000e+02,7.662538041026945024e+00
3.450000000000000000e+02,7.669370208550027712e+00
3.460000000000000000e+02,7.676176517196867444e+00
3.470000000000000000e+02,7.682958283433436897e+00
3.480000000000000000e+02,7.689715230475640872e+00
3.490000000000000000e+02,7.696447083234519759e+00
3.500000000000000000e+02,7.703154554661376885e+00
3.510000000000000000e+02,7.709836973972674201e+00
3.520000000000000000e+02,7.716495050927016486e+00
3.530000000000000000e+02,7.723129097633749218e+00
3.540000000000000000e+02,7.729739227904303789e+00
3.550000000000000000e+02,7.736325163365441071e+00
3.560000000000000000e+02,7.742887017807720262e+00
3.570000000000000000e+02,7.749425098936849388e+00
3.580000000000000000e+02,7.755939712150127008e+00
3.590000000000000000e+02,7.762430577747116089e+00
3.600000000000000000e+02,7.768898193463615875e+00
3.610000000000000000e+02,7.775342666242047507e+00
3.620000000000000000e+02,7.781763715475906729e+00
3.630000000000000000e+02,7.788162027140213439e+00
3.640000000000000000e+02,7.794536933756051056e+00
3.650000000000000000e+02,7.800889695605698115e+00
3.660000000000000000e+02,7.807219259954166546e+00
3.670000000000000000e+02,7.813526689813882875e+00
3.680000000000000000e+02,7.819811318237559483e+00
3.690000000000000000e+02,7.826073820230408096e+00
3.700000000000000000e+02,7.832313912163157532e+00
3.710000000000000000e+02,7.838532074079560985e+00
3.720000000000000000e+02,7.844728021901757664e+00
3.730000000000000000e+02,7.850902422735241082e+00
3.740000000000000000e+02,7.857054801561984547e+00
3.750000000000000000e+02,7.863185443438720057e+00
3.760000000000000000e+02,7.869294820477471752e+00
3.770000000000000000e+02,7.875382646706035494e+00
3.780000000000000000e+02,7.881449203073144893e+00
3.790000000000000000e+02,7.887494392282844657e+00
3.800000000000000000e+02,7.893518493189199958e+00
3.810000000000000000e+02,7.899521595165850840e+00
3.820000000000000000e+02,7.905503599549582816e+00
3.830000000000000000e+02,7.911464782128939888e+00
3.840000000000000000e+02,7.917405603587702068e+00
3.850000000000000000e+02,7.923325216423632078e+00
3.860000000000000000e+02,7.929224826051308739e+00
3.870000000000000000e+02,7.935103957349403991e+00
3.880000000000000000e+02,7.940962509102980071e+00
3.890000000000000000e+02,7.946801121964690573e+00
3.900000000000000000e+02,7.952619322097692844e+00
3.910000000000000000e+02,7.958417932016098817e+00
3.920000000000000000e+02,7.964196292839230473e+00
3.930000000000000000e+02,7.969954670770675875e+00
3.940000000000000000e+02,7.975693698347879668e+00
3.950000000000000000e+02,7.981412901750847944e+00
3.960000000000000000e+02,7.987112360194427829e+00
3.970000000000000000e+02,7.992792518743474517e+00
3.980000000000000000e+02,7.998453270839552154e+00
