# Time [s], Temperature [C]
1.000000000000000000e+00,2.499997099999999861e+01
2.000000000000000000e+00,8.516953999999999780e+01
3.000000000000000000e+00,1.226379100000000051e+02
4.000000000000000000e+00,1.512281999999999869e+02
5.000000000000000000e+00,1.750696299999999894e+02
6.000000000000000000e+00,1.957513299999999958e+02
7.000000000000000000e+00,2.141251800000000003e+02
8.000000000000000000e+00,2.307409700000000043e+02
9.000000000000000000e+00,2.460473800000000040e+02
1.000000000000000000e+01,2.605157500000000255e+02
1.100000000000000000e+01,2.745277699999999754e+02
1.200000000000000000e+01,2.878937999999999988e+02
1.300000000000000000e+01,3.000871900000000210e+02
1.400000000000000000e+01,3.110004299999999944e+02
1.500000000000000000e+01,3.207734100000000126e+02
1.600000000000000000e+01,3.294871800000000235e+02
1.700000000000000000e+01,3.371414800000000014e+02
1.800000000000000000e+01,3.437193599999999947e+02
1.900000000000000000e+01,3.492795699999999783e+02
2.000000000000000000e+01,3.538290999999999826e+02
2.100000000000000000e+01,3.555154699999999934e+02
2.200000000000000000e+01,3.597187200000000189e+02
2.300000000000000000e+01,3.627604099999999789e+02
2.400000000000000000e+01,3.660010700000000270e+02
2.500000000000000000e+01,3.689743000000000279e+02
2.600000000000000000e+01,3.720164800000000014e+02
2.700000000000000000e+01,3.750239300000000071e+02
2.800000000000000000e+01,3.781039700000000039e+02
2.900000000000000000e+01,3.812416699999999992e+02
3.000000000000000000e+01,3.844472999999999843e+02
3.100000000000000000e+01,3.877182900000000245e+02
3.200000000000000000e+01,3.910448900000000094e+02
3.300000000000000000e+01,3.943899200000000178e+02
3.400000000000000000e+01,3.977295500000000175e+02
3.500000000000000000e+01,4.010368700000000217e+02
3.600000000000000000e+01,4.042564100000000167e+02
3.700000000000000000e+01,4.073775600000000168e+02
3.800000000000000000e+01,4.103824500000000057e+02
3.900000000000000000e+01,4.132573499999999740e+02
4.000000000000000000e+01,4.160295100000000161e+02
4.100000000000000000e+01,4.187070299999999747e+02
4.200000000000000000e+01,4.213219300000000089e+02
4.300000000000000000e+01,4.239018599999999992e+02
4.400000000000000000e+01,4.264548599999999965e+02
4.500000000000000000e+01,4.290196799999999939e+02
4.600000000000000000e+01,4.315788000000000011e+02
4.700000000000000000e+01,4.341490499999999884e+02
4.800000000000000000e+01,4.367165200000000027e+02
4.900000000000000000e+01,4.392652600000000120e+02
5.000000000000000000e+01,4.417973299999999881e+02
5.100000000000000000e+01,4.442671500000000151e+02
5.200000000000000000e+01,4.466807299999999827e+02
5.300000000000000000e+01,4.490439799999999764e+02
5.400000000000000000e+01,4.513244300000000067e+02
5.500000000000000000e+01,4.535529199999999719e+02
5.600000000000000000e+01,4.548076800000000048e+02
5.700000000000000000e+01,4.456894500000000221e+02
5.800000000000000000e+01,4.487499099999999999e+02
5.900000000000000000e+01,4.502250099999999975e+02
6.000000000000000000e+01,4.529528500000000122e+02
6.100000000000000000e+01,4.551609799999999950e+02
6.200000000000000000e+01,4.576348899999999844e+02
6.300000000000000000e+01,4.598890700000000038e+02
6.400000000000000000e+01,4.621776699999999778e+02
6.500000000000000000e+01,4.643459500000000162e+02
6.600000000000000000e+01,4.664903899999999908e+02
6.700000000000000000e+01,4.685452599999999848e+02
6.800000000000000000e+01,4.705593900000000076e+02
6.900000000000000000e+01,4.725198100000000068e+02
7.000000000000000000e+01,4.744529699999999934e+02
7.100000000000000000e+01,4.763479899999999816e+02
7.200000000000000000e+01,4.782258600000000115e+02
7.300000000000000000e+01,4.800837700000000154e+02
7.400000000000000000e+01,4.819250499999999988e+02
7.500000000000000000e+01,4.837611400000000117e+02
7.600000000000000000e+01,4.855674999999999955e+02
7.700000000000000000e+01,4.873630999999999744e+02
7.800000000000000000e+01,4.891317099999999982e+02
7.900000000000000000e+01,4.908804299999999898e+02
8.000000000000000000e+01,4.925964999999999918e+02
8.100000000000000000e+01,4.942839099999999917e+02
8.200000000000000000e+01,4.959352700000000027e+02
8.300000000000000000e+01,4.975529199999999719e+02
8.400000000000000000e+01,4.991468800000000101e+02
8.500000000000000000e+01,5.007085299999999961e+02
8.600000000000000000e+01,5.022560399999999845e+02
8.700000000000000000e+01,5.037817400000000134e+02
8.800000000000000000e+01,5.052889700000000062e+02
8.900000000000000000e+01,5.067798500000000104e+02
9.000000000000000000e+01,5.082607399999999984e+02
9.100000000000000000e+01,5.082385600000000068e+02
9.200000000000000000e+01,5.096291800000000194e+02
9.300000000000000000e+01,5.106296100000000138e+02
9.400000000000000000e+01,5.120060999999999467e+02
9.500000000000000000e+01,5.133798199999999952e+02
9.600000000000000000e+01,5.148102400000000216e+02
9.700000000000000000e+01,5.162318699999999581e+02
9.800000000000000000e+01,5.176545999999999594e+02
9.900000000000000000e+01,5.190674400000000333e+02
1.000000000000000000e+02,5.204529999999999745e+02
1.010000000000000000e+02,5.218378300000000536e+02
1.020000000000000000e+02,5.231995200000000068e+02
1.030000000000000000e+02,5.245542599999999993e+02
1.040000000000000000e+02,5.258897699999999986e+02
1.050000000000000000e+02,5.272191199999999753e+02
1.060000000000000000e+02,5.285313099999999622e+02
1.070000000000000000e+02,5.298237299999999550e+02
1.080000000000000000e+02,5.311063799999999446e+02
1.090000000000000000e+02,5.323701800000000048e+02
1.100000000000000000e+02,5.336188399999999774e+02
1.110000000000000000e+02,5.348483300000000327e+02
1.120000000000000000e+02,5.360657999999999674e+02
1.130000000000000000e+02,5.372601899999999659e+02
1.140000000000000000e+02,5.384411000000000058e+02
1.150000000000000000e+02,5.396105300000000398e+02
1.160000000000000000e+02,5.407686200000000554e+02
1.170000000000000000e+02,5.419118700000000217e+02
1.180000000000000000e+02,5.430405299999999897e+02
1.190000000000000000e+02,5.441644900000000007e+02
1.200000000000000000e+02,5.452715500000000475e+02
1.210000000000000000e+02,5.463750000000000000e+02
1.220000000000000000e+02,5.474747300000000223e+02
1.230000000000000000e+02,5.485535300000000234e+02
1.240000000000000000e+02,5.496314099999999598e+02
1.250000000000000000e+02,5.504629499999999780e+02
1.260000000000000000e+02,5.511718100000000504e+02
1.270000000000000000e+02,5.520744600000000446e+02
1.280000000000000000e+02,5.529371300000000247e+02
1.290000000000000000e+02,5.538654800000000478e+02
1.300000000000000000e+02,5.548242800000000443e+02
1.310000000000000000e+02,5.558024299999999585e+02
1.320000000000000000e+02,5.568050500000000511e+02
1.330000000000000000e+02,5.578090799999999945e+02
1.340000000000000000e+02,5.588250100000000202e+02
1.350000000000000000e+02,5.598342900000000100e+02
1.360000000000000000e+02,5.608471700000000055e+02
1.370000000000000000e+02,5.618474099999999680e+02
1.380000000000000000e+02,5.628481399999999439e+02
1.390000000000000000e+02,5.638336799999999585e+02
1.400000000000000000e+02,5.648176899999999705e+02
1.410000000000000000e+02,5.657832600000000411e+02
1.420000000000000000e+02,5.667449299999999539e+02
1.430000000000000000e+02,5.676923799999999574e+02
1.440000000000000000e+02,5.686350099999999657e+02
1.450000000000000000e+02,5.695678699999999708e+02
1.460000000000000000e+02,5.704885900000000447e+02
1.470000000000000000e+02,5.714086899999999787e+02
1.480000000000000000e+02,5.723151199999999790e+02
1.490000000000000000e+02,5.732104500000000371e+02
1.500000000000000000e+02,5.741016799999999876e+02
1.510000000000000000e+02,5.749907200000000103e+02
1.520000000000000000e+02,5.758692600000000539e+02
1.530000000000000000e+02,5.767362699999999904e+02
1.540000000000000000e+02,5.775692099999999982e+02
1.550000000000000000e+02,5.783079199999999673e+02
1.560000000000000000e+02,5.790317400000000134e+02
1.570000000000000000e+02,5.797857099999999946e+02
1.580000000000000000e+02,5.805346700000000055e+02
1.590000000000000000e+02,5.812935199999999440e+02
1.600000000000000000e+02,5.820693999999999733e+02
1.610000000000000000e+02,5.828544900000000553e+02
1.620000000000000000e+02,5.836392799999999852e+02
1.630000000000000000e+02,5.844313399999999774e+02
1.640000000000000000e+02,5.852201499999999896e+02
1.650000000000000000e+02,5.860116600000000062e+02
1.660000000000000000e+02,5.868004200000000310e+02
1.670000000000000000e+02,5.875830099999999447e+02
1.680000000000000000e+02,5.883654800000000478e+02
1.690000000000000000e+02,5.891362900000000309e+02
1.700000000000000000e+02,5.899071699999999510e+02
1.710000000000000000e+02,5.906707800000000361e+02
1.720000000000000000e+02,5.914305399999999509e+02
1.730000000000000000e+02,5.921812099999999646e+02
1.740000000000000000e+02,5.929274900000000343e+02
1.750000000000000000e+02,5.936719399999999496e+02
1.760000000000000000e+02,5.944019200000000183e+02
1.770000000000000000e+02,5.951292099999999436e+02
1.780000000000000000e+02,5.958403299999999945e+02
1.790000000000000000e+02,5.965131199999999581e+02
1.800000000000000000e+02,5.971719399999999496e+02
1.810000000000000000e+02,5.978149399999999787e+02
1.820000000000000000e+02,5.984651499999999942e+02
1.830000000000000000e+02,5.991113900000000285e+02
1.840000000000000000e+02,5.997560999999999467e+02
1.850000000000000000e+02,6.004074699999999893e+02
1.860000000000000000e+02,6.010587799999999561e+02
1.870000000000000000e+02,6.017050799999999526e+02
1.880000000000000000e+02,6.023588300000000118e+02
1.890000000000000000e+02,6.030036599999999680e+02
1.900000000000000000e+02,6.036491099999999506e+02
1.910000000000000000e+02,6.042958999999999605e+02
1.920000000000000000e+02,6.049335899999999810e+02
1.930000000000000000e+02,6.055706199999999626e+02
1.940000000000000000e+02,6.062083699999999453e+02
1.950000000000000000e+02,6.068397200000000566e+02
1.960000000000000000e+02,6.074687500000000000e+02
1.970000000000000000e+02,6.080909400000000460e+02
1.980000000000000000e+02,6.087110599999999749e+02
1.990000000000000000e+02,6.093275099999999611e+02
2.000000000000000000e+02,6.099368899999999485e+02
2.010000000000000000e+02,6.105481600000000526e+02
2.020000000000000000e+02,6.111499000000000024e+02
2.030000000000000000e+02,6.117617800000000443e+02
2.040000000000000000e+02,6.123596800000000258e+02
2.050000000000000000e+02,6.129401900000000296e+02
2.060000000000000000e+02,6.135030500000000302e+02
2.070000000000000000e+02,6.140645799999999781e+02
2.080000000000000000e+02,6.146240199999999732e+02
2.090000000000000000e+02,6.151765100000000075e+02
2.100000000000000000e+02,6.157323000000000093e+02
2.110000000000000000e+02,6.162866800000000467e+02
2.120000000000000000e+02,6.168426500000000487e+02
2.130000000000000000e+02,6.173961199999999963e+02
2.140000000000000000e+02,6.179517799999999852e+02
2.150000000000000000e+02,6.185082400000000007e+02
2.160000000000000000e+02,6.190599999999999454e+02
2.170000000000000000e+02,6.196167599999999993e+02
2.180000000000000000e+02,6.201746799999999666e+02
2.190000000000000000e+02,6.207269900000000007e+02
2.200000000000000000e+02,6.212836300000000165e+02
2.210000000000000000e+02,6.218396599999999808e+02
2.220000000000000000e+02,6.223966699999999719e+02
2.230000000000000000e+02,6.229515400000000227e+02
2.240000000000000000e+02,6.235095199999999522e+02
2.250000000000000000e+02,6.240677500000000464e+02
2.260000000000000000e+02,6.246229899999999589e+02
2.270000000000000000e+02,6.251881100000000515e+02
2.280000000000000000e+02,6.257474399999999832e+02
2.290000000000000000e+02,6.263075000000000045e+02
2.300000000000000000e+02,6.268745099999999866e+02
2.310000000000000000e+02,6.274356099999999969e+02
2.320000000000000000e+02,6.279720499999999674e+02
2.330000000000000000e+02,6.285432100000000446e+02
2.340000000000000000e+02,6.291053500000000440e+02
2.350000000000000000e+02,6.296755399999999554e+02
2.360000000000000000e+02,6.302442600000000539e+02
2.370000000000000000e+02,6.308278199999999742e+02
2.380000000000000000e+02,6.314093000000000302e+02
2.390000000000000000e+02,6.320065899999999601e+02
2.400000000000000000e+02,6.326069899999999961e+02
2.410000000000000000e+02,6.332230200000000195e+02
2.420000000000000000e+02,6.338457600000000411e+02
2.430000000000000000e+02,6.344867600000000039e+02
2.440000000000000000e+02,6.351386099999999715e+02
2.450000000000000000e+02,6.358096900000000460e+02
2.460000000000000000e+02,6.364891400000000203e+02
2.470000000000000000e+02,6.371914100000000190e+02
2.480000000000000000e+02,6.379116199999999708e+02
2.490000000000000000e+02,6.386553999999999860e+02
2.500000000000000000e+02,6.394180300000000443e+02
2.510000000000000000e+02,6.402050199999999904e+02
2.520000000000000000e+02,6.410195300000000316e+02
2.530000000000000000e+02,6.418596800000000258e+02
2.540000000000000000e+02,6.427336999999999989e+02
2.550000000000000000e+02,6.436321400000000494e+02
2.560000000000000000e+02,6.445682399999999461e+02
2.570000000000000000e+02,6.455385099999999738e+02
2.580000000000000000e+02,6.465413200000000415e+02
2.590000000000000000e+02,6.475822100000000319e+02
2.600000000000000000e+02,6.486556399999999485e+02
2.610000000000000000e+02,6.497658099999999877e+02
2.620000000000000000e+02,6.509000200000000405e+02
2.630000000000000000e+02,6.520700699999999870e+02
2.640000000000000000e+02,6.532590300000000525e+02
2.650000000000000000e+02,6.544731399999999439e+02
2.660000000000000000e+02,6.557034899999999880e+02
2.670000000000000000e+02,6.569456800000000385e+02
2.680000000000000000e+02,6.581979999999999791e+02
2.690000000000000000e+02,6.594614900000000262e+02
2.700000000000000000e+02,6.607224700000000439e+02
2.710000000000000000e+02,6.619886500000000069e+02
2.720000000000000000e+02,6.632513999999999896e+02
2.730000000000000000e+02,6.645118400000000065e+02
2.740000000000000000e+02,6.657661100000000260e+02
2.750000000000000000e+02,6.670180699999999661e+02
2.760000000000000000e+02,6.682586700000000519e+02
2.770000000000000000e+02,6.694885900000000447e+02
2.780000000000000000e+02,6.707137500000000045e+02
2.790000000000000000e+02,6.719260900000000447e+02
2.800000000000000000e+02,6.731251800000000003e+02
2.810000000000000000e+02,6.743149399999999787e+02
2.820000000000000000e+02,6.754919999999999618e+02
2.830000000000000000e+02,6.766543599999999969e+02
2.840000000000000000e+02,6.778072499999999536e+02
2.850000000000000000e+02,6.789420800000000327e+02
2.860000000000000000e+02,6.800674999999999955e+02
2.870000000000000000e+02,6.811752900000000182e+02
2.880000000000000000e+02,6.822724600000000237e+02
2.890000000000000000e+02,6.833543100000000550e+02
2.900000000000000000e+02,6.844232200000000148e+02
2.910000000000000000e+02,6.854783300000000281e+02
2.920000000000000000e+02,6.865164200000000392e+02
2.930000000000000000e+02,6.875471199999999499e+02
2.940000000000000000e+02,6.885575599999999667e+02
2.950000000000000000e+02,6.895568200000000161e+02
2.960000000000000000e+02,6.905445600000000468e+02
2.970000000000000000e+02,6.915138500000000477e+02
2.980000000000000000e+02,6.924727199999999812e+02
2.990000000000000000e+02,6.934174799999999550e+02
3.000000000000000000e+02,6.943466799999999921e+02
3.010000000000000000e+02,6.952645300000000361e+02
3.020000000000000000e+02,6.961701000000000477e+02
3.030000000000000000e+02,6.970612200000000485e+02
3.040000000000000000e+02,6.979403700000000299e+02
3.050000000000000000e+02,6.988076200000000426e+02
3.060000000000000000e+02,6.996615000000000464e+02
3.070000000000000000e+02,7.005010399999999890e+02
3.080000000000000000e+02,7.013314199999999801e+02
3.090000000000000000e+02,7.021480699999999615e+02
3.100000000000000000e+02,7.029524499999999989e+02
3.110000000000000000e+02,7.037458500000000186e+02
3.120000000000000000e+02,7.045262500000000045e+02
3.130000000000000000e+02,7.052954099999999471e+02
3.140000000000000000e+02,7.060539599999999609e+02
3.150000000000000000e+02,7.068006599999999935e+02
3.160000000000000000e+02,7.075339400000000296e+02
3.170000000000000000e+02,7.082586099999999760e+02
3.180000000000000000e+02,7.089706400000000031e+02
3.190000000000000000e+02,7.096725500000000011e+02
3.200000000000000000e+02,7.103657799999999725e+02
3.210000000000000000e+02,7.110472399999999880e+02
3.220000000000000000e+02,7.117163699999999835e+02
3.230000000000000000e+02,7.123788500000000568e+02
3.240000000000000000e+02,7.130290499999999838e+02
3.250000000000000000e+02,7.136679100000000062e+02
3.260000000000000000e+02,7.142999300000000176e+02
3.270000000000000000e+02,7.149205899999999474e+02
3.280000000000000000e+02,7.155300899999999729e+02
3.290000000000000000e+02,7.161340300000000525e+02
3.300000000000000000e+02,7.167241800000000467e+02
3.310000000000000000e+02,7.173090799999999945e+02
3.320000000000000000e+02,7.178820200000000114e+02
3.330000000000000000e+02,7.184478800000000547e+02
3.340000000000000000e+02,7.190025600000000168e+02
3.350000000000000000e+02,7.195527299999999968e+02
3.360000000000000000e+02,7.200896599999999808e+02
3.370000000000000000e+02,7.206197499999999536e+02
3.380000000000000000e+02,7.211433100000000422e+02
3.390000000000000000e+02,7.216557599999999866e+02
3.400000000000000000e+02,7.221607699999999568e+02
3.410000000000000000e+02,7.226603400000000192e+02
3.420000000000000000e+02,7.231495400000000018e+02
3.430000000000000000e+02,7.236305499999999711e+02
3.440000000000000000e+02,7.241054699999999684e+02
3.450000000000000000e+02,7.245727500000000418e+02
3.460000000000000000e+02,7.250311900000000378e+02
3.470000000000000000e+02,7.254843799999999874e+02
3.480000000000000000e+02,7.259278000000000475e+02
3.490000000000000000e+02,7.263651700000000346e+02
3.500000000000000000e+02,7.267967499999999745e+02
3.510000000000000000e+02,7.272188700000000381e+02
3.520000000000000000e+02,7.276369600000000446e+02
3.530000000000000000e+02,7.280476700000000392e+02
3.540000000000000000e+02,7.284511099999999715e+02
3.550000000000000000e+02,7.288471100000000433e+02
3.560000000000000000e+02,7.292387700000000450e+02
3.570000000000000000e+02,7.296224399999999832e+02
3.580000000000000000e+02,7.300004900000000134e+02
3.590000000000000000e+02,7.303729899999999589e+02
3.600000000000000000e+02,7.307383999999999560e+02
3.610000000000000000e+02,7.310978400000000192e+02
3.620000000000000000e+02,7.314509299999999712e+02
3.630000000000000000e+02,7.317990099999999529e+02
3.640000000000000000e+02,7.321409899999999880e+02
3.650000000000000000e+02,7.324790000000000418e+02
3.660000000000000000e+02,7.328101199999999835e+02
3.670000000000000000e+02,7.331358599999999797e+02
3.680000000000000000e+02,7.334575800000000072e+02
3.690000000000000000e+02,7.337713599999999587e+02
3.700000000000000000e+02,7.340817899999999554e+02
3.710000000000000000e+02,7.343873899999999821e+02
3.720000000000000000e+02,7.346875000000000000e+02
3.730000000000000000e+02,7.349826699999999846e+02
3.740000000000000000e+02,7.352728299999999990e+02
3.750000000000000000e+02,7.355583500000000186e+02
3.760000000000000000e+02,7.358388099999999667e+02
3.770000000000000000e+02,7.361158400000000483e+02
3.780000000000000000e+02,7.363857400000000553e+02
3.790000000000000000e+02,7.366531999999999698e+02
3.800000000000000000e+02,7.369168700000000172e+02
3.810000000000000000e+02,7.371737100000000282e+02
3.820000000000000000e+02,7.374280400000000100e+02
3.830000000000000000e+02,7.376785300000000234e+02
3.840000000000000000e+02,7.379227899999999636e+02
3.850000000000000000e+02,7.381652800000000525e+02
3.860000000000000000e+02,7.384019200000000183e+02
3.870000000000000000e+02,7.386359899999999925e+02
3.880000000000000000e+02,7.388657799999999725e+02
3.890000000000000000e+02,7.390910599999999704e+02
3.900000000000000000e+02,7.393134800000000268e+02
3.910000000000000000e+02,7.395306399999999485e+02
3.920000000000000000e+02,7.397464599999999564e+02
3.930000000000000000e+02,7.399574000000000069e+02
3.940000000000000000e+02,7.401641200000000254e+02
3.950000000000000000e+02,7.403694500000000289e+02
3.960000000000000000e+02,7.405686600000000226e+02
3.970000000000000000e+02,7.407669100000000526e+02
3.980000000000000000e+02,7.409599600000000237e+02
3.990000000000000000e+02,7.411519200000000183e+02
