# Time [s], Convective Heat Transfer Coefficient [W/m2K]
1.000000000000000000e+00,0.000000000000000000e+00
2.000000000000000000e+00,0.000000000000000000e+00
3.000000000000000000e+00,0.000000000000000000e+00
4.000000000000000000e+00,0.000000000000000000e+00
5.000000000000000000e+00,2.762023300960968902e-02
6.000000000000000000e+00,5.110202618333640340e-02
7.000000000000000000e+00,8.353714283346275193e-02
8.000000000000000000e+00,1.275575242773482887e-01
9.000000000000000000e+00,1.837966853187263105e-01
1.000000000000000000e+01,2.521673707981507695e-01
1.100000000000000000e+01,3.323566859928276385e-01
1.200000000000000000e+01,4.234173975323883288e-01
1.300000000000000000e+01,5.241971910560156989e-01
1.400000000000000000e+01,6.334063929939266480e-01
1.500000000000000000e+01,7.497180575564098559e-01
1.600000000000000000e+01,8.718810420448435128e-01
1.700000000000000000e+01,9.987416483620008556e-01
1.800000000000000000e+01,1.129255906263628484e+00
1.900000000000000000e+01,1.262520874093581602e+00
2.000000000000000000e+01,1.406053810455756059e+00
2.100000000000000000e+01,1.545761659523702036e+00
2.200000000000000000e+01,1.684841636439701862e+00
2.300000000000000000e+01,1.823548462303533180e+00
2.400000000000000000e+01,1.961648492024466339e+00
2.500000000000000000e+01,2.098914264234340799e+00
2.600000000000000000e+01,2.235136462618910524e+00
2.700000000000000000e+01,2.370133555065656594e+00
2.800000000000000000e+01,2.503743853215986359e+00
2.900000000000000000e+01,2.635825937241571104e+00
3.000000000000000000e+01,2.766268141684421700e+00
3.100000000000000000e+01,2.894973184520464926e+00
3.200000000000000000e+01,3.021853292181841510e+00
3.300000000000000000e+01,3.146840636243238176e+00
3.400000000000000000e+01,3.269876192527982006e+00
3.500000000000000000e+01,3.390915748656404105e+00
3.600000000000000000e+01,3.509925868419597528e+00
3.700000000000000000e+01,3.626885310625349135e+00
3.800000000000000000e+01,3.741783624336096459e+00
3.900000000000000000e+01,3.854616190386385366e+00
4.000000000000000000e+01,3.965392250469579327e+00
4.100000000000000000e+01,4.074124206691780437e+00
4.200000000000000000e+01,4.180829194398355320e+00
4.300000000000000000e+01,4.285537351341519141e+00
4.400000000000000000e+01,4.388281451804656008e+00
4.500000000000000000e+01,4.489091913928620947e+00
4.600000000000000000e+01,4.588007135547668369e+00
4.700000000000000000e+01,4.685068638730443880e+00
4.800000000000000000e+01,4.780314369659543594e+00
4.900000000000000000e+01,4.873789430119080279e+00
5.000000000000000000e+01,4.965535640051828459e+00
5.100000000000000000e+01,5.055593511123332995e+00
5.200000000000000000e+01,5.144008801270387288e+00
5.300000000000000000e+01,5.230824024870781130e+00
5.400000000000000000e+01,5.316080434833681423e+00
5.500000000000000000e+01,5.399819819420486944e+00
5.600000000000000000e+01,5.482117585843687024e+00
5.700000000000000000e+01,5.562957768624248622e+00
5.800000000000000000e+01,5.642397040209551129e+00
5.900000000000000000e+01,5.720478897306008115e+00
6.000000000000000000e+01,5.797239974348645575e+00
6.100000000000000000e+01,5.872719694858460571e+00
6.200000000000000000e+01,5.946955810047032109e+00
6.300000000000000000e+01,6.019989220733670265e+00
6.400000000000000000e+01,6.091856455660344061e+00
6.500000000000000000e+01,6.162596754249089592e+00
6.600000000000000000e+01,6.232245728165247023e+00
6.700000000000000000e+01,6.300833925014591941e+00
6.800000000000000000e+01,6.368392616955092400e+00
6.900000000000000000e+01,6.434949741268495949e+00
7.000000000000000000e+01,6.500532207810088003e+00
7.100000000000000000e+01,6.565164539512005071e+00
7.200000000000000000e+01,6.628869242567497544e+00
7.300000000000000000e+01,6.691669226259814529e+00
7.400000000000000000e+01,6.753584670768145948e+00
7.500000000000000000e+01,6.814635526607071725e+00
7.600000000000000000e+01,6.874840035979082664e+00
7.700000000000000000e+01,6.934217302296410423e+00
7.800000000000000000e+01,6.992785293020455484e+00
7.900000000000000000e+01,7.050562102104415807e+00
8.000000000000000000e+01,7.107563152167108989e+00
8.100000000000000000e+01,7.163804363184205215e+00
8.200000000000000000e+01,7.219302332586683413e+00
8.300000000000000000e+01,7.274071182360816401e+00
8.400000000000000000e+01,7.328126007602950409e+00
8.500000000000000000e+01,7.381481728059045011e+00
8.600000000000000000e+01,7.434150768152073319e+00
8.700000000000000000e+01,7.486146570004244438e+00
8.800000000000000000e+01,7.537482697219867411e+00
8.900000000000000000e+01,7.588170385758811420e+00
9.000000000000000000e+01,7.638222507482104184e+00
9.100000000000000000e+01,7.687680202942472008e+00
9.200000000000000000e+01,7.736509793126882251e+00
9.300000000000000000e+01,7.784732784561631647e+00
9.400000000000000000e+01,7.832361045010676648e+00
9.500000000000000000e+01,7.879408132274623000e+00
9.600000000000000000e+01,7.925888450913649130e+00
9.700000000000000000e+01,7.971814443045564857e+00
9.800000000000000000e+01,8.017197613078414165e+00
9.900000000000000000e+01,8.062049662578159470e+00
1.000000000000000000e+02,8.106378027917552131e+00
1.010000000000000000e+02,8.150189988169358912e+00
1.020000000000000000e+02,8.193491103670240250e+00
1.030000000000000000e+02,8.236286512765101264e+00
1.040000000000000000e+02,8.278581122915868562e+00
1.050000000000000000e+02,8.320379790084240668e+00
1.060000000000000000e+02,8.361687654878094733e+00
1.070000000000000000e+02,8.402510293462842839e+00
1.080000000000000000e+02,8.442851232737586642e+00
1.090000000000000000e+02,8.482715625144077620e+00
1.100000000000000000e+02,8.522108238031684380e+00
1.110000000000000000e+02,8.561033151427421828e+00
1.120000000000000000e+02,8.599494579799936034e+00
1.130000000000000000e+02,8.637496708552106384e+00
1.140000000000000000e+02,8.675043072594403881e+00
1.150000000000000000e+02,8.712137200502874990e+00
1.160000000000000000e+02,8.748781849389937193e+00
1.170000000000000000e+02,8.784980552822291955e+00
1.180000000000000000e+02,8.820735632509753898e+00
1.190000000000000000e+02,8.856049440171259945e+00
1.200000000000000000e+02,8.890924207153606318e+00
1.210000000000000000e+02,8.925362341943239741e+00
1.220000000000000000e+02,8.959365693276751585e+00
1.230000000000000000e+02,8.992936149163037740e+00
1.240000000000000000e+02,9.026074628527537058e+00
1.250000000000000000e+02,9.058786963737068376e+00
1.260000000000000000e+02,9.091068427915093508e+00
1.270000000000000000e+02,9.122927171500398558e+00
1.280000000000000000e+02,9.154372740274004272e+00
1.290000000000000000e+02,9.185415199244429729e+00
1.300000000000000000e+02,9.216056436929338957e+00
1.310000000000000000e+02,9.246293996998542042e+00
1.320000000000000000e+02,9.276118904555870515e+00
1.330000000000000000e+02,9.305522898128314679e+00
1.340000000000000000e+02,9.334494906623252319e+00
1.350000000000000000e+02,9.363028604834711999e+00
1.360000000000000000e+02,9.391113368682740159e+00
1.370000000000000000e+02,9.418741783979262649e+00
1.380000000000000000e+02,9.445905083367664545e+00
1.390000000000000000e+02,9.472595524802402522e+00
1.400000000000000000e+02,9.498803240391568536e+00
1.410000000000000000e+02,9.524519898345520375e+00
1.420000000000000000e+02,9.549735699636748620e+00
1.430000000000000000e+02,9.574440300272069493e+00
1.440000000000000000e+02,9.598624084547731528e+00
1.450000000000000000e+02,9.622276871055852610e+00
1.460000000000000000e+02,9.645387285732617499e+00
1.470000000000000000e+02,9.667946534651045809e+00
1.480000000000000000e+02,9.689944092974890566e+00
1.490000000000000000e+02,9.711369841910387990e+00
1.500000000000000000e+02,9.732215653340846373e+00
1.510000000000000000e+02,9.752473489177390320e+00
1.520000000000000000e+02,9.772136859388233177e+00
1.530000000000000000e+02,9.791199803837892901e+00
1.540000000000000000e+02,9.809781194582301467e+00
1.550000000000000000e+02,9.827744302119612030e+00
1.560000000000000000e+02,9.845137785959934718e+00
1.570000000000000000e+02,9.861969836810246193e+00
1.580000000000000000e+02,9.878224728764225304e+00
1.590000000000000000e+02,9.893889155231669008e+00
1.600000000000000000e+02,9.908955868713036352e+00
1.610000000000000000e+02,9.923429162678218063e+00
1.620000000000000000e+02,9.937321025716380873e+00
1.630000000000000000e+02,9.950647377055197751e+00
1.640000000000000000e+02,9.963427910225952644e+00
1.650000000000000000e+02,9.975684651080806375e+00
1.660000000000000000e+02,9.987442888521860240e+00
1.670000000000000000e+02,9.998727645896503091e+00
1.680000000000000000e+02,1.000956651089842531e+01
1.690000000000000000e+02,1.001998788162087450e+01
1.700000000000000000e+02,1.003002109727251323e+01
1.710000000000000000e+02,1.003969575393336910e+01
1.720000000000000000e+02,1.004904125923684255e+01
1.730000000000000000e+02,1.005808801047790269e+01
1.740000000000000000e+02,1.006686474679631971e+01
1.750000000000000000e+02,1.007540053993602491e+01
1.760000000000000000e+02,1.008372342394124388e+01
1.770000000000000000e+02,1.009185972635879658e+01
1.780000000000000000e+02,1.010070284645655825e+01
1.790000000000000000e+02,1.010906764232995059e+01
1.800000000000000000e+02,1.011719847236154912e+01
1.810000000000000000e+02,1.012515274518576902e+01
1.820000000000000000e+02,1.013295613551511742e+01
1.830000000000000000e+02,1.014064712351646413e+01
1.840000000000000000e+02,1.014825815083815641e+01
1.850000000000000000e+02,1.015582066599738376e+01
1.860000000000000000e+02,1.016336026236291801e+01
1.870000000000000000e+02,1.017089830749637791e+01
1.880000000000000000e+02,1.017845140980405816e+01
1.890000000000000000e+02,1.018603292007126448e+01
1.900000000000000000e+02,1.019365915089356633e+01
1.910000000000000000e+02,1.020134057947731065e+01
1.920000000000000000e+02,1.020908795504604960e+01
1.930000000000000000e+02,1.021691151039694390e+01
1.940000000000000000e+02,1.022481883685002479e+01
1.950000000000000000e+02,1.023282004566776493e+01
1.960000000000000000e+02,1.024092562599518530e+01
1.970000000000000000e+02,1.024914175932943827e+01
1.980000000000000000e+02,1.025747658253290062e+01
1.990000000000000000e+02,1.026593717125483707e+01
2.000000000000000000e+02,1.027453065560389689e+01
2.010000000000000000e+02,1.028326554617353850e+01
2.020000000000000000e+02,1.029214851534194430e+01
2.030000000000000000e+02,1.030425125186246404e+01
2.040000000000000000e+02,1.031446159066514667e+01
2.050000000000000000e+02,1.032414570600611192e+01
2.060000000000000000e+02,1.033386858011108522e+01
2.070000000000000000e+02,1.034368730889601196e+01
2.080000000000000000e+02,1.035367220102840058e+01
2.090000000000000000e+02,1.036386587294453854e+01
2.100000000000000000e+02,1.037428001909783504e+01
2.110000000000000000e+02,1.038493456846235041e+01
2.120000000000000000e+02,1.039584199533222275e+01
2.130000000000000000e+02,1.040701722474899604e+01
2.140000000000000000e+02,1.041847285371205878e+01
2.150000000000000000e+02,1.043021970697178524e+01
2.160000000000000000e+02,1.044227586777287797e+01
2.170000000000000000e+02,1.045465930249683773e+01
2.180000000000000000e+02,1.046738411090674781e+01
2.190000000000000000e+02,1.048047622827458802e+01
2.200000000000000000e+02,1.049395710586075126e+01
2.210000000000000000e+02,1.050784830893729627e+01
2.220000000000000000e+02,1.052217181490317088e+01
2.230000000000000000e+02,1.053696538221781687e+01
2.240000000000000000e+02,1.055224918670371004e+01
2.250000000000000000e+02,1.056806472361485838e+01
2.260000000000000000e+02,1.058443725910229993e+01
2.270000000000000000e+02,1.060141228980519479e+01
2.280000000000000000e+02,1.061903327427725152e+01
2.290000000000000000e+02,1.063733509314424985e+01
2.300000000000000000e+02,1.065637579025358228e+01
2.310000000000000000e+02,1.068421910314079781e+01
2.320000000000000000e+02,1.070652400802198478e+01
2.330000000000000000e+02,1.072833341992999223e+01
2.340000000000000000e+02,1.075104002908937773e+01
2.350000000000000000e+02,1.077478659850683407e+01
2.360000000000000000e+02,1.079968307750760026e+01
2.370000000000000000e+02,1.082581187611484630e+01
2.380000000000000000e+02,1.085326198683560683e+01
2.390000000000000000e+02,1.088209854753923089e+01
2.400000000000000000e+02,1.091241103322659534e+01
2.410000000000000000e+02,1.094429271336429643e+01
2.420000000000000000e+02,1.097779955913802219e+01
2.430000000000000000e+02,1.101300343835470485e+01
2.440000000000000000e+02,1.104996751383680298e+01
2.450000000000000000e+02,1.108871639090872208e+01
2.460000000000000000e+02,1.112927668757486721e+01
2.470000000000000000e+02,1.117166737066330207e+01
2.480000000000000000e+02,1.121586959596804789e+01
2.490000000000000000e+02,1.126187688299730461e+01
2.500000000000000000e+02,1.130965884139138566e+01
2.510000000000000000e+02,1.135912509359293132e+01
2.520000000000000000e+02,1.141007218871571105e+01
2.530000000000000000e+02,1.146208146895376423e+01
2.540000000000000000e+02,1.151453970944031013e+01
2.550000000000000000e+02,1.156664685989384367e+01
2.560000000000000000e+02,1.161758067832739627e+01
2.570000000000000000e+02,1.166669166175047856e+01
2.580000000000000000e+02,1.171360681530013359e+01
2.590000000000000000e+02,1.175823042690058351e+01
2.600000000000000000e+02,1.180063797327642838e+01
2.610000000000000000e+02,1.184099913459103348e+01
2.620000000000000000e+02,1.187955879248569246e+01
2.630000000000000000e+02,1.191657698718429614e+01
2.640000000000000000e+02,1.195224721319316252e+01
2.650000000000000000e+02,1.198671109952746328e+01
2.660000000000000000e+02,1.202007422162339445e+01
2.670000000000000000e+02,1.205243727996909975e+01
2.680000000000000000e+02,1.208387249525946139e+01
2.690000000000000000e+02,1.211444695675132444e+01
2.700000000000000000e+02,1.214421966365440220e+01
2.710000000000000000e+02,1.217323958392006666e+01
2.720000000000000000e+02,1.220154508554492878e+01
2.730000000000000000e+02,1.222918183680589088e+01
2.740000000000000000e+02,1.225618257637607300e+01
2.750000000000000000e+02,1.228257325146819490e+01
2.760000000000000000e+02,1.230838500991690232e+01
2.770000000000000000e+02,1.233364049382693572e+01
2.780000000000000000e+02,1.235836353759971828e+01
2.790000000000000000e+02,1.238257328245836142e+01
2.800000000000000000e+02,1.240628770525412605e+01
2.810000000000000000e+02,1.242952433494310860e+01
2.820000000000000000e+02,1.245229793205326629e+01
2.830000000000000000e+02,1.247462716879301325e+01
2.840000000000000000e+02,1.249652085166807503e+01
2.850000000000000000e+02,1.251798930704177693e+01
2.860000000000000000e+02,1.253904622167340577e+01
2.870000000000000000e+02,1.255970480844630188e+01
2.880000000000000000e+02,1.257997464067890192e+01
2.890000000000000000e+02,1.259986392848903414e+01
2.900000000000000000e+02,1.261938410209017292e+01
2.910000000000000000e+02,1.263854089945938064e+01
2.920000000000000000e+02,1.265734453967921880e+01
2.930000000000000000e+02,1.267580215621656947e+01
2.940000000000000000e+02,1.269392053359302430e+01
2.950000000000000000e+02,1.271170930292156775e+01
2.960000000000000000e+02,1.272917324780012294e+01
2.970000000000000000e+02,1.274632210054111781e+01
2.980000000000000000e+02,1.276315948410100987e+01
2.990000000000000000e+02,1.277969102275902635e+01
3.000000000000000000e+02,1.279592589093200417e+01
3.010000000000000000e+02,1.281187070938782746e+01
3.020000000000000000e+02,1.282752808605456707e+01
3.030000000000000000e+02,1.284290638961936892e+01
3.040000000000000000e+02,1.285800686711362140e+01
3.050000000000000000e+02,1.287283912892763027e+01
3.060000000000000000e+02,1.288740752209806217e+01
3.070000000000000000e+02,1.290171520071570299e+01
3.080000000000000000e+02,1.291576891211729183e+01
3.090000000000000000e+02,1.292957286755336455e+01
3.100000000000000000e+02,1.294313072757510596e+01
3.110000000000000000e+02,1.295644658531052151e+01
3.120000000000000000e+02,1.296952913879420066e+01
3.130000000000000000e+02,1.298237893650782482e+01
3.140000000000000000e+02,1.299500107548400862e+01
3.150000000000000000e+02,1.300740197541492904e+01
3.160000000000000000e+02,1.301958246201029468e+01
3.170000000000000000e+02,1.303154960755221126e+01
3.180000000000000000e+02,1.304330243169496306e+01
3.190000000000000000e+02,1.305484969561802799e+01
3.200000000000000000e+02,1.306619281266450905e+01
3.210000000000000000e+02,1.307733707071517593e+01
3.220000000000000000e+02,1.308828469828631036e+01
3.230000000000000000e+02,1.309904034890959323e+01
3.240000000000000000e+02,1.310960631424391210e+01
3.250000000000000000e+02,1.311998716832970402e+01
3.260000000000000000e+02,1.313018621964817889e+01
3.270000000000000000e+02,1.314020525073804357e+01
3.280000000000000000e+02,1.315004744129393188e+01
3.290000000000000000e+02,1.315971816945801898e+01
3.300000000000000000e+02,1.316921851693552803e+01
3.310000000000000000e+02,1.317855298454328938e+01
3.320000000000000000e+02,1.318772388206200574e+01
3.330000000000000000e+02,1.319673477226685598e+01
3.340000000000000000e+02,1.320558670394952294e+01
3.350000000000000000e+02,1.321428479898198205e+01
3.360000000000000000e+02,1.322283133020061818e+01
3.370000000000000000e+02,1.323122681044475613e+01
3.380000000000000000e+02,1.323947554699680218e+01
3.390000000000000000e+02,1.324758001552749676e+01
3.400000000000000000e+02,1.325554247088967053e+01
3.410000000000000000e+02,1.326336621322261600e+01
3.420000000000000000e+02,1.327105332249455039e+01
3.430000000000000000e+02,1.327860592748972479e+01
3.440000000000000000e+02,1.328602653750259677e+01
3.450000000000000000e+02,1.329331876931921741e+01
3.460000000000000000e+02,1.330048304052434283e+01
3.470000000000000000e+02,1.330752220574585465e+01
3.480000000000000000e+02,1.331443830842284548e+01
3.490000000000000000e+02,1.332123403669174522e+01
3.500000000000000000e+02,1.332791067760302717e+01
3.510000000000000000e+02,1.333447167956111201e+01
3.520000000000000000e+02,1.334091784076715470e+01
3.530000000000000000e+02,1.334725238195662733e+01
3.540000000000000000e+02,1.335347588034326272e+01
3.550000000000000000e+02,1.335959146365935446e+01
3.560000000000000000e+02,1.336559909776436328e+01
3.570000000000000000e+02,1.337150306477162154e+01
3.580000000000000000e+02,1.337730402920185924e+01
3.590000000000000000e+02,1.338300454413446516e+01
3.600000000000000000e+02,1.338860499455990194e+01
3.610000000000000000e+02,1.339410797841001433e+01
3.620000000000000000e+02,1.339951529859157020e+01
3.630000000000000000e+02,1.340482796649259711e+01
3.640000000000000000e+02,1.341004867892042185e+01
3.650000000000000000e+02,1.341517875465586407e+01
3.660000000000000000e+02,1.342021924491956852e+01
3.670000000000000000e+02,1.342517229844528437e+01
3.680000000000000000e+02,1.343003888607985985e+01
3.690000000000000000e+02,1.343482042662315479e+01
3.700000000000000000e+02,1.343951904461821378e+01
3.710000000000000000e+02,1.344413614325577733e+01
3.720000000000000000e+02,1.344867298955207247e+01
3.730000000000000000e+02,1.345313065028120825e+01
3.740000000000000000e+02,1.345751076841087546e+01
3.750000000000000000e+02,1.346181465704125024e+01
3.760000000000000000e+02,1.346604336517510880e+01
3.770000000000000000e+02,1.347019929155080753e+01
3.780000000000000000e+02,1.347428263448188801e+01
3.790000000000000000e+02,1.347829507160055584e+01
3.800000000000000000e+02,1.348223750155266920e+01
3.810000000000000000e+02,1.348611159111436564e+01
3.820000000000000000e+02,1.348991797196699594e+01
3.830000000000000000e+02,1.349365894394863474e+01
3.840000000000000000e+02,1.349733397265365298e+01
3.850000000000000000e+02,1.350094579828051344e+01
3.860000000000000000e+02,1.350449465007109140e+01
3.870000000000000000e+02,1.350798126831171508e+01
3.880000000000000000e+02,1.351140824962264197e+01
3.890000000000000000e+02,1.351477472290920723e+01
3.900000000000000000e+02,1.351808327642831387e+01
3.910000000000000000e+02,1.352133431492789484e+01
3.920000000000000000e+02,1.352452868892956062e+01
3.930000000000000000e+02,1.352766730991788435e+01
3.940000000000000000e+02,1.353075178965929837e+01
3.950000000000000000e+02,1.353378258530613287e+01
3.960000000000000000e+02,1.353676098240990022e+01
3.970000000000000000e+02,1.353968736909103221e+01
3.980000000000000000e+02,1.354256264224500761e+01
