# Time [s], Convective Heat Transfer Coefficient [W/m2K]
1.000000000000000000e+00,0.000000000000000000e+00
2.000000000000000000e+00,0.000000000000000000e+00
3.000000000000000000e+00,0.000000000000000000e+00
4.000000000000000000e+00,0.000000000000000000e+00
5.000000000000000000e+00,1.915079995362458862e-02
6.000000000000000000e+00,3.748642353082986406e-02
7.000000000000000000e+00,5.983475718274645916e-02
8.000000000000000000e+00,9.034761368187844977e-02
9.000000000000000000e+00,1.289100765451444419e-01
1.000000000000000000e+01,1.760599575334635680e-01
1.100000000000000000e+01,2.313289367530153018e-01
1.200000000000000000e+01,2.941054473588986529e-01
1.300000000000000000e+01,3.636440260174493844e-01
1.400000000000000000e+01,4.390155365080443128e-01
1.500000000000000000e+01,5.193166749894995160e-01
1.600000000000000000e+01,6.036913721129498756e-01
1.700000000000000000e+01,6.913395630106425882e-01
1.800000000000000000e+01,7.815412200648252927e-01
1.900000000000000000e+01,8.736836258820886991e-01
2.000000000000000000e+01,9.672264614110744896e-01
2.100000000000000000e+01,1.061714058291613361e+00
2.200000000000000000e+01,1.156755798480313846e+00
2.300000000000000000e+01,1.252023725150685829e+00
2.400000000000000000e+01,1.347243598170043910e+00
2.500000000000000000e+01,1.442187761657038658e+00
2.600000000000000000e+01,1.536662828151101445e+00
2.700000000000000000e+01,1.630514518856284178e+00
2.800000000000000000e+01,1.723611794324791058e+00
2.900000000000000000e+01,1.815853484268940887e+00
3.000000000000000000e+01,1.907151340758906466e+00
3.100000000000000000e+01,1.997437820459676994e+00
3.200000000000000000e+01,2.086661859713170308e+00
3.300000000000000000e+01,2.174782957551858242e+00
3.400000000000000000e+01,2.261768862165144611e+00
3.500000000000000000e+01,2.347597042928759592e+00
3.600000000000000000e+01,2.432252713322545112e+00
3.700000000000000000e+01,2.515729595402156793e+00
3.800000000000000000e+01,2.598023292356879121e+00
3.900000000000000000e+01,2.679134551329405145e+00
4.000000000000000000e+01,2.759067997551856166e+00
4.100000000000000000e+01,2.837832097976412449e+00
4.200000000000000000e+01,2.915434284676831300e+00
4.300000000000000000e+01,2.991887471265206599e+00
4.400000000000000000e+01,3.067208971129079309e+00
4.500000000000000000e+01,3.141409138186892935e+00
4.600000000000000000e+01,3.214507193514074324e+00
4.700000000000000000e+01,3.286519254047617355e+00
4.800000000000000000e+01,3.357461904633026961e+00
4.900000000000000000e+01,3.427354932880319449e+00
5.000000000000000000e+01,3.496216253793569262e+00
5.100000000000000000e+01,3.564064345865928018e+00
5.200000000000000000e+01,3.630916175770732224e+00
5.300000000000000000e+01,3.696792854150964036e+00
5.400000000000000000e+01,3.761712313748778680e+00
5.500000000000000000e+01,3.825693286635710511e+00
5.600000000000000000e+01,3.888754037363025162e+00
5.700000000000000000e+01,3.950912990983270312e+00
5.800000000000000000e+01,4.012188309730952973e+00
5.900000000000000000e+01,4.072597410500336856e+00
6.000000000000000000e+01,4.132158217335088146e+00
6.100000000000000000e+01,4.190888478101332026e+00
6.200000000000000000e+01,4.248803965670531646e+00
6.300000000000000000e+01,4.305921072556187390e+00
6.400000000000000000e+01,4.362256242151677732e+00
6.500000000000000000e+01,4.417827229000550915e+00
6.600000000000000000e+01,4.472647332322799762e+00
6.700000000000000000e+01,4.526731823858880510e+00
6.800000000000000000e+01,4.580097902997737336e+00
6.900000000000000000e+01,4.632757080642925018e+00
7.000000000000000000e+01,4.684725003581783120e+00
7.100000000000000000e+01,4.736016021068277126e+00
7.200000000000000000e+01,4.786642121030167729e+00
7.300000000000000000e+01,4.836618003680131395e+00
7.400000000000000000e+01,4.885954706750470500e+00
7.500000000000000000e+01,4.934666629016052575e+00
7.600000000000000000e+01,4.982764352680982611e+00
7.700000000000000000e+01,5.030261649313492178e+00
7.800000000000000000e+01,5.077167996559750485e+00
7.900000000000000000e+01,5.123497024564120927e+00
8.000000000000000000e+01,5.169258383299528248e+00
8.100000000000000000e+01,5.214462683675662902e+00
8.200000000000000000e+01,5.259120940595983562e+00
8.300000000000000000e+01,5.303243323945633136e+00
8.400000000000000000e+01,5.346840612130528747e+00
8.500000000000000000e+01,5.389921799709215477e+00
8.600000000000000000e+01,5.432495500292042756e+00
8.700000000000000000e+01,5.474572781929589738e+00
8.800000000000000000e+01,5.516162129912941303e+00
8.900000000000000000e+01,5.557271263656602400e+00
9.000000000000000000e+01,5.597910736601590997e+00
9.100000000000000000e+01,5.638088243816258505e+00
9.200000000000000000e+01,5.677811397410091665e+00
9.300000000000000000e+01,5.717089125755857815e+00
9.400000000000000000e+01,5.755929320826992601e+00
9.500000000000000000e+01,5.794339567455750739e+00
9.600000000000000000e+01,5.832326782825409062e+00
9.700000000000000000e+01,5.869899125908375481e+00
9.800000000000000000e+01,5.907063569424760630e+00
9.900000000000000000e+01,5.943827860835960486e+00
1.000000000000000000e+02,5.980197069994593662e+00
1.010000000000000000e+02,6.016179569867306398e+00
1.020000000000000000e+02,6.051781822885237361e+00
1.030000000000000000e+02,6.087010071143057921e+00
1.040000000000000000e+02,6.121870723151205063e+00
1.050000000000000000e+02,6.156369417449006676e+00
1.060000000000000000e+02,6.190513019657236882e+00
1.070000000000000000e+02,6.224307138316127919e+00
1.080000000000000000e+02,6.257757836317132671e+00
1.090000000000000000e+02,6.290869595439767537e+00
1.100000000000000000e+02,6.323649350155012172e+00
1.110000000000000000e+02,6.356102044869528456e+00
1.120000000000000000e+02,6.388232799849516752e+00
1.130000000000000000e+02,6.420047158057212044e+00
1.140000000000000000e+02,6.451549180338211897e+00
1.150000000000000000e+02,6.482745416561560781e+00
1.160000000000000000e+02,6.513639297085196844e+00
1.170000000000000000e+02,6.544236581934332442e+00
1.180000000000000000e+02,6.574540920218550966e+00
1.190000000000000000e+02,6.604557703707645722e+00
1.200000000000000000e+02,6.634291063211861683e+00
1.210000000000000000e+02,6.663745243003211804e+00
1.220000000000000000e+02,6.692924596107114432e+00
1.230000000000000000e+02,6.721832802724189371e+00
1.240000000000000000e+02,6.750474697344579056e+00
1.250000000000000000e+02,6.778853673312875472e+00
1.260000000000000000e+02,6.806974269343266215e+00
1.270000000000000000e+02,6.834838865483737536e+00
1.280000000000000000e+02,6.862452493311463897e+00
1.290000000000000000e+02,6.889818291842765952e+00
1.300000000000000000e+02,6.916940029210429941e+00
1.310000000000000000e+02,6.943821350214271604e+00
1.320000000000000000e+02,6.970464335932430977e+00
1.330000000000000000e+02,6.996873627984736110e+00
1.340000000000000000e+02,7.023052535828735898e+00
1.350000000000000000e+02,7.049003557755945337e+00
1.360000000000000000e+02,7.074729813997823413e+00
1.370000000000000000e+02,7.100235024545451523e+00
1.380000000000000000e+02,7.125521643822685824e+00
1.390000000000000000e+02,7.150592508171207839e+00
1.400000000000000000e+02,7.175450368094030473e+00
1.410000000000000000e+02,7.200098794726687679e+00
1.420000000000000000e+02,7.224539685356071494e+00
1.430000000000000000e+02,7.248775993274721330e+00
1.440000000000000000e+02,7.272810365118696829e+00
1.450000000000000000e+02,7.296645810889435424e+00
1.460000000000000000e+02,7.320283726508337807e+00
1.470000000000000000e+02,7.343727418649654837e+00
1.480000000000000000e+02,7.366979024813728572e+00
1.490000000000000000e+02,7.390040836401633229e+00
1.500000000000000000e+02,7.412915507208137633e+00
1.510000000000000000e+02,7.435604772283836539e+00
1.520000000000000000e+02,7.458110528262681171e+00
1.530000000000000000e+02,7.480435874648827088e+00
1.540000000000000000e+02,7.502582375006777937e+00
1.550000000000000000e+02,7.524551963043877301e+00
1.560000000000000000e+02,7.546347343146534214e+00
1.570000000000000000e+02,7.569102869993283633e+00
1.580000000000000000e+02,7.590950701301981240e+00
1.590000000000000000e+02,7.612446240788686147e+00
1.600000000000000000e+02,7.633715002195780919e+00
1.610000000000000000e+02,7.654778202194004066e+00
1.620000000000000000e+02,7.675651213116324811e+00
1.630000000000000000e+02,7.696342738931106098e+00
1.640000000000000000e+02,7.716860107946073910e+00
1.650000000000000000e+02,7.737207160367356451e+00
1.660000000000000000e+02,7.757388231345016649e+00
1.670000000000000000e+02,7.777406397353778367e+00
1.680000000000000000e+02,7.797265627131720223e+00
1.690000000000000000e+02,7.816967886236511731e+00
1.700000000000000000e+02,7.836516428289644232e+00
1.710000000000000000e+02,7.855912918344004403e+00
1.720000000000000000e+02,7.875159359809005721e+00
1.730000000000000000e+02,7.894258462173206148e+00
1.740000000000000000e+02,7.913211194191655196e+00
1.750000000000000000e+02,7.932019616427623987e+00
1.760000000000000000e+02,7.950685374242000059e+00
1.770000000000000000e+02,7.969209892081215330e+00
1.780000000000000000e+02,7.987594378780781490e+00
1.790000000000000000e+02,8.005840563206666260e+00
1.800000000000000000e+02,8.023949046308556987e+00
1.810000000000000000e+02,8.041921679610345208e+00
1.820000000000000000e+02,8.059759194892555101e+00
1.830000000000000000e+02,8.077463023143106824e+00
1.840000000000000000e+02,8.095034207596315312e+00
1.850000000000000000e+02,8.112473767987459894e+00
1.860000000000000000e+02,8.129783055380082502e+00
1.870000000000000000e+02,8.146962687080300469e+00
1.880000000000000000e+02,8.164013967171383612e+00
1.890000000000000000e+02,8.180937647994323214e+00
1.900000000000000000e+02,8.197734986745428998e+00
1.910000000000000000e+02,8.214406694388195262e+00
1.920000000000000000e+02,8.230953465142238912e+00
1.930000000000000000e+02,8.247376665253039363e+00
1.940000000000000000e+02,8.263677291265905112e+00
1.950000000000000000e+02,8.279855635928068835e+00
1.960000000000000000e+02,8.295912832725413466e+00
1.970000000000000000e+02,8.311849992540709664e+00
1.980000000000000000e+02,8.327668204223934723e+00
1.990000000000000000e+02,8.343367189851552013e+00
2.000000000000000000e+02,8.358948513483909437e+00
2.010000000000000000e+02,8.374413043274053337e+00
2.020000000000000000e+02,8.389761297036880450e+00
2.030000000000000000e+02,8.404994277207610054e+00
2.040000000000000000e+02,8.420112801728080854e+00
2.050000000000000000e+02,8.435117342924089101e+00
2.060000000000000000e+02,8.450009017338881989e+00
2.070000000000000000e+02,8.464788104163817550e+00
2.080000000000000000e+02,8.479455525122371995e+00
2.090000000000000000e+02,8.494012508948372897e+00
2.100000000000000000e+02,8.508458807597129692e+00
2.110000000000000000e+02,8.522795783194789365e+00
2.120000000000000000e+02,8.537024132440221180e+00
2.130000000000000000e+02,8.551144858316245490e+00
2.140000000000000000e+02,8.565157669497311943e+00
2.150000000000000000e+02,8.579063705267419238e+00
2.160000000000000000e+02,8.592863927060300000e+00
2.170000000000000000e+02,8.606558647342419377e+00
2.180000000000000000e+02,8.620148800247886101e+00
2.190000000000000000e+02,8.633635460741741596e+00
2.200000000000000000e+02,8.647018590092597989e+00
2.210000000000000000e+02,8.660298769950005138e+00
2.220000000000000000e+02,8.673476726047402607e+00
2.230000000000000000e+02,8.686553481225599782e+00
2.240000000000000000e+02,8.699528959018127949e+00
2.250000000000000000e+02,8.712404621718851772e+00
2.260000000000000000e+02,8.725180680011249024e+00
2.270000000000000000e+02,8.737857491215056172e+00
2.280000000000000000e+02,8.750436321568274778e+00
2.290000000000000000e+02,8.762917199083315012e+00
2.300000000000000000e+02,8.775301211410988955e+00
2.310000000000000000e+02,8.787588520325725128e+00
2.320000000000000000e+02,8.799779886395189266e+00
2.330000000000000000e+02,8.811876057729966405e+00
2.340000000000000000e+02,8.823877319208479619e+00
2.350000000000000000e+02,8.835784398449282762e+00
2.360000000000000000e+02,8.847598011291230691e+00
2.370000000000000000e+02,8.859318414601293767e+00
2.380000000000000000e+02,8.870946453652479136e+00
2.390000000000000000e+02,8.882482515915901544e+00
2.400000000000000000e+02,8.893927276989144204e+00
2.410000000000000000e+02,8.905281254126547807e+00
2.420000000000000000e+02,8.916544808317642179e+00
2.430000000000000000e+02,8.927718733768331916e+00
2.440000000000000000e+02,8.938803227027944942e+00
2.450000000000000000e+02,8.949799063584810810e+00
2.460000000000000000e+02,8.960706716089093860e+00
2.470000000000000000e+02,8.971526358099891851e+00
2.480000000000000000e+02,8.982258883335859423e+00
2.490000000000000000e+02,8.992904594430251919e+00
2.500000000000000000e+02,9.003464509644793168e+00
2.510000000000000000e+02,9.013938193495464546e+00
2.520000000000000000e+02,9.024326648429429554e+00
2.530000000000000000e+02,9.034630290553977261e+00
2.540000000000000000e+02,9.044849528748141410e+00
2.550000000000000000e+02,9.054984764783323925e+00
2.560000000000000000e+02,9.065036393440969675e+00
2.570000000000000000e+02,9.075004660487524077e+00
2.580000000000000000e+02,9.084890231654881632e+00
2.590000000000000000e+02,9.094693338979597641e+00
2.600000000000000000e+02,9.104414774072505878e+00
2.610000000000000000e+02,9.114054332047187401e+00
2.620000000000000000e+02,9.123612650235315868e+00
2.630000000000000000e+02,9.133089936358363303e+00
2.640000000000000000e+02,9.142486673263494623e+00
2.650000000000000000e+02,9.151803476369941848e+00
2.660000000000000000e+02,9.161040116007653111e+00
2.670000000000000000e+02,9.170197057170591748e+00
2.680000000000000000e+02,9.179274757949544394e+00
2.690000000000000000e+02,9.188273530993175342e+00
2.700000000000000000e+02,9.197193544967486645e+00
2.710000000000000000e+02,9.206034825965589974e+00
2.720000000000000000e+02,9.214798086028208601e+00
2.730000000000000000e+02,9.223483340668755304e+00
2.740000000000000000e+02,9.232091288891824732e+00
2.750000000000000000e+02,9.240621524694843103e+00
2.760000000000000000e+02,9.249074326168722493e+00
2.770000000000000000e+02,9.257450376047522411e+00
2.780000000000000000e+02,9.265749667326703687e+00
2.790000000000000000e+02,9.273972189991447124e+00
2.800000000000000000e+02,9.282118610362074307e+00
2.810000000000000000e+02,9.290188637625723445e+00
2.820000000000000000e+02,9.298182927721001079e+00
2.830000000000000000e+02,9.306101453210136043e+00
2.840000000000000000e+02,9.313944318754915130e+00
2.850000000000000000e+02,9.321711625280983071e+00
2.860000000000000000e+02,9.329404142476809270e+00
2.870000000000000000e+02,9.337021020677076066e+00
2.880000000000000000e+02,9.344563423581414341e+00
2.890000000000000000e+02,9.352031032110982522e+00
2.900000000000000000e+02,9.359424060756074581e+00
2.910000000000000000e+02,9.366743119924310079e+00
2.920000000000000000e+02,9.373987614291234394e+00
2.930000000000000000e+02,9.381158146336023407e+00
2.940000000000000000e+02,9.388254780624530227e+00
2.950000000000000000e+02,9.395277710974355045e+00
2.960000000000000000e+02,9.402226994659528714e+00
2.970000000000000000e+02,9.409103082322559430e+00
2.980000000000000000e+02,9.415906022925943475e+00
2.990000000000000000e+02,9.422635862208661450e+00
3.000000000000000000e+02,9.429293037681356182e+00
3.010000000000000000e+02,9.435877455559309013e+00
3.020000000000000000e+02,9.442389282241828496e+00
3.030000000000000000e+02,9.448841005111226821e+00
3.040000000000000000e+02,9.455214794526188626e+00
3.050000000000000000e+02,9.461515797655131621e+00
3.060000000000000000e+02,9.467746127560294767e+00
3.070000000000000000e+02,9.473905535751260487e+00
3.080000000000000000e+02,9.479994423492478006e+00
3.090000000000000000e+02,9.486014357994646318e+00
3.100000000000000000e+02,9.491965336700186384e+00
3.110000000000000000e+02,9.497848132985751590e+00
3.120000000000000000e+02,9.503663254553108786e+00
3.130000000000000000e+02,9.509411074579876555e+00
3.140000000000000000e+02,9.515092479059399366e+00
3.150000000000000000e+02,9.520707572387902218e+00
3.160000000000000000e+02,9.526256584973154418e+00
3.170000000000000000e+02,9.531738970605386996e+00
3.180000000000000000e+02,9.537155083963005708e+00
3.190000000000000000e+02,9.542504889945629287e+00
3.200000000000000000e+02,9.547788094281061788e+00
3.210000000000000000e+02,9.553005042826942628e+00
3.220000000000000000e+02,9.558155308611461010e+00
3.230000000000000000e+02,9.563239231942016971e+00
3.240000000000000000e+02,9.568256765554163934e+00
3.250000000000000000e+02,9.573207859844933054e+00
3.260000000000000000e+02,9.578093100872331789e+00
3.270000000000000000e+02,9.582912687370535920e+00
3.280000000000000000e+02,9.587666432740309830e+00
3.290000000000000000e+02,9.592355166383017107e+00
3.300000000000000000e+02,9.596978949396939740e+00
3.310000000000000000e+02,9.601538602060127658e+00
3.320000000000000000e+02,9.606034304831277737e+00
3.330000000000000000e+02,9.610466108367068827e+00
3.340000000000000000e+02,9.614834820517067726e+00
3.350000000000000000e+02,9.619140864314283945e+00
3.360000000000000000e+02,9.623385164581891971e+00
3.370000000000000000e+02,9.627568009172133401e+00
3.380000000000000000e+02,9.631689808905209205e+00
3.390000000000000000e+02,9.635751097081575622e+00
3.400000000000000000e+02,9.639752403045948270e+00
3.410000000000000000e+02,9.643694378133510270e+00
3.420000000000000000e+02,9.647577921006842416e+00
3.430000000000000000e+02,9.651403422734031068e+00
3.440000000000000000e+02,9.655171396725416244e+00
3.450000000000000000e+02,9.658882603779687770e+00
3.460000000000000000e+02,9.662537675064569953e+00
3.470000000000000000e+02,9.666137237968442264e+00
3.480000000000000000e+02,9.669682166570444437e+00
3.490000000000000000e+02,9.673172579983742025e+00
3.500000000000000000e+02,9.676610095403725964e+00
3.510000000000000000e+02,9.679994574757335712e+00
3.520000000000000000e+02,9.683326627749037741e+00
3.530000000000000000e+02,9.686608108341086876e+00
3.540000000000000000e+02,9.689838245768404690e+00
3.550000000000000000e+02,9.693018761622173685e+00
3.560000000000000000e+02,9.696150126366617883e+00
3.570000000000000000e+02,9.699233056676552778e+00
3.580000000000000000e+02,9.702268017291716617e+00
3.590000000000000000e+02,9.705256091808022845e+00
3.600000000000000000e+02,9.708197614611789206e+00
3.610000000000000000e+02,9.711094035148017056e+00
3.620000000000000000e+02,9.713945309498894787e+00
3.630000000000000000e+02,9.716752508500235308e+00
3.640000000000000000e+02,9.719516451513808164e+00
3.650000000000000000e+02,9.722238078757369450e+00
3.660000000000000000e+02,9.724917708382857739e+00
3.670000000000000000e+02,9.727556151624343173e+00
3.680000000000000000e+02,9.730154835150351289e+00
3.690000000000000000e+02,9.732713204370574189e+00
3.700000000000000000e+02,9.735233298700196158e+00
3.710000000000000000e+02,9.737715177211313744e+00
3.720000000000000000e+02,9.740231820503531424e+00
3.730000000000000000e+02,9.742675019071191045e+00
3.740000000000000000e+02,9.745074466696074467e+00
3.750000000000000000e+02,9.747437127172114302e+00
3.760000000000000000e+02,9.749764654591977830e+00
3.770000000000000000e+02,9.752058822220842416e+00
3.780000000000000000e+02,9.754320045958539964e+00
3.790000000000000000e+02,9.756548986233035237e+00
3.800000000000000000e+02,9.758746547476649269e+00
3.810000000000000000e+02,9.760913509030929802e+00
3.820000000000000000e+02,9.763050648287476818e+00
3.830000000000000000e+02,9.765158372464027181e+00
3.840000000000000000e+02,9.767237578380315810e+00
3.850000000000000000e+02,9.769288424908344481e+00
3.860000000000000000e+02,9.771311928399507352e+00
3.870000000000000000e+02,9.773308367744405700e+00
3.880000000000000000e+02,9.775277898435097867e+00
3.890000000000000000e+02,9.777221165102973899e+00
3.900000000000000000e+02,9.779139422975410056e+00
3.910000000000000000e+02,9.781032211883882610e+00
3.920000000000000000e+02,9.782901151319418176e+00
3.930000000000000000e+02,9.784745901668159718e+00
3.940000000000000000e+02,9.786567590145322626e+00
3.950000000000000000e+02,9.788366486723266036e+00
3.960000000000000000e+02,9.790143593461515081e+00
3.970000000000000000e+02,9.791898811875306308e+00
3.980000000000000000e+02,9.793633629928908846e+00
