# Time [s], Convective Heat Transfer Coefficient [W/m2K]
1.000000000000000000e+00,0.000000000000000000e+00
2.000000000000000000e+00,0.000000000000000000e+00
3.000000000000000000e+00,0.000000000000000000e+00
4.000000000000000000e+00,0.000000000000000000e+00
5.000000000000000000e+00,2.762023300960968902e-02
6.000000000000000000e+00,5.110202618333640340e-02
7.000000000000000000e+00,8.353714283346275193e-02
8.000000000000000000e+00,1.275575242773482887e-01
9.000000000000000000e+00,1.837966853187263105e-01
1.000000000000000000e+01,2.521673707981507695e-01
1.100000000000000000e+01,3.323566859928276385e-01
1.200000000000000000e+01,4.234173975323883288e-01
1.300000000000000000e+01,5.242057111241454903e-01
1.400000000000000000e+01,6.334122283937697606e-01
1.500000000000000000e+01,7.497347182816552769e-01
1.600000000000000000e+01,8.719133789332120799e-01
1.700000000000000000e+01,9.988014960447839652e-01
1.800000000000000000e+01,1.129360544250942899e+00
1.900000000000000000e+01,1.262689029182273659e+00
2.000000000000000000e+01,1.397992824112114008e+00
2.100000000000000000e+01,1.534598777745889819e+00
2.200000000000000000e+01,1.671933418836291763e+00
2.300000000000000000e+01,1.809511007346632283e+00
2.400000000000000000e+01,1.946925138915940767e+00
2.500000000000000000e+01,2.091758303476331182e+00
2.600000000000000000e+01,2.230768017743241405e+00
2.700000000000000000e+01,2.367489133159682346e+00
2.800000000000000000e+01,2.502490222260151054e+00
2.900000000000000000e+01,2.635770334122255143e+00
3.000000000000000000e+01,2.767312567749266705e+00
3.100000000000000000e+01,2.897075171856586362e+00
3.200000000000000000e+01,3.025011474823525948e+00
3.300000000000000000e+01,3.151090510872299966e+00
3.400000000000000000e+01,3.275277807396866248e+00
3.500000000000000000e+01,3.397551837599706914e+00
3.600000000000000000e+01,3.517893035023096360e+00
3.700000000000000000e+01,3.636292420593852714e+00
3.800000000000000000e+01,3.752737476304690123e+00
3.900000000000000000e+01,3.867226529866754969e+00
4.000000000000000000e+01,3.979758701529930498e+00
4.100000000000000000e+01,4.090342083580684296e+00
4.200000000000000000e+01,4.198987400984561802e+00
4.300000000000000000e+01,4.305709366985753128e+00
4.400000000000000000e+01,4.410529291192699652e+00
4.500000000000000000e+01,4.513473025933698146e+00
4.600000000000000000e+01,4.614564670942881364e+00
4.700000000000000000e+01,4.713839941869111705e+00
4.800000000000000000e+01,4.811331525950396149e+00
4.900000000000000000e+01,4.907072237293907513e+00
5.000000000000000000e+01,5.001103398350744023e+00
5.100000000000000000e+01,5.093462987364884675e+00
5.200000000000000000e+01,5.184191958477661011e+00
5.300000000000000000e+01,5.273325509264900290e+00
5.400000000000000000e+01,5.360901385728728208e+00
5.500000000000000000e+01,5.446958910422226019e+00
5.600000000000000000e+01,5.531538284530308935e+00
5.700000000000000000e+01,5.614671342787754149e+00
5.800000000000000000e+01,5.696396452742551908e+00
5.900000000000000000e+01,5.776748709962344464e+00
6.000000000000000000e+01,5.855760333070105794e+00
6.100000000000000000e+01,5.933466457928682658e+00
6.200000000000000000e+01,6.009900887866058028e+00
6.300000000000000000e+01,6.085094886088551647e+00
6.400000000000000000e+01,6.159079974390600398e+00
6.500000000000000000e+01,6.231887030274199546e+00
6.600000000000000000e+01,6.303544659420693641e+00
6.700000000000000000e+01,6.374081332278594303e+00
6.800000000000000000e+01,6.443524907941331925e+00
6.900000000000000000e+01,6.511902553784121750e+00
7.000000000000000000e+01,6.579238433977737444e+00
7.100000000000000000e+01,6.645557772935672958e+00
7.200000000000000000e+01,6.710884649265042690e+00
7.300000000000000000e+01,6.775244380084028073e+00
7.400000000000000000e+01,6.838654629221332826e+00
7.500000000000000000e+01,6.901139357256090179e+00
7.600000000000000000e+01,6.962721488754166188e+00
7.700000000000000000e+01,7.023420145019106720e+00
7.800000000000000000e+01,7.083254689600885889e+00
7.900000000000000000e+01,7.142245387712025995e+00
8.000000000000000000e+01,7.200409488315512974e+00
8.100000000000000000e+01,7.257765457183290359e+00
8.200000000000000000e+01,7.314332002103275165e+00
8.300000000000000000e+01,7.370123741166945130e+00
8.400000000000000000e+01,7.425158297243734218e+00
8.500000000000000000e+01,7.479450007897121111e+00
8.600000000000000000e+01,7.533014902036458516e+00
8.700000000000000000e+01,7.585865901073241879e+00
8.800000000000000000e+01,7.638017845721198462e+00
8.900000000000000000e+01,7.689485781887546167e+00
9.000000000000000000e+01,7.740282798098867545e+00
9.100000000000000000e+01,7.790420923517626939e+00
9.200000000000000000e+01,7.839912146759536071e+00
9.300000000000000000e+01,7.888771239483158837e+00
9.400000000000000000e+01,7.937009455711421246e+00
9.500000000000000000e+01,7.984642088218217637e+00
9.600000000000000000e+01,8.031681700269146518e+00
9.700000000000000000e+01,8.078143488169958530e+00
9.800000000000000000e+01,8.124042119846921040e+00
9.900000000000000000e+01,8.169386681776465764e+00
1.000000000000000000e+02,8.214189314344775283e+00
1.010000000000000000e+02,8.258457496971066902e+00
1.020000000000000000e+02,8.302202108184825846e+00
1.030000000000000000e+02,8.345429686293380556e+00
1.040000000000000000e+02,8.388147144225726493e+00
1.050000000000000000e+02,8.430363397521848157e+00
1.060000000000000000e+02,8.472084047123024320e+00
1.070000000000000000e+02,8.513315417457389955e+00
1.080000000000000000e+02,8.554065801450434492e+00
1.090000000000000000e+02,8.594339980250744304e+00
1.100000000000000000e+02,8.634143783113644943e+00
1.110000000000000000e+02,8.673484817491029730e+00
1.120000000000000000e+02,8.712366684068125977e+00
1.130000000000000000e+02,8.750795115735293450e+00
1.140000000000000000e+02,8.788775763102913530e+00
1.150000000000000000e+02,8.826313747817199129e+00
1.160000000000000000e+02,8.863412940284856489e+00
1.170000000000000000e+02,8.900079114974705163e+00
1.180000000000000000e+02,8.936316794810684527e+00
1.190000000000000000e+02,8.972129738308662894e+00
1.200000000000000000e+02,9.007522268390243170e+00
1.210000000000000000e+02,9.042499536873066290e+00
1.220000000000000000e+02,9.077065504288235331e+00
1.230000000000000000e+02,9.111223126423217522e+00
1.240000000000000000e+02,9.144977191101057556e+00
1.250000000000000000e+02,9.178330916510683224e+00
1.260000000000000000e+02,9.211287939703661110e+00
1.270000000000000000e+02,9.243850931969994633e+00
1.280000000000000000e+02,9.276024897739773678e+00
1.290000000000000000e+02,9.307812771096427795e+00
1.300000000000000000e+02,9.339217365504907775e+00
1.310000000000000000e+02,9.370242311171940841e+00
1.320000000000000000e+02,9.400890041707487654e+00
1.330000000000000000e+02,9.431162227900330208e+00
1.340000000000000000e+02,9.461062809602710288e+00
1.350000000000000000e+02,9.490592856199505434e+00
1.360000000000000000e+02,9.519754142877461689e+00
1.370000000000000000e+02,9.548547844750874702e+00
1.380000000000000000e+02,9.576974171490791221e+00
1.390000000000000000e+02,9.605034551959503730e+00
1.400000000000000000e+02,9.632726677974146057e+00
1.410000000000000000e+02,9.660051132598873380e+00
1.420000000000000000e+02,9.687004820382833614e+00
1.430000000000000000e+02,9.713586774073087682e+00
1.440000000000000000e+02,9.739793528626238484e+00
1.450000000000000000e+02,9.765622622348733017e+00
1.460000000000000000e+02,9.791070491674119580e+00
1.470000000000000000e+02,9.816132861020458122e+00
1.480000000000000000e+02,9.840804878062190397e+00
1.490000000000000000e+02,9.865081725378409772e+00
1.500000000000000000e+02,9.888958495512733649e+00
1.510000000000000000e+02,9.912429235566181163e+00
1.520000000000000000e+02,9.935491591699589620e+00
1.530000000000000000e+02,9.958143652779154920e+00
1.540000000000000000e+02,9.980393691911006115e+00
1.550000000000000000e+02,1.000224356067417197e+01
1.560000000000000000e+02,1.002368521936754320e+01
1.570000000000000000e+02,1.004470303255892816e+01
1.580000000000000000e+02,1.006527715268957301e+01
1.590000000000000000e+02,1.008538992064338835e+01
1.600000000000000000e+02,1.010502878657108461e+01
1.610000000000000000e+02,1.012418608291605970e+01
1.620000000000000000e+02,1.014285505373091567e+01
1.630000000000000000e+02,1.016103107750254786e+01
1.640000000000000000e+02,1.017871105783855157e+01
1.650000000000000000e+02,1.019589192845938719e+01
1.660000000000000000e+02,1.021257266890998672e+01
1.670000000000000000e+02,1.022875236616723527e+01
1.680000000000000000e+02,1.024443154935260480e+01
1.690000000000000000e+02,1.025961272246463096e+01
1.700000000000000000e+02,1.027429978108224695e+01
1.710000000000000000e+02,1.028849821559099276e+01
1.720000000000000000e+02,1.030221564397839984e+01
1.730000000000000000e+02,1.031546079845095676e+01
1.740000000000000000e+02,1.032824505385401359e+01
1.750000000000000000e+02,1.034058152714269063e+01
1.760000000000000000e+02,1.035248561237472487e+01
1.770000000000000000e+02,1.036397333084562078e+01
1.780000000000000000e+02,1.037506264094876940e+01
1.790000000000000000e+02,1.038577321280354937e+01
1.800000000000000000e+02,1.039612523236087860e+01
1.810000000000000000e+02,1.040613973383471880e+01
1.820000000000000000e+02,1.041584022303228707e+01
1.830000000000000000e+02,1.042524932868043486e+01
1.840000000000000000e+02,1.043438968317368243e+01
1.850000000000000000e+02,1.044328511474999921e+01
1.860000000000000000e+02,1.045195946947339394e+01
1.870000000000000000e+02,1.046043597931356040e+01
1.880000000000000000e+02,1.046873674202932492e+01
1.890000000000000000e+02,1.047688476412042036e+01
1.900000000000000000e+02,1.048490183080853022e+01
1.910000000000000000e+02,1.049280894638893180e+01
1.920000000000000000e+02,1.050062613240029741e+01
1.930000000000000000e+02,1.050837307462436598e+01
1.940000000000000000e+02,1.051702827958245301e+01
1.950000000000000000e+02,1.052524132211206975e+01
1.960000000000000000e+02,1.053327550110995503e+01
1.970000000000000000e+02,1.054118166533437773e+01
1.980000000000000000e+02,1.054898415466921868e+01
1.990000000000000000e+02,1.055673762017850592e+01
2.000000000000000000e+02,1.056449156520813126e+01
2.010000000000000000e+02,1.057228431069251506e+01
2.020000000000000000e+02,1.058014244807809412e+01
2.030000000000000000e+02,1.058808457750478915e+01
2.040000000000000000e+02,1.059612428353088909e+01
2.050000000000000000e+02,1.060427381367475697e+01
2.060000000000000000e+02,1.061254522929480970e+01
2.070000000000000000e+02,1.062094739481306860e+01
2.080000000000000000e+02,1.062948983374651490e+01
2.090000000000000000e+02,1.063818272092454364e+01
2.100000000000000000e+02,1.064703604819807659e+01
2.110000000000000000e+02,1.065605488069442508e+01
2.120000000000000000e+02,1.066525267167734548e+01
2.130000000000000000e+02,1.067464183858436577e+01
2.140000000000000000e+02,1.068423130624734796e+01
2.150000000000000000e+02,1.069403328972956757e+01
2.160000000000000000e+02,1.070406142086164891e+01
2.170000000000000000e+02,1.071433287077599950e+01
2.180000000000000000e+02,1.072485294139312728e+01
2.190000000000000000e+02,1.073564320869951949e+01
2.200000000000000000e+02,1.074671712801689516e+01
2.210000000000000000e+02,1.075809457152059245e+01
2.220000000000000000e+02,1.076979630094232654e+01
2.230000000000000000e+02,1.078184021953173577e+01
2.240000000000000000e+02,1.079424520898819573e+01
2.250000000000000000e+02,1.080704052705441498e+01
2.260000000000000000e+02,1.082025226917268768e+01
2.270000000000000000e+02,1.083390877075056835e+01
2.280000000000000000e+02,1.084804254548043723e+01
2.290000000000000000e+02,1.086268058065319408e+01
2.300000000000000000e+02,1.087786980752484034e+01
2.310000000000000000e+02,1.089364147148316420e+01
2.320000000000000000e+02,1.091003570520964594e+01
2.330000000000000000e+02,1.092710909842020861e+01
2.340000000000000000e+02,1.094490291418783734e+01
2.350000000000000000e+02,1.096348173972689111e+01
2.360000000000000000e+02,1.098289914581869731e+01
2.370000000000000000e+02,1.100321886566235641e+01
2.380000000000000000e+02,1.102450689946666351e+01
2.390000000000000000e+02,1.104683806749545916e+01
2.400000000000000000e+02,1.107028537848196947e+01
2.410000000000000000e+02,1.109491182923590635e+01
2.420000000000000000e+02,1.112079290574376422e+01
2.430000000000000000e+02,1.114800020941625114e+01
2.440000000000000000e+02,1.117657671833412891e+01
2.450000000000000000e+02,1.120655739972473341e+01
2.460000000000000000e+02,1.124319664397363994e+01
2.470000000000000000e+02,1.127670996828516614e+01
2.480000000000000000e+02,1.131064047876779632e+01
2.490000000000000000e+02,1.134580387983683281e+01
2.500000000000000000e+02,1.138183582967017493e+01
2.510000000000000000e+02,1.141850457925015760e+01
2.520000000000000000e+02,1.145542987396591350e+01
2.530000000000000000e+02,1.149227224581109397e+01
2.540000000000000000e+02,1.152867486474882064e+01
2.550000000000000000e+02,1.156433585749539539e+01
2.560000000000000000e+02,1.159904542848115661e+01
2.570000000000000000e+02,1.163266585020173061e+01
2.580000000000000000e+02,1.166514030369032717e+01
2.590000000000000000e+02,1.169646838990219351e+01
2.600000000000000000e+02,1.172669571509660003e+01
2.610000000000000000e+02,1.175589902094791661e+01
2.620000000000000000e+02,1.178415971417468988e+01
2.630000000000000000e+02,1.181156965977953810e+01
2.640000000000000000e+02,1.183820624694879520e+01
2.650000000000000000e+02,1.186413572643328607e+01
2.660000000000000000e+02,1.188942297203201726e+01
2.670000000000000000e+02,1.191411310205687890e+01
2.680000000000000000e+02,1.193824138234582755e+01
2.690000000000000000e+02,1.196184392996252477e+01
2.700000000000000000e+02,1.198494900422481635e+01
2.710000000000000000e+02,1.200758473167337925e+01
2.720000000000000000e+02,1.202977459807694594e+01
2.730000000000000000e+02,1.205154303105701707e+01
2.740000000000000000e+02,1.207290367210210036e+01
2.750000000000000000e+02,1.209387726531749685e+01
2.760000000000000000e+02,1.211448101552273116e+01
2.770000000000000000e+02,1.213473152013626510e+01
2.780000000000000000e+02,1.215463654717131092e+01
2.790000000000000000e+02,1.217420916488420524e+01
2.800000000000000000e+02,1.219346474851549544e+01
2.810000000000000000e+02,1.221241349396246534e+01
2.820000000000000000e+02,1.223106433756095335e+01
2.830000000000000000e+02,1.224942708552844906e+01
2.840000000000000000e+02,1.226750851541900644e+01
2.850000000000000000e+02,1.228531762028006646e+01
2.860000000000000000e+02,1.230286178996567337e+01
2.870000000000000000e+02,1.232015046161326843e+01
2.880000000000000000e+02,1.233718932579816929e+01
2.890000000000000000e+02,1.235398191467871953e+01
2.900000000000000000e+02,1.237053835312289252e+01
2.910000000000000000e+02,1.238685932764362541e+01
2.920000000000000000e+02,1.240295386622292639e+01
2.930000000000000000e+02,1.241882754308773684e+01
2.940000000000000000e+02,1.243448555334497030e+01
2.950000000000000000e+02,1.244992909422798100e+01
2.960000000000000000e+02,1.246516468196357330e+01
2.970000000000000000e+02,1.248019619656495216e+01
2.980000000000000000e+02,1.249502686435597987e+01
2.990000000000000000e+02,1.250966031387459587e+01
3.000000000000000000e+02,1.252410064668912071e+01
3.010000000000000000e+02,1.253835317755655332e+01
3.020000000000000000e+02,1.255242018710413632e+01
3.030000000000000000e+02,1.256630414426609299e+01
3.040000000000000000e+02,1.258000896221946974e+01
3.050000000000000000e+02,1.259353754771938760e+01
3.060000000000000000e+02,1.260689151806504071e+01
3.070000000000000000e+02,1.262007724219706972e+01
3.080000000000000000e+02,1.263309273609993433e+01
3.090000000000000000e+02,1.264594517055664191e+01
3.100000000000000000e+02,1.265863324626654318e+01
3.110000000000000000e+02,1.267116207954909868e+01
3.120000000000000000e+02,1.268353331602354928e+01
3.130000000000000000e+02,1.269574886903206234e+01
3.140000000000000000e+02,1.270781178727698091e+01
3.150000000000000000e+02,1.271972465281106679e+01
3.160000000000000000e+02,1.273148828602337623e+01
3.170000000000000000e+02,1.274310572700373889e+01
3.180000000000000000e+02,1.275457811412776366e+01
3.190000000000000000e+02,1.276590807753294676e+01
3.200000000000000000e+02,1.277709800535341245e+01
3.210000000000000000e+02,1.278815090527169396e+01
3.220000000000000000e+02,1.279906782717772629e+01
3.230000000000000000e+02,1.280984944963479855e+01
3.240000000000000000e+02,1.282049772118350539e+01
3.250000000000000000e+02,1.283101599224088751e+01
3.260000000000000000e+02,1.284140524174408959e+01
3.270000000000000000e+02,1.285166615203702456e+01
3.280000000000000000e+02,1.286180314484578524e+01
3.290000000000000000e+02,1.287181502612073380e+01
3.300000000000000000e+02,1.288170589374452746e+01
3.310000000000000000e+02,1.289147453157487000e+01
3.320000000000000000e+02,1.290112542169677390e+01
3.330000000000000000e+02,1.291065851901592332e+01
3.340000000000000000e+02,1.292007664821886692e+01
3.350000000000000000e+02,1.292937925086302009e+01
3.360000000000000000e+02,1.293856947234299604e+01
3.370000000000000000e+02,1.294764952719122419e+01
3.380000000000000000e+02,1.295661770757304154e+01
3.390000000000000000e+02,1.296547739343027494e+01
3.400000000000000000e+02,1.297422992461569358e+01
3.410000000000000000e+02,1.298287704570909540e+01
3.420000000000000000e+02,1.299141986317698283e+01
3.430000000000000000e+02,1.299985981951311587e+01
3.440000000000000000e+02,1.300819834533991681e+01
3.450000000000000000e+02,1.301643644513224451e+01
3.460000000000000000e+02,1.302457532112138416e+01
3.470000000000000000e+02,1.303261602760576565e+01
3.480000000000000000e+02,1.304056029804473305e+01
3.490000000000000000e+02,1.304840889102829848e+01
3.500000000000000000e+02,1.305616296972940837e+01
3.510000000000000000e+02,1.306382368807709327e+01
3.520000000000000000e+02,1.307139225946859185e+01
3.530000000000000000e+02,1.307887098307659457e+01
3.540000000000000000e+02,1.308626023019414220e+01
3.550000000000000000e+02,1.309356036711128723e+01
3.560000000000000000e+02,1.310077277825433306e+01
3.570000000000000000e+02,1.310789952003649717e+01
3.580000000000000000e+02,1.311494045899592109e+01
3.590000000000000000e+02,1.312189783867630055e+01
3.600000000000000000e+02,1.312877205647352952e+01
3.610000000000000000e+02,1.313556330170004927e+01
3.620000000000000000e+02,1.314227345438230543e+01
3.630000000000000000e+02,1.314890451950427952e+01
3.640000000000000000e+02,1.315545571811672332e+01
3.650000000000000000e+02,1.316192910977163777e+01
3.660000000000000000e+02,1.316832532570725967e+01
3.670000000000000000e+02,1.317464485732433310e+01
3.680000000000000000e+02,1.318088967399180511e+01
3.690000000000000000e+02,1.318706038894062438e+01
3.700000000000000000e+02,1.319315680376080024e+01
3.710000000000000000e+02,1.319918113736570575e+01
3.720000000000000000e+02,1.320513398720558484e+01
3.730000000000000000e+02,1.321101561106678801e+01
3.740000000000000000e+02,1.321682733588177605e+01
3.750000000000000000e+02,1.322257021402514177e+01
3.760000000000000000e+02,1.322824522531043634e+01
3.770000000000000000e+02,1.323385214111632280e+01
3.780000000000000000e+02,1.323939280195757995e+01
3.790000000000000000e+02,1.324486770573252592e+01
3.800000000000000000e+02,1.325027741353953914e+01
3.810000000000000000e+02,1.325562294918998596e+01
3.820000000000000000e+02,1.326090573084703017e+01
3.830000000000000000e+02,1.326612537456174756e+01
3.840000000000000000e+02,1.327128375567900598e+01
3.850000000000000000e+02,1.327638055048781496e+01
3.860000000000000000e+02,1.328141716009123030e+01
3.870000000000000000e+02,1.328639325566693685e+01
3.880000000000000000e+02,1.329131142342497540e+01
3.890000000000000000e+02,1.329617099593136764e+01
3.900000000000000000e+02,1.330097335744359199e+01
3.910000000000000000e+02,1.330571896113679564e+01
3.920000000000000000e+02,1.331040832359663995e+01
3.930000000000000000e+02,1.331504202463339048e+01
3.940000000000000000e+02,1.331962090505039953e+01
3.950000000000000000e+02,1.332414599986508641e+01
3.960000000000000000e+02,1.332861728575469762e+01
3.970000000000000000e+02,1.333303618691633829e+01
3.980000000000000000e+02,1.333740234582027107e+01
