# Time [s], Thickness [m]
1.000000000000000000e+00,8.000000400000000303e-03
2.000000000000000000e+00,8.000000400000000303e-03
3.000000000000000000e+00,8.000000400000000303e-03
4.000000000000000000e+00,8.000000400000000303e-03
5.000000000000000000e+00,8.000000400000000303e-03
6.000000000000000000e+00,8.000000400000000303e-03
7.000000000000000000e+00,8.000000400000000303e-03
8.000000000000000000e+00,8.000000400000000303e-03
9.000000000000000000e+00,8.000000400000000303e-03
1.000000000000000000e+01,8.000000400000000303e-03
1.100000000000000000e+01,8.000000400000000303e-03
1.200000000000000000e+01,8.000000400000000303e-03
1.300000000000000000e+01,8.000000400000000303e-03
1.400000000000000000e+01,8.000000400000000303e-03
1.500000000000000000e+01,8.000000400000000303e-03
1.600000000000000000e+01,7.999999400000000829e-03
1.700000000000000000e+01,7.999999400000000829e-03
1.800000000000000000e+01,7.999999400000000829e-03
1.900000000000000000e+01,7.999999400000000829e-03
2.000000000000000000e+01,7.999998499999999221e-03
2.100000000000000000e+01,7.999997599999999348e-03
2.200000000000000000e+01,7.999996699999999475e-03
2.300000000000000000e+01,7.999993900000000255e-03
2.400000000000000000e+01,7.999990099999999826e-03
2.500000000000000000e+01,7.999984499999999651e-03
2.600000000000000000e+01,7.999976199999999857e-03
2.700000000000000000e+01,7.999964999999999507e-03
2.800000000000000000e+01,7.999948200000000717e-03
2.900000000000000000e+01,7.999924000000000271e-03
3.000000000000000000e+01,7.999892300000000303e-03
3.100000000000000000e+01,7.999849499999999586e-03
3.200000000000000000e+01,7.999793599999999172e-03
3.300000000000000000e+01,7.999720099999999695e-03
3.400000000000000000e+01,7.999625999999999265e-03
3.500000000000000000e+01,7.999506800000000251e-03
3.600000000000000000e+01,7.999355899999999533e-03
3.700000000000000000e+01,7.999169599999999755e-03
3.800000000000000000e+01,7.998940499999999260e-03
3.900000000000000000e+01,7.998661100000000260e-03
4.000000000000000000e+01,7.998324899999999238e-03
4.100000000000000000e+01,7.997921700000000522e-03
4.200000000000000000e+01,7.997444799999999659e-03
4.300000000000000000e+01,7.996883200000000705e-03
4.400000000000000000e+01,7.996228500000000794e-03
4.500000000000000000e+01,7.995472300000000532e-03
4.600000000000000000e+01,7.994605199999999315e-03
4.700000000000000000e+01,7.993619000000000419e-03
4.800000000000000000e+01,7.992505999999999916e-03
4.900000000000000000e+01,7.991259900000000430e-03
5.000000000000000000e+01,7.989875000000000449e-03
5.100000000000000000e+01,7.988345799999999400e-03
5.200000000000000000e+01,7.986671299999999543e-03
5.300000000000000000e+01,7.984847800000000051e-03
5.400000000000000000e+01,7.982767199999999189e-03
5.500000000000000000e+01,7.980646600000000299e-03
5.600000000000000000e+01,7.978380700000000866e-03
5.700000000000000000e+01,7.975979700000000033e-03
5.800000000000000000e+01,7.973440000000000041e-03
5.900000000000000000e+01,7.970766199999999857e-03
6.000000000000000000e+01,7.967962900000000181e-03
6.100000000000000000e+01,7.965036700000000663e-03
6.200000000000000000e+01,7.961994999999999489e-03
6.300000000000000000e+01,7.958844300000000177e-03
6.400000000000000000e+01,7.955592100000000513e-03
6.500000000000000000e+01,7.952246799999999893e-03
6.600000000000000000e+01,7.948815799999999973e-03
6.700000000000000000e+01,7.945307500000000148e-03
6.800000000000000000e+01,7.941727500000000592e-03
6.900000000000000000e+01,7.938086100000000048e-03
7.000000000000000000e+01,7.934387799999999616e-03
7.100000000000000000e+01,7.930640100000000553e-03
7.200000000000000000e+01,7.926849600000000773e-03
7.300000000000000000e+01,7.923022800000000324e-03
7.400000000000000000e+01,7.919165299999999380e-03
7.500000000000000000e+01,7.915280800000000505e-03
7.600000000000000000e+01,7.911373899999999196e-03
7.700000000000000000e+01,7.907450200000000831e-03
7.800000000000000000e+01,7.903512600000000762e-03
7.900000000000000000e+01,7.899562799999999135e-03
8.000000000000000000e+01,7.895603799999999575e-03
8.100000000000000000e+01,7.891638200000000367e-03
8.200000000000000000e+01,7.887666999999999248e-03
8.300000000000000000e+01,7.883691199999999163e-03
8.400000000000000000e+01,7.879709800000000638e-03
8.500000000000000000e+01,7.875724699999999551e-03
8.600000000000000000e+01,7.871734899999999896e-03
8.700000000000000000e+01,7.867740499999999540e-03
8.800000000000000000e+01,7.863739499999999535e-03
8.900000000000000000e+01,7.859731999999999483e-03
9.000000000000000000e+01,7.855717099999999509e-03
9.100000000000000000e+01,7.851693800000000140e-03
9.200000000000000000e+01,7.847662099999999641e-03
9.300000000000000000e+01,7.843620100000000400e-03
9.400000000000000000e+01,7.839567999999999884e-03
9.500000000000000000e+01,7.835505499999999290e-03
9.600000000000000000e+01,7.831432899999999156e-03
9.700000000000000000e+01,7.827349900000000679e-03
9.800000000000000000e+01,7.823256799999999192e-03
9.900000000000000000e+01,7.819154300000000571e-03
1.000000000000000000e+02,7.815041599999999339e-03
1.010000000000000000e+02,7.810919999999999842e-03
1.020000000000000000e+02,7.806790099999999684e-03
1.030000000000000000e+02,7.802652700000000004e-03
1.040000000000000000e+02,7.798506900000000061e-03
1.050000000000000000e+02,7.794354100000000334e-03
1.060000000000000000e+02,7.790193899999999817e-03
1.070000000000000000e+02,7.786026700000000383e-03
1.080000000000000000e+02,7.781851600000000424e-03
1.090000000000000000e+02,7.777669499999999812e-03
1.100000000000000000e+02,7.773478999999999806e-03
1.110000000000000000e+02,7.769280600000000141e-03
1.120000000000000000e+02,7.765073299999999609e-03
1.130000000000000000e+02,7.760856299999999673e-03
1.140000000000000000e+02,7.756629000000000128e-03
1.150000000000000000e+02,7.752390999999999970e-03
1.160000000000000000e+02,7.748142399999999666e-03
1.170000000000000000e+02,7.743881499999999939e-03
1.180000000000000000e+02,7.739609100000000193e-03
1.190000000000000000e+02,7.735324099999999620e-03
1.200000000000000000e+02,7.731026999999999691e-03
1.210000000000000000e+02,7.726716300000000329e-03
1.220000000000000000e+02,7.722393600000000344e-03
1.230000000000000000e+02,7.718057799999999795e-03
1.240000000000000000e+02,7.713709000000000017e-03
1.250000000000000000e+02,7.709347600000000279e-03
1.260000000000000000e+02,7.704973700000000182e-03
1.270000000000000000e+02,7.700586700000000388e-03
1.280000000000000000e+02,7.696187099999999767e-03
1.290000000000000000e+02,7.691774999999999654e-03
1.300000000000000000e+02,7.687349799999999844e-03
1.310000000000000000e+02,7.682912099999999675e-03
1.320000000000000000e+02,7.678460300000000335e-03
1.330000000000000000e+02,7.673995599999999633e-03
1.340000000000000000e+02,7.669516399999999623e-03
1.350000000000000000e+02,7.665023200000000043e-03
1.360000000000000000e+02,7.660515599999999890e-03
1.370000000000000000e+02,7.655992200000000421e-03
1.380000000000000000e+02,7.651453400000000037e-03
1.390000000000000000e+02,7.646898299999999732e-03
1.400000000000000000e+02,7.642326900000000374e-03
1.410000000000000000e+02,7.637738699999999624e-03
1.420000000000000000e+02,7.633132899999999811e-03
1.430000000000000000e+02,7.628509300000000000e-03
1.440000000000000000e+02,7.623868100000000259e-03
1.450000000000000000e+02,7.619208700000000382e-03
1.460000000000000000e+02,7.614530599999999767e-03
1.470000000000000000e+02,7.609834000000000216e-03
1.480000000000000000e+02,7.605118200000000189e-03
1.490000000000000000e+02,7.600384299999999628e-03
1.500000000000000000e+02,7.595630800000000189e-03
1.510000000000000000e+02,7.590858300000000343e-03
1.520000000000000000e+02,7.586065700000000148e-03
1.530000000000000000e+02,7.581253500000000208e-03
1.540000000000000000e+02,7.576421399999999987e-03
1.550000000000000000e+02,7.571568199999999943e-03
1.560000000000000000e+02,7.566694599999999882e-03
1.570000000000000000e+02,7.561799600000000329e-03
1.580000000000000000e+02,7.556537599999999660e-03
1.590000000000000000e+02,7.551295199999999604e-03
1.600000000000000000e+02,7.546055599999999634e-03
1.610000000000000000e+02,7.540841099999999984e-03
1.620000000000000000e+02,7.535642000000000382e-03
1.630000000000000000e+02,7.530451799999999911e-03
1.640000000000000000e+02,7.525263400000000054e-03
1.650000000000000000e+02,7.520070799999999632e-03
1.660000000000000000e+02,7.514870699999999688e-03
1.670000000000000000e+02,7.509657599999999648e-03
1.680000000000000000e+02,7.504429200000000029e-03
1.690000000000000000e+02,7.499182099999999671e-03
1.700000000000000000e+02,7.493915000000000298e-03
1.710000000000000000e+02,7.488625100000000090e-03
1.720000000000000000e+02,7.483311500000000040e-03
1.730000000000000000e+02,7.477972200000000333e-03
1.740000000000000000e+02,7.472606399999999829e-03
1.750000000000000000e+02,7.467212600000000186e-03
1.760000000000000000e+02,7.461790000000000263e-03
1.770000000000000000e+02,7.456337599999999718e-03
1.780000000000000000e+02,7.450854399999999947e-03
1.790000000000000000e+02,7.445339599999999808e-03
1.800000000000000000e+02,7.439792599999999964e-03
1.810000000000000000e+02,7.434213099999999880e-03
1.820000000000000000e+02,7.428599099999999740e-03
1.830000000000000000e+02,7.422950600000000412e-03
1.840000000000000000e+02,7.417267200000000026e-03
1.850000000000000000e+02,7.411547499999999837e-03
1.860000000000000000e+02,7.405791899999999983e-03
1.870000000000000000e+02,7.399999099999999587e-03
1.880000000000000000e+02,7.394168999999999915e-03
1.890000000000000000e+02,7.388300700000000228e-03
1.900000000000000000e+02,7.382393800000000388e-03
1.910000000000000000e+02,7.376447799999999791e-03
1.920000000000000000e+02,7.370461699999999831e-03
1.930000000000000000e+02,7.364435600000000109e-03
1.940000000000000000e+02,7.358368500000000284e-03
1.950000000000000000e+02,7.352259899999999751e-03
1.960000000000000000e+02,7.346109499999999709e-03
1.970000000000000000e+02,7.339916699999999954e-03
1.980000000000000000e+02,7.333680500000000144e-03
1.990000000000000000e+02,7.327400100000000006e-03
2.000000000000000000e+02,7.321076000000000146e-03
2.010000000000000000e+02,7.314706199999999880e-03
2.020000000000000000e+02,7.308291300000000282e-03
2.030000000000000000e+02,7.301830199999999674e-03
2.040000000000000000e+02,7.295323099999999859e-03
2.050000000000000000e+02,7.288768400000000293e-03
2.060000000000000000e+02,7.282166700000000312e-03
2.070000000000000000e+02,7.275517100000000043e-03
2.080000000000000000e+02,7.268819999999999622e-03
2.090000000000000000e+02,7.262074399999999576e-03
2.100000000000000000e+02,7.255279899999999768e-03
2.110000000000000000e+02,7.248436999999999936e-03
2.120000000000000000e+02,7.241545200000000342e-03
2.130000000000000000e+02,7.234604599999999719e-03
2.140000000000000000e+02,7.227614999999999734e-03
2.150000000000000000e+02,7.220576999999999725e-03
2.160000000000000000e+02,7.213490500000000090e-03
2.170000000000000000e+02,7.206355700000000031e-03
2.180000000000000000e+02,7.199173300000000220e-03
2.190000000000000000e+02,7.191943499999999857e-03
2.200000000000000000e+02,7.184666999999999616e-03
2.210000000000000000e+02,7.177344500000000169e-03
2.220000000000000000e+02,7.169976399999999916e-03
2.230000000000000000e+02,7.162564399999999873e-03
2.240000000000000000e+02,7.155108299999999970e-03
2.250000000000000000e+02,7.147610199999999622e-03
2.260000000000000000e+02,7.140070699999999902e-03
2.270000000000000000e+02,7.132232700000000307e-03
2.280000000000000000e+02,7.124414199999999989e-03
2.290000000000000000e+02,7.116599900000000235e-03
2.300000000000000000e+02,7.108781500000000385e-03
2.310000000000000000e+02,7.100953699999999931e-03
2.320000000000000000e+02,7.093113800000000121e-03
2.330000000000000000e+02,7.085259499999999738e-03
2.340000000000000000e+02,7.077389899999999776e-03
2.350000000000000000e+02,7.069503900000000292e-03
2.360000000000000000e+02,7.061601199999999884e-03
2.370000000000000000e+02,7.053682599999999692e-03
2.380000000000000000e+02,7.045748600000000320e-03
2.390000000000000000e+02,7.037799299999999633e-03
2.400000000000000000e+02,7.029836499999999981e-03
2.410000000000000000e+02,7.021861600000000106e-03
2.420000000000000000e+02,7.013875099999999745e-03
2.430000000000000000e+02,7.005878299999999774e-03
2.440000000000000000e+02,6.997873100000000408e-03
2.450000000000000000e+02,6.989860900000000390e-03
2.460000000000000000e+02,6.981843199999999798e-03
2.470000000000000000e+02,6.973821699999999645e-03
2.480000000000000000e+02,6.965798799999999881e-03
2.490000000000000000e+02,6.957775400000000381e-03
2.500000000000000000e+02,6.949753999999999828e-03
2.510000000000000000e+02,6.941734800000000025e-03
2.520000000000000000e+02,6.933720800000000260e-03
2.530000000000000000e+02,6.925713299999999677e-03
2.540000000000000000e+02,6.917713199999999882e-03
2.550000000000000000e+02,6.909722899999999959e-03
2.560000000000000000e+02,6.901743800000000387e-03
2.570000000000000000e+02,6.893776800000000170e-03
2.580000000000000000e+02,6.885823800000000390e-03
2.590000000000000000e+02,6.877885700000000054e-03
2.600000000000000000e+02,6.869964299999999774e-03
2.610000000000000000e+02,6.862061099999999629e-03
2.620000000000000000e+02,6.854176499999999755e-03
2.630000000000000000e+02,6.846312400000000367e-03
2.640000000000000000e+02,6.838469300000000334e-03
2.650000000000000000e+02,6.830649000000000269e-03
2.660000000000000000e+02,6.822851999999999910e-03
2.670000000000000000e+02,6.815079600000000133e-03
2.680000000000000000e+02,6.807332400000000276e-03
2.690000000000000000e+02,6.799610799999999608e-03
2.700000000000000000e+02,6.791916700000000078e-03
2.710000000000000000e+02,6.784250000000000350e-03
2.720000000000000000e+02,6.776612300000000103e-03
2.730000000000000000e+02,6.769003299999999668e-03
2.740000000000000000e+02,6.761424700000000058e-03
2.750000000000000000e+02,6.753876300000000339e-03
2.760000000000000000e+02,6.746359599999999720e-03
2.770000000000000000e+02,6.738874599999999937e-03
2.780000000000000000e+02,6.731422199999999995e-03
2.790000000000000000e+02,6.724003200000000166e-03
2.800000000000000000e+02,6.716460500000000222e-03
2.810000000000000000e+02,6.708977700000000322e-03
2.820000000000000000e+02,6.701549999999999695e-03
2.830000000000000000e+02,6.694174399999999921e-03
2.840000000000000000e+02,6.686848100000000045e-03
2.850000000000000000e+02,6.679569399999999921e-03
2.860000000000000000e+02,6.672337199999999607e-03
2.870000000000000000e+02,6.665151099999999836e-03
2.880000000000000000e+02,6.658010199999999865e-03
2.890000000000000000e+02,6.650913500000000221e-03
2.900000000000000000e+02,6.643861499999999774e-03
2.910000000000000000e+02,6.636853800000000123e-03
2.920000000000000000e+02,6.629890799999999668e-03
2.930000000000000000e+02,6.622971499999999803e-03
2.940000000000000000e+02,6.616096499999999866e-03
2.950000000000000000e+02,6.609266199999999994e-03
2.960000000000000000e+02,6.602480099999999581e-03
2.970000000000000000e+02,6.595739199999999837e-03
2.980000000000000000e+02,6.589043000000000157e-03
2.990000000000000000e+02,6.582392400000000414e-03
3.000000000000000000e+02,6.575788400000000082e-03
3.010000000000000000e+02,6.569230500000000292e-03
3.020000000000000000e+02,6.562719600000000049e-03
3.030000000000000000e+02,6.556256699999999694e-03
3.040000000000000000e+02,6.549841699999999628e-03
3.050000000000000000e+02,6.543475699999999791e-03
3.060000000000000000e+02,6.537158999999999852e-03
3.070000000000000000e+02,6.530893000000000288e-03
3.080000000000000000e+02,6.524678800000000174e-03
3.090000000000000000e+02,6.518516200000000309e-03
3.100000000000000000e+02,6.512407199999999639e-03
3.110000000000000000e+02,6.506351799999999901e-03
3.120000000000000000e+02,6.500351700000000371e-03
3.130000000000000000e+02,6.494408000000000125e-03
3.140000000000000000e+02,6.488521100000000166e-03
3.150000000000000000e+02,6.482693399999999578e-03
3.160000000000000000e+02,6.476925199999999765e-03
3.170000000000000000e+02,6.471218100000000403e-03
3.180000000000000000e+02,6.465573300000000169e-03
3.190000000000000000e+02,6.459991899999999870e-03
3.200000000000000000e+02,6.454476199999999858e-03
3.210000000000000000e+02,6.449027000000000405e-03
3.220000000000000000e+02,6.443646299999999591e-03
3.230000000000000000e+02,6.438335899999999765e-03
3.240000000000000000e+02,6.433097599999999805e-03
3.250000000000000000e+02,6.427933499999999994e-03
3.260000000000000000e+02,6.422845200000000011e-03
3.270000000000000000e+02,6.417834699999999670e-03
3.280000000000000000e+02,6.412904199999999721e-03
3.290000000000000000e+02,6.408056199999999716e-03
3.300000000000000000e+02,6.403293000000000006e-03
3.310000000000000000e+02,6.398616799999999605e-03
3.320000000000000000e+02,6.394030099999999800e-03
3.330000000000000000e+02,6.389536000000000347e-03
3.340000000000000000e+02,6.385136399999999726e-03
3.350000000000000000e+02,6.380834600000000363e-03
3.360000000000000000e+02,6.376634400000000084e-03
3.370000000000000000e+02,6.372537499999999903e-03
3.380000000000000000e+02,6.368547700000000249e-03
3.390000000000000000e+02,6.364667800000000340e-03
3.400000000000000000e+02,6.360901100000000002e-03
3.410000000000000000e+02,6.357251700000000200e-03
3.420000000000000000e+02,6.353722000000000016e-03
3.430000000000000000e+02,6.350316600000000151e-03
3.440000000000000000e+02,6.347038299999999827e-03
3.450000000000000000e+02,6.343890900000000339e-03
3.460000000000000000e+02,6.340877600000000176e-03
3.470000000000000000e+02,6.338001700000000030e-03
3.480000000000000000e+02,6.335266899999999861e-03
3.490000000000000000e+02,6.332675900000000156e-03
3.500000000000000000e+02,6.330231199999999600e-03
3.510000000000000000e+02,6.327935500000000414e-03
3.520000000000000000e+02,6.325790700000000211e-03
3.530000000000000000e+02,6.323798599999999603e-03
3.540000000000000000e+02,6.321959700000000064e-03
3.550000000000000000e+02,6.320273500000000121e-03
3.560000000000000000e+02,6.318739599999999637e-03
3.570000000000000000e+02,6.317356100000000134e-03
3.580000000000000000e+02,6.316119799999999652e-03
3.590000000000000000e+02,6.315026900000000366e-03
3.600000000000000000e+02,6.314071800000000366e-03
3.610000000000000000e+02,6.313247600000000334e-03
3.620000000000000000e+02,6.312546300000000145e-03
3.630000000000000000e+02,6.311959100000000267e-03
3.640000000000000000e+02,6.311475799999999824e-03
3.650000000000000000e+02,6.311085999999999606e-03
3.660000000000000000e+02,6.310778199999999595e-03
3.670000000000000000e+02,6.310540699999999704e-03
3.680000000000000000e+02,6.310362400000000052e-03
3.690000000000000000e+02,6.310231999999999820e-03
3.700000000000000000e+02,6.310140700000000345e-03
3.710000000000000000e+02,6.310078299999999883e-03
3.720000000000000000e+02,6.310038300000000121e-03
3.730000000000000000e+02,6.310014499999999811e-03
3.740000000000000000e+02,6.310001499999999715e-03
3.750000000000000000e+02,6.309994999999999667e-03
3.760000000000000000e+02,6.309992199999999579e-03
3.770000000000000000e+02,6.309991699999999842e-03
3.780000000000000000e+02,6.309991699999999842e-03
3.790000000000000000e+02,6.309992599999999716e-03
3.800000000000000000e+02,6.309992599999999716e-03
3.810000000000000000e+02,6.309993100000000320e-03
3.820000000000000000e+02,6.309994000000000193e-03
3.830000000000000000e+02,6.309994499999999930e-03
3.840000000000000000e+02,6.309995399999999803e-03
3.850000000000000000e+02,6.309996400000000144e-03
3.860000000000000000e+02,6.309998199999999891e-03
3.870000000000000000e+02,6.309999200000000232e-03
3.880000000000000000e+02,6.309999600000000368e-03
3.890000000000000000e+02,6.309999600000000368e-03
3.900000000000000000e+02,6.310000100000000105e-03
3.910000000000000000e+02,6.310000100000000105e-03
3.920000000000000000e+02,6.310000100000000105e-03
3.930000000000000000e+02,6.310000100000000105e-03
3.940000000000000000e+02,6.310000100000000105e-03
3.950000000000000000e+02,6.310000100000000105e-03
3.960000000000000000e+02,6.310000100000000105e-03
3.970000000000000000e+02,6.310000100000000105e-03
3.980000000000000000e+02,6.310000100000000105e-03
3.990000000000000000e+02,6.310000100000000105e-03
