# Time [s], Temperature [C]
1.000000000000000000e+00,2.499997099999999861e+01
2.000000000000000000e+00,6.664508800000000122e+01
3.000000000000000000e+00,9.031210299999999336e+01
4.000000000000000000e+00,1.095527199999999937e+02
5.000000000000000000e+00,1.255645499999999970e+02
6.000000000000000000e+00,1.395895099999999900e+02
7.000000000000000000e+00,1.521055900000000065e+02
8.000000000000000000e+00,1.634698300000000017e+02
9.000000000000000000e+00,1.739041899999999998e+02
1.000000000000000000e+01,1.835703599999999938e+02
1.100000000000000000e+01,1.925868100000000140e+02
1.200000000000000000e+01,2.010432900000000132e+02
1.300000000000000000e+01,2.090133700000000090e+02
1.400000000000000000e+01,2.165549499999999910e+02
1.500000000000000000e+01,2.237178999999999860e+02
1.600000000000000000e+01,2.305446599999999933e+02
1.700000000000000000e+01,2.370776999999999930e+02
1.800000000000000000e+01,2.433539100000000133e+02
1.900000000000000000e+01,2.494116099999999960e+02
2.000000000000000000e+01,2.552893799999999942e+02
2.100000000000000000e+01,2.610147999999999797e+02
2.200000000000000000e+01,2.666077900000000227e+02
2.300000000000000000e+01,2.720681500000000028e+02
2.400000000000000000e+01,2.773741800000000239e+02
2.500000000000000000e+01,2.824988700000000108e+02
2.600000000000000000e+01,2.874198600000000283e+02
2.700000000000000000e+01,2.921259499999999889e+02
2.800000000000000000e+01,2.966224100000000021e+02
2.900000000000000000e+01,3.009257200000000125e+02
3.000000000000000000e+01,3.050509299999999939e+02
3.100000000000000000e+01,3.090119000000000256e+02
3.200000000000000000e+01,3.128263900000000035e+02
3.300000000000000000e+01,3.165022299999999973e+02
3.400000000000000000e+01,3.200481899999999769e+02
3.500000000000000000e+01,3.234758899999999926e+02
3.600000000000000000e+01,3.267863500000000272e+02
3.700000000000000000e+01,3.299842499999999745e+02
3.800000000000000000e+01,3.330770899999999983e+02
3.900000000000000000e+01,3.360646699999999782e+02
4.000000000000000000e+01,3.389486400000000117e+02
4.100000000000000000e+01,3.417340699999999742e+02
4.200000000000000000e+01,3.444188500000000204e+02
4.300000000000000000e+01,3.470042100000000005e+02
4.400000000000000000e+01,3.494948400000000106e+02
4.500000000000000000e+01,3.518888200000000097e+02
4.600000000000000000e+01,3.541888400000000274e+02
4.700000000000000000e+01,3.563978299999999990e+02
4.800000000000000000e+01,3.585171799999999962e+02
4.900000000000000000e+01,3.605490399999999909e+02
5.000000000000000000e+01,3.625009499999999889e+02
5.100000000000000000e+01,3.643725000000000023e+02
5.200000000000000000e+01,3.661691900000000146e+02
5.300000000000000000e+01,3.678978299999999990e+02
5.400000000000000000e+01,3.695610699999999724e+02
5.500000000000000000e+01,3.711627199999999789e+02
5.600000000000000000e+01,3.727127100000000155e+02
5.700000000000000000e+01,3.742127100000000155e+02
5.800000000000000000e+01,3.756691299999999956e+02
5.900000000000000000e+01,3.770899400000000128e+02
6.000000000000000000e+01,3.784743000000000279e+02
6.100000000000000000e+01,3.798317900000000122e+02
6.200000000000000000e+01,3.811644900000000007e+02
6.300000000000000000e+01,3.824780000000000086e+02
6.400000000000000000e+01,3.837737099999999941e+02
6.500000000000000000e+01,3.850602999999999838e+02
6.600000000000000000e+01,3.863360299999999938e+02
6.700000000000000000e+01,3.876051600000000121e+02
6.800000000000000000e+01,3.888685300000000211e+02
6.900000000000000000e+01,3.901324500000000057e+02
7.000000000000000000e+01,3.913951099999999883e+02
7.100000000000000000e+01,3.926596400000000244e+02
7.200000000000000000e+01,3.939242600000000039e+02
7.300000000000000000e+01,3.951955899999999815e+02
7.400000000000000000e+01,3.964711899999999787e+02
7.500000000000000000e+01,3.977508199999999761e+02
7.600000000000000000e+01,3.990325599999999895e+02
7.700000000000000000e+01,4.003233599999999797e+02
7.800000000000000000e+01,4.016162699999999859e+02
7.900000000000000000e+01,4.029119299999999839e+02
8.000000000000000000e+01,4.042099299999999857e+02
8.100000000000000000e+01,4.055130599999999959e+02
8.200000000000000000e+01,4.068152200000000107e+02
8.300000000000000000e+01,4.081153600000000097e+02
8.400000000000000000e+01,4.094172100000000114e+02
8.500000000000000000e+01,4.107143899999999803e+02
8.600000000000000000e+01,4.120052800000000275e+02
8.700000000000000000e+01,4.132939099999999826e+02
8.800000000000000000e+01,4.145717500000000086e+02
8.900000000000000000e+01,4.158450300000000084e+02
9.000000000000000000e+01,4.171046099999999797e+02
9.100000000000000000e+01,4.183591299999999933e+02
9.200000000000000000e+01,4.196023900000000140e+02
9.300000000000000000e+01,4.208346900000000232e+02
9.400000000000000000e+01,4.220554799999999886e+02
9.500000000000000000e+01,4.232663600000000201e+02
9.600000000000000000e+01,4.244650599999999940e+02
9.700000000000000000e+01,4.256526200000000131e+02
9.800000000000000000e+01,4.268306000000000040e+02
9.900000000000000000e+01,4.279975900000000024e+02
1.000000000000000000e+02,4.291545399999999972e+02
1.010000000000000000e+02,4.303026100000000156e+02
1.020000000000000000e+02,4.314405199999999923e+02
1.030000000000000000e+02,4.325693099999999731e+02
1.040000000000000000e+02,4.336906099999999924e+02
1.050000000000000000e+02,4.348031599999999912e+02
1.060000000000000000e+02,4.359109799999999950e+02
1.070000000000000000e+02,4.370062599999999975e+02
1.080000000000000000e+02,4.380901200000000131e+02
1.090000000000000000e+02,4.391684599999999818e+02
1.100000000000000000e+02,4.402486299999999915e+02
1.110000000000000000e+02,4.413113700000000108e+02
1.120000000000000000e+02,4.423664600000000178e+02
1.130000000000000000e+02,4.434167199999999980e+02
1.140000000000000000e+02,4.444526700000000119e+02
1.150000000000000000e+02,4.454809300000000007e+02
1.160000000000000000e+02,4.465047299999999950e+02
1.170000000000000000e+02,4.475143100000000231e+02
1.180000000000000000e+02,4.485186499999999796e+02
1.190000000000000000e+02,4.495097400000000221e+02
1.200000000000000000e+02,4.504959699999999998e+02
1.210000000000000000e+02,4.514729600000000005e+02
1.220000000000000000e+02,4.524436000000000035e+02
1.230000000000000000e+02,4.533987399999999752e+02
1.240000000000000000e+02,4.543502500000000168e+02
1.250000000000000000e+02,4.552937600000000202e+02
1.260000000000000000e+02,4.562304700000000253e+02
1.270000000000000000e+02,4.571572899999999890e+02
1.280000000000000000e+02,4.580742500000000064e+02
1.290000000000000000e+02,4.589912400000000048e+02
1.300000000000000000e+02,4.598953900000000203e+02
1.310000000000000000e+02,4.607995300000000043e+02
1.320000000000000000e+02,4.616889300000000276e+02
1.330000000000000000e+02,4.625749200000000201e+02
1.340000000000000000e+02,4.634575500000000261e+02
1.350000000000000000e+02,4.643292500000000018e+02
1.360000000000000000e+02,4.651966199999999958e+02
1.370000000000000000e+02,4.660591699999999946e+02
1.380000000000000000e+02,4.669159200000000283e+02
1.390000000000000000e+02,4.677637599999999907e+02
1.400000000000000000e+02,4.686102599999999825e+02
1.410000000000000000e+02,4.694446699999999737e+02
1.420000000000000000e+02,4.702762799999999856e+02
1.430000000000000000e+02,4.710966799999999921e+02
1.440000000000000000e+02,4.719186399999999821e+02
1.450000000000000000e+02,4.727314799999999764e+02
1.460000000000000000e+02,4.735371700000000033e+02
1.470000000000000000e+02,4.743392299999999864e+02
1.480000000000000000e+02,4.751339699999999766e+02
1.490000000000000000e+02,4.759211999999999989e+02
1.500000000000000000e+02,4.767051999999999907e+02
1.510000000000000000e+02,4.774832499999999982e+02
1.520000000000000000e+02,4.782532299999999736e+02
1.530000000000000000e+02,4.790200199999999882e+02
1.540000000000000000e+02,4.797815600000000131e+02
1.550000000000000000e+02,4.805417199999999980e+02
1.560000000000000000e+02,4.812916900000000169e+02
1.570000000000000000e+02,4.820339099999999917e+02
1.580000000000000000e+02,4.827755700000000161e+02
1.590000000000000000e+02,4.835111999999999739e+02
1.600000000000000000e+02,4.842422799999999938e+02
1.610000000000000000e+02,4.849687200000000189e+02
1.620000000000000000e+02,4.856896699999999782e+02
1.630000000000000000e+02,4.864082300000000032e+02
1.640000000000000000e+02,4.871164899999999989e+02
1.650000000000000000e+02,4.878232100000000173e+02
1.660000000000000000e+02,4.885241399999999885e+02
1.670000000000000000e+02,4.892250999999999976e+02
1.680000000000000000e+02,4.899157999999999902e+02
1.690000000000000000e+02,4.906033899999999903e+02
1.700000000000000000e+02,4.912880200000000173e+02
1.710000000000000000e+02,4.919699400000000082e+02
1.720000000000000000e+02,4.926422099999999773e+02
1.730000000000000000e+02,4.933123499999999808e+02
1.740000000000000000e+02,4.939801600000000121e+02
1.750000000000000000e+02,4.946396799999999985e+02
1.760000000000000000e+02,4.952998400000000174e+02
1.770000000000000000e+02,4.959532199999999875e+02
1.780000000000000000e+02,4.965999800000000164e+02
1.790000000000000000e+02,4.972447500000000105e+02
1.800000000000000000e+02,4.978861999999999739e+02
1.810000000000000000e+02,4.985197800000000257e+02
1.820000000000000000e+02,4.991514000000000237e+02
1.830000000000000000e+02,4.997793300000000158e+02
1.840000000000000000e+02,5.004027100000000132e+02
1.850000000000000000e+02,5.010245100000000207e+02
1.860000000000000000e+02,5.016373899999999821e+02
1.870000000000000000e+02,5.022505800000000136e+02
1.880000000000000000e+02,5.028557999999999879e+02
1.890000000000000000e+02,5.034643599999999992e+02
1.900000000000000000e+02,5.040616800000000239e+02
1.910000000000000000e+02,5.046577800000000025e+02
1.920000000000000000e+02,5.052502099999999814e+02
1.930000000000000000e+02,5.058388400000000047e+02
1.940000000000000000e+02,5.064254500000000121e+02
1.950000000000000000e+02,5.070058000000000220e+02
1.960000000000000000e+02,5.075835900000000152e+02
1.970000000000000000e+02,5.081579300000000217e+02
1.980000000000000000e+02,5.087252500000000168e+02
1.990000000000000000e+02,5.092965399999999931e+02
2.000000000000000000e+02,5.098567199999999957e+02
2.010000000000000000e+02,5.104169600000000173e+02
2.020000000000000000e+02,5.109741200000000276e+02
2.030000000000000000e+02,5.115239599999999882e+02
2.040000000000000000e+02,5.120725700000000415e+02
2.050000000000000000e+02,5.126177400000000262e+02
2.060000000000000000e+02,5.131613200000000461e+02
2.070000000000000000e+02,5.137006800000000339e+02
2.080000000000000000e+02,5.142322400000000471e+02
2.090000000000000000e+02,5.147671500000000151e+02
2.100000000000000000e+02,5.152940099999999575e+02
2.110000000000000000e+02,5.158157999999999674e+02
2.120000000000000000e+02,5.163396000000000186e+02
2.130000000000000000e+02,5.168551599999999553e+02
2.140000000000000000e+02,5.173695099999999911e+02
2.150000000000000000e+02,5.178817699999999604e+02
2.160000000000000000e+02,5.183902600000000120e+02
2.170000000000000000e+02,5.188917199999999639e+02
2.180000000000000000e+02,5.193965500000000475e+02
2.190000000000000000e+02,5.198919100000000526e+02
2.200000000000000000e+02,5.203883700000000090e+02
2.210000000000000000e+02,5.208802500000000464e+02
2.220000000000000000e+02,5.213685900000000402e+02
2.230000000000000000e+02,5.218550999999999931e+02
2.240000000000000000e+02,5.223365499999999884e+02
2.250000000000000000e+02,5.228166499999999814e+02
2.260000000000000000e+02,5.232920500000000175e+02
2.270000000000000000e+02,5.237647100000000364e+02
2.280000000000000000e+02,5.242352300000000014e+02
2.290000000000000000e+02,5.246999499999999443e+02
2.300000000000000000e+02,5.251647299999999632e+02
2.310000000000000000e+02,5.256242700000000241e+02
2.320000000000000000e+02,5.260814199999999801e+02
2.330000000000000000e+02,5.265372300000000223e+02
2.340000000000000000e+02,5.269897499999999582e+02
2.350000000000000000e+02,5.274369500000000244e+02
2.360000000000000000e+02,5.278836700000000519e+02
2.370000000000000000e+02,5.283267200000000230e+02
2.380000000000000000e+02,5.287623300000000199e+02
2.390000000000000000e+02,5.292013500000000477e+02
2.400000000000000000e+02,5.296347700000000032e+02
2.410000000000000000e+02,5.300666499999999814e+02
2.420000000000000000e+02,5.304929200000000264e+02
2.430000000000000000e+02,5.309185800000000199e+02
2.440000000000000000e+02,5.313406400000000076e+02
2.450000000000000000e+02,5.317618999999999687e+02
2.460000000000000000e+02,5.321765100000000075e+02
2.470000000000000000e+02,5.325904500000000326e+02
2.480000000000000000e+02,5.330029299999999921e+02
2.490000000000000000e+02,5.334115000000000464e+02
2.500000000000000000e+02,5.338171399999999949e+02
2.510000000000000000e+02,5.342179599999999482e+02
2.520000000000000000e+02,5.346177400000000262e+02
2.530000000000000000e+02,5.350156899999999496e+02
2.540000000000000000e+02,5.354107099999999946e+02
2.550000000000000000e+02,5.358024900000000343e+02
2.560000000000000000e+02,5.361922600000000330e+02
2.570000000000000000e+02,5.365796500000000151e+02
2.580000000000000000e+02,5.369608200000000124e+02
2.590000000000000000e+02,5.373416700000000219e+02
2.600000000000000000e+02,5.377213100000000168e+02
2.610000000000000000e+02,5.380978400000000192e+02
2.620000000000000000e+02,5.384713699999999790e+02
2.630000000000000000e+02,5.388427699999999732e+02
2.640000000000000000e+02,5.392116700000000264e+02
2.650000000000000000e+02,5.395778800000000501e+02
2.660000000000000000e+02,5.399415900000000192e+02
2.670000000000000000e+02,5.403022499999999582e+02
2.680000000000000000e+02,5.406613800000000083e+02
2.690000000000000000e+02,5.410199000000000069e+02
2.700000000000000000e+02,5.413728599999999460e+02
2.710000000000000000e+02,5.417219800000000305e+02
2.720000000000000000e+02,5.420703099999999495e+02
2.730000000000000000e+02,5.424171800000000303e+02
2.740000000000000000e+02,5.427619600000000446e+02
2.750000000000000000e+02,5.431050400000000309e+02
2.760000000000000000e+02,5.434450100000000248e+02
2.770000000000000000e+02,5.437844800000000305e+02
2.780000000000000000e+02,5.441183499999999640e+02
2.790000000000000000e+02,5.444508700000000090e+02
2.800000000000000000e+02,5.447815600000000131e+02
2.810000000000000000e+02,5.451133999999999560e+02
2.820000000000000000e+02,5.454401900000000296e+02
2.830000000000000000e+02,5.457647699999999986e+02
2.840000000000000000e+02,5.460893600000000561e+02
2.850000000000000000e+02,5.464085700000000543e+02
2.860000000000000000e+02,5.467273599999999760e+02
2.870000000000000000e+02,5.470439499999999953e+02
2.880000000000000000e+02,5.473580299999999852e+02
2.890000000000000000e+02,5.476716900000000123e+02
2.900000000000000000e+02,5.479805900000000065e+02
2.910000000000000000e+02,5.482885700000000497e+02
2.920000000000000000e+02,5.485947899999999890e+02
2.930000000000000000e+02,5.489014899999999670e+02
2.940000000000000000e+02,5.492050199999999904e+02
2.950000000000000000e+02,5.495058599999999842e+02
2.960000000000000000e+02,5.498049899999999752e+02
2.970000000000000000e+02,5.501038800000000037e+02
2.980000000000000000e+02,5.503978299999999990e+02
2.990000000000000000e+02,5.506922600000000330e+02
3.000000000000000000e+02,5.509838899999999740e+02
3.010000000000000000e+02,5.512757599999999911e+02
3.020000000000000000e+02,5.515659799999999677e+02
3.030000000000000000e+02,5.518537599999999657e+02
3.040000000000000000e+02,5.521383100000000468e+02
3.050000000000000000e+02,5.524237699999999904e+02
3.060000000000000000e+02,5.527042800000000398e+02
3.070000000000000000e+02,5.529849199999999882e+02
3.080000000000000000e+02,5.532675199999999904e+02
3.090000000000000000e+02,5.535434000000000196e+02
3.100000000000000000e+02,5.538194600000000491e+02
3.110000000000000000e+02,5.540938099999999622e+02
3.120000000000000000e+02,5.543680399999999509e+02
3.130000000000000000e+02,5.546399499999999989e+02
3.140000000000000000e+02,5.549106399999999439e+02
3.150000000000000000e+02,5.551803599999999506e+02
3.160000000000000000e+02,5.554464699999999766e+02
3.170000000000000000e+02,5.557133199999999533e+02
3.180000000000000000e+02,5.559807700000000068e+02
3.190000000000000000e+02,5.562423700000000508e+02
3.200000000000000000e+02,5.565048199999999952e+02
3.210000000000000000e+02,5.567664200000000392e+02
3.220000000000000000e+02,5.570261199999999917e+02
3.230000000000000000e+02,5.572846100000000433e+02
3.240000000000000000e+02,5.575431499999999687e+02
3.250000000000000000e+02,5.577979100000000017e+02
3.260000000000000000e+02,5.580546299999999746e+02
3.270000000000000000e+02,5.583088400000000320e+02
3.280000000000000000e+02,5.585594499999999698e+02
3.290000000000000000e+02,5.588120699999999488e+02
3.300000000000000000e+02,5.590618899999999485e+02
3.310000000000000000e+02,5.593114000000000487e+02
3.320000000000000000e+02,5.595610400000000482e+02
3.330000000000000000e+02,5.598064000000000533e+02
3.340000000000000000e+02,5.600545700000000124e+02
3.350000000000000000e+02,5.603007800000000316e+02
3.360000000000000000e+02,5.605431499999999687e+02
3.370000000000000000e+02,5.607897900000000391e+02
3.380000000000000000e+02,5.610309399999999869e+02
3.390000000000000000e+02,5.612722800000000234e+02
3.400000000000000000e+02,5.615133100000000468e+02
3.410000000000000000e+02,5.617532300000000305e+02
3.420000000000000000e+02,5.619934700000000021e+02
3.430000000000000000e+02,5.622297999999999547e+02
3.440000000000000000e+02,5.624687500000000000e+02
3.450000000000000000e+02,5.627056300000000419e+02
3.460000000000000000e+02,5.629397000000000162e+02
3.470000000000000000e+02,5.631783400000000483e+02
3.480000000000000000e+02,5.634109499999999571e+02
3.490000000000000000e+02,5.636442899999999554e+02
3.500000000000000000e+02,5.638778700000000299e+02
3.510000000000000000e+02,5.641104100000000017e+02
3.520000000000000000e+02,5.643433800000000247e+02
3.530000000000000000e+02,5.645726300000000037e+02
3.540000000000000000e+02,5.648049300000000130e+02
3.550000000000000000e+02,5.650351000000000568e+02
3.560000000000000000e+02,5.652633700000000090e+02
3.570000000000000000e+02,5.654953000000000429e+02
3.580000000000000000e+02,5.657211899999999787e+02
3.590000000000000000e+02,5.659503799999999956e+02
3.600000000000000000e+02,5.661775499999999965e+02
3.610000000000000000e+02,5.664049700000000485e+02
3.620000000000000000e+02,5.666324499999999489e+02
3.630000000000000000e+02,5.668586999999999989e+02
3.640000000000000000e+02,5.670858200000000124e+02
3.650000000000000000e+02,5.673102999999999838e+02
3.660000000000000000e+02,5.675382700000000114e+02
3.670000000000000000e+02,5.677611699999999928e+02
3.680000000000000000e+02,5.679869999999999663e+02
3.690000000000000000e+02,5.682145400000000564e+02
3.700000000000000000e+02,5.684371300000000247e+02
3.710000000000000000e+02,5.686626599999999598e+02
3.720000000000000000e+02,5.688867199999999684e+02
3.730000000000000000e+02,5.691122400000000425e+02
3.740000000000000000e+02,5.693360599999999749e+02
3.750000000000000000e+02,5.695601199999999835e+02
3.760000000000000000e+02,5.697850300000000061e+02
3.770000000000000000e+02,5.700096999999999525e+02
3.780000000000000000e+02,5.702345599999999877e+02
3.790000000000000000e+02,5.704565999999999804e+02
3.800000000000000000e+02,5.706842699999999695e+02
3.810000000000000000e+02,5.709071000000000140e+02
3.820000000000000000e+02,5.711331199999999626e+02
3.830000000000000000e+02,5.713580299999999852e+02
3.840000000000000000e+02,5.715830700000000206e+02
3.850000000000000000e+02,5.718093300000000454e+02
3.860000000000000000e+02,5.720357099999999946e+02
3.870000000000000000e+02,5.722625699999999824e+02
3.880000000000000000e+02,5.724873000000000047e+02
3.890000000000000000e+02,5.727181399999999485e+02
3.900000000000000000e+02,5.729445200000000114e+02
3.910000000000000000e+02,5.731729100000000017e+02
3.920000000000000000e+02,5.734041700000000219e+02
3.930000000000000000e+02,5.736324499999999489e+02
3.940000000000000000e+02,5.738641999999999825e+02
3.950000000000000000e+02,5.740950299999999515e+02
3.960000000000000000e+02,5.743279999999999745e+02
3.970000000000000000e+02,5.745587799999999561e+02
3.980000000000000000e+02,5.747946799999999712e+02
3.990000000000000000e+02,5.750299099999999726e+02
