# Time [s], Convective Heat Transfer Coefficient [W/m2K]
1.000000000000000000e+00,0.000000000000000000e+00
2.000000000000000000e+00,0.000000000000000000e+00
3.000000000000000000e+00,0.000000000000000000e+00
4.000000000000000000e+00,0.000000000000000000e+00
5.000000000000000000e+00,2.762023300960968902e-02
6.000000000000000000e+00,4.669921575117047530e-02
7.000000000000000000e+00,7.538707009062249609e-02
8.000000000000000000e+00,1.138308602855686996e-01
9.000000000000000000e+00,1.625495383041330455e-01
1.000000000000000000e+01,2.219880544393698918e-01
1.100000000000000000e+01,2.916627569602099901e-01
1.200000000000000000e+01,3.708477943906260399e-01
1.300000000000000000e+01,4.585527933162047431e-01
1.400000000000000000e+01,5.536486035489759372e-01
1.500000000000000000e+01,6.549727054041970531e-01
1.600000000000000000e+01,7.614422745547184679e-01
1.700000000000000000e+01,8.720427025071711968e-01
1.800000000000000000e+01,9.858788418043238355e-01
1.900000000000000000e+01,1.102162759947292736e+00
2.000000000000000000e+01,1.220216032233717218e+00
2.100000000000000000e+01,1.339457508837729405e+00
2.200000000000000000e+01,1.459394592104507726e+00
2.300000000000000000e+01,1.579609261091060590e+00
2.400000000000000000e+01,1.699753498501929805e+00
2.500000000000000000e+01,1.819536400633232631e+00
2.600000000000000000e+01,1.938713823422216320e+00
2.700000000000000000e+01,2.057084637772685021e+00
2.800000000000000000e+01,2.174482696895237765e+00
2.900000000000000000e+01,2.290772101470048394e+00
3.000000000000000000e+01,2.405841247697110052e+00
3.100000000000000000e+01,2.519602091307957981e+00
3.200000000000000000e+01,2.631980763451760019e+00
3.300000000000000000e+01,2.742925664081860226e+00
3.400000000000000000e+01,2.852391962625625776e+00
3.500000000000000000e+01,2.960346966622382503e+00
3.600000000000000000e+01,3.066770792848392713e+00
3.700000000000000000e+01,3.171650639940573502e+00
3.800000000000000000e+01,3.274980968035249962e+00
3.900000000000000000e+01,3.376764309000992004e+00
4.000000000000000000e+01,3.477002113568345543e+00
4.100000000000000000e+01,3.575705990391849998e+00
4.200000000000000000e+01,3.672886962592584403e+00
4.300000000000000000e+01,3.768563793405557583e+00
4.400000000000000000e+01,3.862753631304735702e+00
4.500000000000000000e+01,3.955476825919535422e+00
4.600000000000000000e+01,4.046754125143179337e+00
4.700000000000000000e+01,4.136608022560550602e+00
4.800000000000000000e+01,4.225060445574941426e+00
4.900000000000000000e+01,4.312134538319532417e+00
5.000000000000000000e+01,4.397855447339364510e+00
5.100000000000000000e+01,4.482244304321825190e+00
5.200000000000000000e+01,4.565326948020858033e+00
5.300000000000000000e+01,4.651479192092226711e+00
5.400000000000000000e+01,4.733486088293690663e+00
5.500000000000000000e+01,4.813542723990326344e+00
5.600000000000000000e+01,4.892138638740405554e+00
5.700000000000000000e+01,4.969376875140564920e+00
5.800000000000000000e+01,5.045332926265175821e+00
5.900000000000000000e+01,5.120056248587776970e+00
6.000000000000000000e+01,5.193586794551400487e+00
6.100000000000000000e+01,5.265960221949796960e+00
6.200000000000000000e+01,5.337207100831350637e+00
6.300000000000000000e+01,5.407352129157047216e+00
6.400000000000000000e+01,5.476421159426410057e+00
6.500000000000000000e+01,5.544439696854599475e+00
6.600000000000000000e+01,5.611428198629346831e+00
6.700000000000000000e+01,5.677409106965721541e+00
6.800000000000000000e+01,5.742401110256833974e+00
6.900000000000000000e+01,5.806424027019715162e+00
7.000000000000000000e+01,5.869494466227743068e+00
7.100000000000000000e+01,5.931631051786974140e+00
7.200000000000000000e+01,5.992851772966955259e+00
7.300000000000000000e+01,6.053169291716041123e+00
7.400000000000000000e+01,6.112602649712405523e+00
7.500000000000000000e+01,6.171167417948613121e+00
7.600000000000000000e+01,6.228877175862048254e+00
7.700000000000000000e+01,6.285748323899007062e+00
7.800000000000000000e+01,6.341795102146279284e+00
7.900000000000000000e+01,6.397034025275969427e+00
8.000000000000000000e+01,6.451479150109312499e+00
8.100000000000000000e+01,6.505143540920433232e+00
8.200000000000000000e+01,6.558043530932661902e+00
8.300000000000000000e+01,6.610192535416524962e+00
8.400000000000000000e+01,6.661604515890167555e+00
8.500000000000000000e+01,6.712293932764763049e+00
8.600000000000000000e+01,6.762273912126426367e+00
8.700000000000000000e+01,6.811559871143178846e+00
8.800000000000000000e+01,6.860164627044817998e+00
8.900000000000000000e+01,6.908101765576128983e+00
9.000000000000000000e+01,6.955383893309568855e+00
9.100000000000000000e+01,7.002024612391964276e+00
9.200000000000000000e+01,7.048037512601593058e+00
9.300000000000000000e+01,7.093434079294731021e+00
9.400000000000000000e+01,7.138228651023496241e+00
9.500000000000000000e+01,7.182431664097182811e+00
9.600000000000000000e+01,7.226056167762286542e+00
9.700000000000000000e+01,7.269113903994812276e+00
9.800000000000000000e+01,7.311616918867188453e+00
9.900000000000000000e+01,7.353575815509652891e+00
1.000000000000000000e+02,7.395001549826710097e+00
1.010000000000000000e+02,7.435905201221743255e+00
1.020000000000000000e+02,7.476298596560386756e+00
1.030000000000000000e+02,7.516190750669434095e+00
1.040000000000000000e+02,7.555591296918342969e+00
1.050000000000000000e+02,7.594510660105568078e+00
1.060000000000000000e+02,7.632958210598725479e+00
1.070000000000000000e+02,7.670943512941850173e+00
1.080000000000000000e+02,7.708474348711752633e+00
1.090000000000000000e+02,7.745560706685298058e+00
1.100000000000000000e+02,7.782211008187154277e+00
1.110000000000000000e+02,7.818433523133506036e+00
1.120000000000000000e+02,7.854235430285363861e+00
1.130000000000000000e+02,7.889624936904932717e+00
1.140000000000000000e+02,7.924610675806204263e+00
1.150000000000000000e+02,7.959198178241028820e+00
1.160000000000000000e+02,7.993395688397175292e+00
1.170000000000000000e+02,8.027210598476418824e+00
1.180000000000000000e+02,8.060648585633842345e+00
1.190000000000000000e+02,8.093717079165722694e+00
1.200000000000000000e+02,8.126422177842577810e+00
1.210000000000000000e+02,8.158770287432792756e+00
1.220000000000000000e+02,8.190766888800625978e+00
1.230000000000000000e+02,8.222418826006984816e+00
1.240000000000000000e+02,8.253731162907397945e+00
1.250000000000000000e+02,8.284709639289195238e+00
1.260000000000000000e+02,8.315359631312517763e+00
1.270000000000000000e+02,8.345686334235066894e+00
1.280000000000000000e+02,8.375694937060794487e+00
1.290000000000000000e+02,8.405390458322834490e+00
1.300000000000000000e+02,8.434777259677096239e+00
1.310000000000000000e+02,8.463860867135197807e+00
1.320000000000000000e+02,8.492645011162277768e+00
1.330000000000000000e+02,8.521134912470818890e+00
1.340000000000000000e+02,8.549333550028638484e+00
1.350000000000000000e+02,8.577246031406305704e+00
1.360000000000000000e+02,8.604876995399449058e+00
1.370000000000000000e+02,8.632228743071939547e+00
1.380000000000000000e+02,8.659306775913401921e+00
1.390000000000000000e+02,8.686113801599418593e+00
1.400000000000000000e+02,8.712652750482234865e+00
1.410000000000000000e+02,8.738927995550836769e+00
1.420000000000000000e+02,8.764943329308621855e+00
1.430000000000000000e+02,8.790701830379576975e+00
1.440000000000000000e+02,8.816206186220144403e+00
1.450000000000000000e+02,8.841459603363160724e+00
1.460000000000000000e+02,8.866465495444835199e+00
1.470000000000000000e+02,8.891226737735081542e+00
1.480000000000000000e+02,8.915746271737756246e+00
1.490000000000000000e+02,8.940026811028202403e+00
1.500000000000000000e+02,8.964070993635827378e+00
1.510000000000000000e+02,8.987881094745079125e+00
1.520000000000000000e+02,9.011459901586666987e+00
1.530000000000000000e+02,9.034810126966421606e+00
1.540000000000000000e+02,9.057934269059002119e+00
1.550000000000000000e+02,9.080834333450580331e+00
1.560000000000000000e+02,9.103513258385376616e+00
1.570000000000000000e+02,9.125978406063110171e+00
1.580000000000000000e+02,9.148223971626521234e+00
1.590000000000000000e+02,9.170253991313121134e+00
1.600000000000000000e+02,9.192071023363492799e+00
1.610000000000000000e+02,9.213678389980575645e+00
1.620000000000000000e+02,9.235079748418481671e+00
1.630000000000000000e+02,9.256279220739948244e+00
1.640000000000000000e+02,9.277280432142493538e+00
1.650000000000000000e+02,9.298086252301709820e+00
1.660000000000000000e+02,9.318698812937354248e+00
1.670000000000000000e+02,9.339121135131122742e+00
1.680000000000000000e+02,9.359354304205130148e+00
1.690000000000000000e+02,9.379399374617801044e+00
1.700000000000000000e+02,9.399256310687379212e+00
1.710000000000000000e+02,9.418926648401905410e+00
1.720000000000000000e+02,9.438410440447714933e+00
1.730000000000000000e+02,9.457707987986525566e+00
1.740000000000000000e+02,9.476819314071518008e+00
1.750000000000000000e+02,9.495745207638378815e+00
1.760000000000000000e+02,9.514485139230252742e+00
1.770000000000000000e+02,9.533040378082231925e+00
1.780000000000000000e+02,9.551410364387985297e+00
1.790000000000000000e+02,9.569594917268766210e+00
1.800000000000000000e+02,9.587594864022836560e+00
1.810000000000000000e+02,9.605409737425862460e+00
1.820000000000000000e+02,9.623039190007611765e+00
1.830000000000000000e+02,9.640483999174520591e+00
1.840000000000000000e+02,9.657742909215615512e+00
1.850000000000000000e+02,9.674816293993419691e+00
1.860000000000000000e+02,9.691702638449742224e+00
1.870000000000000000e+02,9.708403042124873039e+00
1.880000000000000000e+02,9.724914985302602233e+00
1.890000000000000000e+02,9.741239051330433441e+00
1.900000000000000000e+02,9.757374202074965197e+00
1.910000000000000000e+02,9.773318907348276241e+00
1.920000000000000000e+02,9.789072251728603291e+00
1.930000000000000000e+02,9.804633924116009425e+00
1.940000000000000000e+02,9.820002265537338459e+00
1.950000000000000000e+02,9.835176346927491764e+00
1.960000000000000000e+02,9.850155112746783459e+00
1.970000000000000000e+02,9.864936420075084200e+00
1.980000000000000000e+02,9.879519812559760084e+00
1.990000000000000000e+02,9.893903027031342390e+00
2.000000000000000000e+02,9.908085119309735234e+00
2.010000000000000000e+02,9.922064542134297227e+00
2.020000000000000000e+02,9.935840101616962627e+00
2.030000000000000000e+02,9.949410123904964820e+00
2.040000000000000000e+02,9.962772932744554666e+00
2.050000000000000000e+02,9.975927319213750977e+00
2.060000000000000000e+02,9.988872417539162996e+00
2.070000000000000000e+02,1.000160617880088765e+01
2.080000000000000000e+02,1.001412771981904903e+01
2.090000000000000000e+02,1.002643567766993726e+01
2.100000000000000000e+02,1.003852926041863292e+01
2.110000000000000000e+02,1.005040696488976870e+01
2.120000000000000000e+02,1.006206866559588420e+01
2.130000000000000000e+02,1.007351317581052363e+01
2.140000000000000000e+02,1.008474044608974829e+01
2.150000000000000000e+02,1.009574925423078184e+01
2.160000000000000000e+02,1.010654031195319291e+01
2.170000000000000000e+02,1.011711327053608045e+01
2.180000000000000000e+02,1.012746890030486746e+01
2.190000000000000000e+02,1.013760657327136983e+01
2.200000000000000000e+02,1.014752859685824227e+01
2.210000000000000000e+02,1.015723507958365879e+01
2.220000000000000000e+02,1.016672768970707708e+01
2.230000000000000000e+02,1.017600771914752578e+01
2.240000000000000000e+02,1.018507699013295742e+01
2.250000000000000000e+02,1.019393796363594618e+01
2.260000000000000000e+02,1.020268572394568096e+01
2.270000000000000000e+02,1.021119689696683253e+01
2.280000000000000000e+02,1.021950941583802575e+01
2.290000000000000000e+02,1.022763576362512694e+01
2.300000000000000000e+02,1.023557770974910852e+01
2.310000000000000000e+02,1.024333532054970952e+01
2.320000000000000000e+02,1.025090686100073789e+01
2.330000000000000000e+02,1.025829303472784382e+01
2.340000000000000000e+02,1.026549607755728388e+01
2.350000000000000000e+02,1.027252008001671690e+01
2.360000000000000000e+02,1.027936887079219197e+01
2.370000000000000000e+02,1.028604911765427765e+01
2.380000000000000000e+02,1.029256633268903798e+01
2.390000000000000000e+02,1.029892741982304649e+01
2.400000000000000000e+02,1.030513769183477635e+01
2.410000000000000000e+02,1.031120473519127145e+01
2.420000000000000000e+02,1.031713410943453013e+01
2.430000000000000000e+02,1.032293298560434280e+01
2.440000000000000000e+02,1.032860673713717858e+01
2.450000000000000000e+02,1.033416223958272084e+01
2.460000000000000000e+02,1.033960622146157604e+01
2.470000000000000000e+02,1.034494428203325533e+01
2.480000000000000000e+02,1.035018253745749028e+01
2.490000000000000000e+02,1.035532718263681318e+01
2.500000000000000000e+02,1.036038383757971282e+01
2.510000000000000000e+02,1.036535842282482811e+01
2.520000000000000000e+02,1.037025650580384806e+01
2.530000000000000000e+02,1.037508319460071426e+01
2.540000000000000000e+02,1.037984509650715381e+01
2.550000000000000000e+02,1.038454629549240948e+01
2.560000000000000000e+02,1.038919194322240003e+01
2.570000000000000000e+02,1.039378749627321596e+01
2.580000000000000000e+02,1.039833806571681585e+01
2.590000000000000000e+02,1.040284798641293484e+01
2.600000000000000000e+02,1.040732157727599905e+01
2.610000000000000000e+02,1.041176346559821120e+01
2.620000000000000000e+02,1.041617739918704899e+01
2.630000000000000000e+02,1.042056862195667755e+01
2.640000000000000000e+02,1.042494063648169700e+01
2.650000000000000000e+02,1.042929682577907435e+01
2.660000000000000000e+02,1.043364088403822976e+01
2.670000000000000000e+02,1.043797606330951666e+01
2.680000000000000000e+02,1.044230603422596459e+01
2.690000000000000000e+02,1.044663370439185890e+01
2.700000000000000000e+02,1.045096272201580234e+01
2.710000000000000000e+02,1.045529597361849206e+01
2.720000000000000000e+02,1.045963601515143893e+01
2.730000000000000000e+02,1.046398592860349552e+01
2.740000000000000000e+02,1.046834846519990947e+01
2.750000000000000000e+02,1.047272636689950609e+01
2.760000000000000000e+02,1.047712161986109614e+01
2.770000000000000000e+02,1.048153705580195627e+01
2.780000000000000000e+02,1.048597475142369539e+01
2.790000000000000000e+02,1.049129703246159195e+01
2.800000000000000000e+02,1.049618010011583280e+01
2.810000000000000000e+02,1.050093909587328334e+01
2.820000000000000000e+02,1.050565655409649501e+01
2.830000000000000000e+02,1.051034837394756849e+01
2.840000000000000000e+02,1.051503547930883187e+01
2.850000000000000000e+02,1.051973353625024110e+01
2.860000000000000000e+02,1.052445318771069083e+01
2.870000000000000000e+02,1.052920208175604344e+01
2.880000000000000000e+02,1.053398762742412131e+01
2.890000000000000000e+02,1.053881615213668432e+01
2.900000000000000000e+02,1.054369037892882766e+01
2.910000000000000000e+02,1.054861365072618540e+01
2.920000000000000000e+02,1.055358750983032756e+01
2.930000000000000000e+02,1.055861601121557669e+01
2.940000000000000000e+02,1.056370119956058140e+01
2.950000000000000000e+02,1.056884636732599247e+01
2.960000000000000000e+02,1.057405144178863310e+01
2.970000000000000000e+02,1.057931875389661869e+01
2.980000000000000000e+02,1.058465124991852768e+01
2.990000000000000000e+02,1.059005227925254822e+01
3.000000000000000000e+02,1.059552069120327999e+01
3.010000000000000000e+02,1.060106064929364145e+01
3.020000000000000000e+02,1.060667619260049932e+01
3.030000000000000000e+02,1.061236635061072420e+01
3.040000000000000000e+02,1.061813659085995099e+01
3.050000000000000000e+02,1.062398861973789366e+01
3.060000000000000000e+02,1.062992330333431212e+01
3.070000000000000000e+02,1.063594543199917908e+01
3.080000000000000000e+02,1.064205542875828669e+01
3.090000000000000000e+02,1.064825804614952354e+01
3.100000000000000000e+02,1.065455625654401217e+01
3.110000000000000000e+02,1.066095260087382890e+01
3.120000000000000000e+02,1.066745124808019440e+01
3.130000000000000000e+02,1.067405490225972287e+01
3.140000000000000000e+02,1.068076901815966195e+01
3.150000000000000000e+02,1.068759819615193152e+01
3.160000000000000000e+02,1.069454209259220256e+01
3.170000000000000000e+02,1.070160833038062975e+01
3.180000000000000000e+02,1.070880346279476392e+01
3.190000000000000000e+02,1.071613032854587644e+01
3.200000000000000000e+02,1.072359275852244487e+01
3.210000000000000000e+02,1.073119221350487784e+01
3.220000000000000000e+02,1.073894018379180615e+01
3.230000000000000000e+02,1.074684088466453069e+01
3.240000000000000000e+02,1.075490011219966568e+01
3.250000000000000000e+02,1.076312310786008730e+01
3.260000000000000000e+02,1.077151708325624213e+01
3.270000000000000000e+02,1.078009351957539508e+01
3.280000000000000000e+02,1.078885214016277772e+01
3.290000000000000000e+02,1.079780028081239607e+01
3.300000000000000000e+02,1.080695021944020517e+01
3.310000000000000000e+02,1.081631102585872917e+01
3.320000000000000000e+02,1.082588688720635695e+01
3.330000000000000000e+02,1.083568871348982832e+01
3.340000000000000000e+02,1.084572611231325823e+01
3.350000000000000000e+02,1.085600600567300411e+01
3.360000000000000000e+02,1.086654385367904574e+01
3.370000000000000000e+02,1.087734753845154323e+01
3.380000000000000000e+02,1.088842394986385997e+01
3.390000000000000000e+02,1.089978332700490071e+01
3.400000000000000000e+02,1.091144551113572980e+01
3.410000000000000000e+02,1.092341609319918128e+01
3.420000000000000000e+02,1.093570653050184660e+01
3.430000000000000000e+02,1.094832811834286979e+01
3.440000000000000000e+02,1.096129237424210068e+01
3.450000000000000000e+02,1.097461044452357193e+01
3.460000000000000000e+02,1.098829368264217088e+01
3.470000000000000000e+02,1.100235808684506722e+01
3.480000000000000000e+02,1.101680619487629542e+01
3.490000000000000000e+02,1.103164062313428673e+01
3.500000000000000000e+02,1.104687931525532996e+01
3.510000000000000000e+02,1.106251993130596034e+01
3.520000000000000000e+02,1.107857074295229083e+01
3.530000000000000000e+02,1.109502698917697572e+01
3.540000000000000000e+02,1.111188547729978637e+01
3.550000000000000000e+02,1.112913794584678762e+01
3.560000000000000000e+02,1.114677350182268256e+01
3.570000000000000000e+02,1.116477397316279152e+01
3.580000000000000000e+02,1.118311216333450098e+01
3.590000000000000000e+02,1.120176824594547682e+01
3.600000000000000000e+02,1.122070520449689468e+01
3.610000000000000000e+02,1.123987451144795102e+01
3.620000000000000000e+02,1.125923472075269238e+01
3.630000000000000000e+02,1.127873875903853040e+01
3.640000000000000000e+02,1.129832688511018368e+01
3.650000000000000000e+02,1.131794501633742023e+01
3.660000000000000000e+02,1.133753425830381367e+01
3.670000000000000000e+02,1.135703162617564033e+01
3.680000000000000000e+02,1.137638973897561101e+01
3.690000000000000000e+02,1.139555590451106148e+01
3.700000000000000000e+02,1.141448504443274814e+01
3.710000000000000000e+02,1.143314367233230655e+01
3.720000000000000000e+02,1.145149665723464594e+01
3.730000000000000000e+02,1.146952245064461096e+01
3.740000000000000000e+02,1.148720567387730895e+01
3.750000000000000000e+02,1.150453630566852326e+01
3.760000000000000000e+02,1.152151514987765246e+01
3.770000000000000000e+02,1.153814320978804631e+01
3.780000000000000000e+02,1.155442571867587453e+01
3.790000000000000000e+02,1.157037269377625321e+01
3.800000000000000000e+02,1.158599669416537381e+01
3.810000000000000000e+02,1.160131026987728298e+01
3.820000000000000000e+02,1.161632596804248330e+01
3.830000000000000000e+02,1.163106256893814461e+01
3.840000000000000000e+02,1.164553051309217047e+01
3.850000000000000000e+02,1.165974363501159239e+01
3.860000000000000000e+02,1.167371380097393185e+01
3.870000000000000000e+02,1.168745316554746516e+01
3.880000000000000000e+02,1.170097400154470080e+01
3.890000000000000000e+02,1.171428580245055784e+01
3.900000000000000000e+02,1.172739736022080592e+01
3.910000000000000000e+02,1.174031787998907816e+01
3.920000000000000000e+02,1.175305358843273851e+01
3.930000000000000000e+02,1.176561005134411708e+01
3.940000000000000000e+02,1.177799555766727835e+01
3.950000000000000000e+02,1.179021595590393900e+01
3.960000000000000000e+02,1.180227316843306440e+01
3.970000000000000000e+02,1.181417655479967088e+01
3.980000000000000000e+02,1.182592668367926869e+01
