# Time [s], Mass [Kg]
1.000000000000000000e+00,1.000000000000000000e+00
2.000000000000000000e+00,1.000000000000000000e+00
3.000000000000000000e+00,1.000000000000000000e+00
4.000000000000000000e+00,1.000000000000000000e+00
5.000000000000000000e+00,1.000000000000000000e+00
6.000000000000000000e+00,1.000000000000000000e+00
7.000000000000000000e+00,1.000000000000000000e+00
8.000000000000000000e+00,1.000000000000000000e+00
9.000000000000000000e+00,1.000000000000000000e+00
1.000000000000000000e+01,1.000000000000000000e+00
1.100000000000000000e+01,1.000000000000000000e+00
1.200000000000000000e+01,1.000000000000000000e+00
1.300000000000000000e+01,9.999999400000000316e-01
1.400000000000000000e+01,9.999999400000000316e-01
1.500000000000000000e+01,9.999998199999999837e-01
1.600000000000000000e+01,9.999997000000000469e-01
1.700000000000000000e+01,9.999993999999999827e-01
1.800000000000000000e+01,9.999989299999999526e-01
1.900000000000000000e+01,9.999980899999999506e-01
2.000000000000000000e+01,9.999967199999999501e-01
2.100000000000000000e+01,9.999945799999999663e-01
2.200000000000000000e+01,9.999913000000000274e-01
2.300000000000000000e+01,9.999862900000000554e-01
2.400000000000000000e+01,9.999789000000000039e-01
2.500000000000000000e+01,9.999681700000000451e-01
2.600000000000000000e+01,9.999531499999999573e-01
2.700000000000000000e+01,9.999322899999999459e-01
2.800000000000000000e+01,9.999040999999999624e-01
2.900000000000000000e+01,9.998664900000000522e-01
3.000000000000000000e+01,9.998173099999999591e-01
3.100000000000000000e+01,9.997539500000000023e-01
3.200000000000000000e+01,9.996735500000000219e-01
3.300000000000000000e+01,9.995728699999999467e-01
3.400000000000000000e+01,9.994487800000000366e-01
3.500000000000000000e+01,9.992976799999999660e-01
3.600000000000000000e+01,9.991162999999999572e-01
3.700000000000000000e+01,9.989013100000000422e-01
3.800000000000000000e+01,9.986497800000000424e-01
3.900000000000000000e+01,9.983589099999999883e-01
4.000000000000000000e+01,9.980267299999999731e-01
4.100000000000000000e+01,9.976515200000000139e-01
4.200000000000000000e+01,9.972322599999999815e-01
4.300000000000000000e+01,9.967683600000000199e-01
4.400000000000000000e+01,9.962599300000000158e-01
4.500000000000000000e+01,9.957074500000000494e-01
4.600000000000000000e+01,9.951117000000000434e-01
4.700000000000000000e+01,9.944739900000000299e-01
4.800000000000000000e+01,9.937957499999999778e-01
4.900000000000000000e+01,9.930785300000000149e-01
5.000000000000000000e+01,9.923240500000000130e-01
5.100000000000000000e+01,9.915341100000000241e-01
5.200000000000000000e+01,9.907105600000000178e-01
5.300000000000000000e+01,9.898551700000000064e-01
5.400000000000000000e+01,9.889698599999999784e-01
5.500000000000000000e+01,9.880562999999999985e-01
5.600000000000000000e+01,9.871160399999999724e-01
5.700000000000000000e+01,9.861511600000000266e-01
5.800000000000000000e+01,9.851628500000000344e-01
5.900000000000000000e+01,9.841526699999999517e-01
6.000000000000000000e+01,9.831224100000000021e-01
6.100000000000000000e+01,9.820731299999999608e-01
6.200000000000000000e+01,9.810060299999999733e-01
6.300000000000000000e+01,9.799228300000000225e-01
6.400000000000000000e+01,9.788244400000000178e-01
6.500000000000000000e+01,9.777118599999999882e-01
6.600000000000000000e+01,9.765865200000000135e-01
6.700000000000000000e+01,9.754490900000000186e-01
6.800000000000000000e+01,9.743005000000000138e-01
6.900000000000000000e+01,9.731419100000000544e-01
7.000000000000000000e+01,9.719740199999999941e-01
7.100000000000000000e+01,9.707973600000000536e-01
7.200000000000000000e+01,9.696130200000000476e-01
7.300000000000000000e+01,9.684212800000000509e-01
7.400000000000000000e+01,9.672226900000000516e-01
7.500000000000000000e+01,9.660180200000000328e-01
7.600000000000000000e+01,9.648075099999999793e-01
7.700000000000000000e+01,9.635914599999999552e-01
7.800000000000000000e+01,9.623703999999999592e-01
7.900000000000000000e+01,9.611444500000000390e-01
8.000000000000000000e+01,9.599136700000000522e-01
8.100000000000000000e+01,9.586783599999999517e-01
8.200000000000000000e+01,9.574384700000000414e-01
8.300000000000000000e+01,9.561940399999999673e-01
8.400000000000000000e+01,9.549450299999999725e-01
8.500000000000000000e+01,9.536914800000000358e-01
8.600000000000000000e+01,9.524330500000000033e-01
8.700000000000000000e+01,9.511699099999999518e-01
8.800000000000000000e+01,9.499017600000000394e-01
8.900000000000000000e+01,9.486284900000000464e-01
9.000000000000000000e+01,9.473500799999999833e-01
9.100000000000000000e+01,9.460663200000000161e-01
9.200000000000000000e+01,9.447771900000000445e-01
9.300000000000000000e+01,9.434826400000000390e-01
9.400000000000000000e+01,9.421825999999999812e-01
9.500000000000000000e+01,9.408770800000000323e-01
9.600000000000000000e+01,9.395661400000000496e-01
9.700000000000000000e+01,9.382499499999999992e-01
9.800000000000000000e+01,9.369284500000000238e-01
9.900000000000000000e+01,9.356018299999999677e-01
1.000000000000000000e+02,9.342702000000000506e-01
1.010000000000000000e+02,9.329337500000000061e-01
1.020000000000000000e+02,9.315925200000000350e-01
1.030000000000000000e+02,9.302467100000000322e-01
1.040000000000000000e+02,9.288963700000000268e-01
1.050000000000000000e+02,9.275416100000000164e-01
1.060000000000000000e+02,9.261823900000000220e-01
1.070000000000000000e+02,9.244442000000000492e-01
1.080000000000000000e+02,9.228051299999999735e-01
1.090000000000000000e+02,9.212597599999999831e-01
1.100000000000000000e+02,9.197613000000000039e-01
1.110000000000000000e+02,9.182944299999999949e-01
1.120000000000000000e+02,9.168462800000000135e-01
1.130000000000000000e+02,9.154093300000000211e-01
1.140000000000000000e+02,9.139779799999999677e-01
1.150000000000000000e+02,9.125486600000000115e-01
1.160000000000000000e+02,9.111188099999999457e-01
1.170000000000000000e+02,9.096865699999999721e-01
1.180000000000000000e+02,9.082508700000000434e-01
1.190000000000000000e+02,9.068108799999999858e-01
1.200000000000000000e+02,9.053664200000000051e-01
1.210000000000000000e+02,9.039173099999999739e-01
1.220000000000000000e+02,9.024634999999999740e-01
1.230000000000000000e+02,9.010052100000000008e-01
1.240000000000000000e+02,8.995424499999999934e-01
1.250000000000000000e+02,8.980753999999999682e-01
1.260000000000000000e+02,8.966041799999999728e-01
1.270000000000000000e+02,8.951288499999999759e-01
1.280000000000000000e+02,8.936493399999999587e-01
1.290000000000000000e+02,8.921654799999999552e-01
1.300000000000000000e+02,8.906772099999999970e-01
1.310000000000000000e+02,8.891844199999999754e-01
1.320000000000000000e+02,8.876866700000000110e-01
1.330000000000000000e+02,8.861837999999999660e-01
1.340000000000000000e+02,8.846754399999999796e-01
1.350000000000000000e+02,8.831613099999999772e-01
1.360000000000000000e+02,8.816410900000000161e-01
1.370000000000000000e+02,8.801145599999999902e-01
1.380000000000000000e+02,8.785813999999999568e-01
1.390000000000000000e+02,8.770415200000000189e-01
1.400000000000000000e+02,8.754946599999999801e-01
1.410000000000000000e+02,8.739408899999999703e-01
1.420000000000000000e+02,8.723800800000000022e-01
1.430000000000000000e+02,8.708121800000000468e-01
1.440000000000000000e+02,8.692372999999999905e-01
1.450000000000000000e+02,8.676554600000000450e-01
1.460000000000000000e+02,8.660668099999999647e-01
1.470000000000000000e+02,8.644714399999999799e-01
1.480000000000000000e+02,8.628694399999999876e-01
1.490000000000000000e+02,8.612609500000000251e-01
1.500000000000000000e+02,8.596459600000000423e-01
1.510000000000000000e+02,8.580246000000000262e-01
1.520000000000000000e+02,8.563968499999999873e-01
1.530000000000000000e+02,8.547626699999999467e-01
1.540000000000000000e+02,8.531221700000000130e-01
1.550000000000000000e+02,8.514751799999999982e-01
1.560000000000000000e+02,8.496153400000000522e-01
1.570000000000000000e+02,8.478096699999999597e-01
1.580000000000000000e+02,8.460362599999999844e-01
1.590000000000000000e+02,8.442835199999999540e-01
1.600000000000000000e+02,8.425443799999999817e-01
1.610000000000000000e+02,8.408136999999999972e-01
1.620000000000000000e+02,8.390878400000000292e-01
1.630000000000000000e+02,8.373642000000000030e-01
1.640000000000000000e+02,8.356407900000000222e-01
1.650000000000000000e+02,8.339160700000000093e-01
1.660000000000000000e+02,8.321889000000000092e-01
1.670000000000000000e+02,8.304582799999999931e-01
1.680000000000000000e+02,8.287233699999999592e-01
1.690000000000000000e+02,8.269835100000000327e-01
1.700000000000000000e+02,8.252380499999999452e-01
1.710000000000000000e+02,8.234865099999999494e-01
1.720000000000000000e+02,8.217281699999999800e-01
1.730000000000000000e+02,8.199626800000000548e-01
1.740000000000000000e+02,8.181893799999999661e-01
1.750000000000000000e+02,8.164078000000000168e-01
1.760000000000000000e+02,8.146175700000000131e-01
1.770000000000000000e+02,8.128182900000000544e-01
1.780000000000000000e+02,8.110095299999999785e-01
1.790000000000000000e+02,8.091910500000000228e-01
1.800000000000000000e+02,8.073624999999999829e-01
1.810000000000000000e+02,8.055237499999999828e-01
1.820000000000000000e+02,8.036746999999999641e-01
1.830000000000000000e+02,8.018152100000000004e-01
1.840000000000000000e+02,7.999451800000000334e-01
1.850000000000000000e+02,7.980645899999999626e-01
1.860000000000000000e+02,7.961735100000000287e-01
1.870000000000000000e+02,7.942718300000000120e-01
1.880000000000000000e+02,7.923596499999999709e-01
1.890000000000000000e+02,7.904370400000000352e-01
1.900000000000000000e+02,7.885040599999999511e-01
1.910000000000000000e+02,7.865606499999999723e-01
1.920000000000000000e+02,7.846069300000000357e-01
1.930000000000000000e+02,7.826429000000000302e-01
1.940000000000000000e+02,7.806686200000000353e-01
1.950000000000000000e+02,7.786840800000000007e-01
1.960000000000000000e+02,7.766894100000000245e-01
1.970000000000000000e+02,7.745127099999999931e-01
1.980000000000000000e+02,7.723717100000000446e-01
1.990000000000000000e+02,7.702509800000000295e-01
2.000000000000000000e+02,7.681419299999999728e-01
2.010000000000000000e+02,7.660396699999999504e-01
2.020000000000000000e+02,7.639406300000000094e-01
2.030000000000000000e+02,7.618424900000000388e-01
2.040000000000000000e+02,7.597433300000000500e-01
2.050000000000000000e+02,7.576419699999999979e-01
2.060000000000000000e+02,7.555373300000000070e-01
2.070000000000000000e+02,7.534284599999999665e-01
2.080000000000000000e+02,7.513147599999999704e-01
2.090000000000000000e+02,7.491956400000000516e-01
2.100000000000000000e+02,7.470706099999999683e-01
2.110000000000000000e+02,7.449394499999999475e-01
2.120000000000000000e+02,7.428019000000000149e-01
2.130000000000000000e+02,7.406577500000000036e-01
2.140000000000000000e+02,7.385069100000000164e-01
2.150000000000000000e+02,7.363494000000000428e-01
2.160000000000000000e+02,7.341852800000000512e-01
2.170000000000000000e+02,7.320146600000000392e-01
2.180000000000000000e+02,7.298376600000000547e-01
2.190000000000000000e+02,7.276545800000000508e-01
2.200000000000000000e+02,7.254656600000000122e-01
2.210000000000000000e+02,7.232713100000000006e-01
2.220000000000000000e+02,7.210718400000000194e-01
2.230000000000000000e+02,7.188676600000000194e-01
2.240000000000000000e+02,7.166591300000000331e-01
2.250000000000000000e+02,7.144466000000000427e-01
2.260000000000000000e+02,7.122304400000000202e-01
2.270000000000000000e+02,7.100111799999999640e-01
2.280000000000000000e+02,7.077891200000000493e-01
2.290000000000000000e+02,7.055646800000000551e-01
2.300000000000000000e+02,7.033382099999999637e-01
2.310000000000000000e+02,7.009801300000000346e-01
2.320000000000000000e+02,6.986499999999999932e-01
2.330000000000000000e+02,6.963398499999999824e-01
2.340000000000000000e+02,6.940448299999999460e-01
2.350000000000000000e+02,6.917617900000000430e-01
2.360000000000000000e+02,6.894887100000000046e-01
2.370000000000000000e+02,6.872239700000000173e-01
2.380000000000000000e+02,6.849665600000000021e-01
2.390000000000000000e+02,6.827156500000000072e-01
2.400000000000000000e+02,6.804704700000000495e-01
2.410000000000000000e+02,6.782305800000000273e-01
2.420000000000000000e+02,6.759956499999999480e-01
2.430000000000000000e+02,6.737653000000000114e-01
2.440000000000000000e+02,6.715393699999999688e-01
2.450000000000000000e+02,6.693175399999999886e-01
2.460000000000000000e+02,6.670997699999999808e-01
2.470000000000000000e+02,6.648858800000000402e-01
2.480000000000000000e+02,6.626758600000000055e-01
2.490000000000000000e+02,6.604696500000000192e-01
2.500000000000000000e+02,6.582672000000000523e-01
2.510000000000000000e+02,6.560685600000000228e-01
2.520000000000000000e+02,6.538737999999999495e-01
2.530000000000000000e+02,6.516829100000000041e-01
2.540000000000000000e+02,6.494960199999999517e-01
2.550000000000000000e+02,6.473131199999999641e-01
2.560000000000000000e+02,6.451343899999999465e-01
2.570000000000000000e+02,6.429597700000000415e-01
2.580000000000000000e+02,6.407895099999999511e-01
2.590000000000000000e+02,6.386235399999999895e-01
2.600000000000000000e+02,6.364619700000000435e-01
2.610000000000000000e+02,6.343049400000000393e-01
2.620000000000000000e+02,6.321524400000000377e-01
2.630000000000000000e+02,6.300045300000000070e-01
2.640000000000000000e+02,6.277610700000000321e-01
2.650000000000000000e+02,6.255418700000000554e-01
2.660000000000000000e+02,6.233422199999999469e-01
2.670000000000000000e+02,6.211588999999999583e-01
2.680000000000000000e+02,6.189896499999999468e-01
2.690000000000000000e+02,6.168328499999999881e-01
2.700000000000000000e+02,6.146873200000000370e-01
2.710000000000000000e+02,6.125519900000000462e-01
2.720000000000000000e+02,6.104260700000000428e-01
2.730000000000000000e+02,6.083090300000000283e-01
2.740000000000000000e+02,6.062002199999999563e-01
2.750000000000000000e+02,6.040992699999999660e-01
2.760000000000000000e+02,6.020057800000000459e-01
2.770000000000000000e+02,5.999195000000000499e-01
2.780000000000000000e+02,5.978400699999999457e-01
2.790000000000000000e+02,5.957673199999999891e-01
2.800000000000000000e+02,5.937010600000000027e-01
2.810000000000000000e+02,5.916411900000000390e-01
2.820000000000000000e+02,5.895875099999999813e-01
2.830000000000000000e+02,5.875399700000000225e-01
2.840000000000000000e+02,5.854985099999999720e-01
2.850000000000000000e+02,5.834630100000000041e-01
2.860000000000000000e+02,5.814335299999999762e-01
2.870000000000000000e+02,5.794100199999999701e-01
2.880000000000000000e+02,5.773924599999999963e-01
2.890000000000000000e+02,5.753808599999999940e-01
2.900000000000000000e+02,5.733751700000000451e-01
2.910000000000000000e+02,5.713754899999999859e-01
2.920000000000000000e+02,5.693817100000000408e-01
2.930000000000000000e+02,5.673940200000000544e-01
2.940000000000000000e+02,5.654123399999999577e-01
2.950000000000000000e+02,5.634366899999999623e-01
2.960000000000000000e+02,5.614671700000000154e-01
2.970000000000000000e+02,5.595037899999999453e-01
2.980000000000000000e+02,5.575466199999999928e-01
2.990000000000000000e+02,5.555957000000000257e-01
3.000000000000000000e+02,5.535704500000000472e-01
3.010000000000000000e+02,5.515658300000000347e-01
3.020000000000000000e+02,5.495786099999999674e-01
3.030000000000000000e+02,5.476068299999999889e-01
3.040000000000000000e+02,5.456488699999999525e-01
3.050000000000000000e+02,5.437036800000000225e-01
3.060000000000000000e+02,5.417703999999999853e-01
3.070000000000000000e+02,5.398483299999999874e-01
3.080000000000000000e+02,5.379370500000000277e-01
3.090000000000000000e+02,5.360359500000000388e-01
3.100000000000000000e+02,5.341448800000000441e-01
3.110000000000000000e+02,5.322634000000000531e-01
3.120000000000000000e+02,5.303913999999999573e-01
3.130000000000000000e+02,5.285287499999999916e-01
3.140000000000000000e+02,5.266752199999999995e-01
3.150000000000000000e+02,5.248308200000000312e-01
3.160000000000000000e+02,5.229955299999999863e-01
3.170000000000000000e+02,5.211693600000000259e-01
3.180000000000000000e+02,5.193523199999999784e-01
3.190000000000000000e+02,5.175444500000000447e-01
3.200000000000000000e+02,5.157459399999999583e-01
3.210000000000000000e+02,5.139567299999999728e-01
3.220000000000000000e+02,5.121770500000000226e-01
3.230000000000000000e+02,5.104070299999999838e-01
3.240000000000000000e+02,5.086467900000000153e-01
3.250000000000000000e+02,5.068966200000000200e-01
3.260000000000000000e+02,5.051565799999999662e-01
3.270000000000000000e+02,5.034269700000000292e-01
3.280000000000000000e+02,5.017079700000000031e-01
3.290000000000000000e+02,4.999999099999999919e-01
3.300000000000000000e+02,4.983029700000000117e-01
3.310000000000000000e+02,4.966174400000000211e-01
3.320000000000000000e+02,4.949436799999999970e-01
3.330000000000000000e+02,4.932819299999999796e-01
3.340000000000000000e+02,4.916326100000000254e-01
3.350000000000000000e+02,4.899961099999999847e-01
3.360000000000000000e+02,4.883727700000000116e-01
3.370000000000000000e+02,4.867630000000000012e-01
3.380000000000000000e+02,4.851672899999999733e-01
3.390000000000000000e+02,4.835861300000000029e-01
3.400000000000000000e+02,4.820199900000000093e-01
3.410000000000000000e+02,4.804080099999999964e-01
3.420000000000000000e+02,4.788241400000000092e-01
3.430000000000000000e+02,4.772663999999999795e-01
3.440000000000000000e+02,4.757338500000000137e-01
3.450000000000000000e+02,4.742258500000000043e-01
3.460000000000000000e+02,4.727420800000000090e-01
3.470000000000000000e+02,4.712824500000000194e-01
3.480000000000000000e+02,4.698470799999999725e-01
3.490000000000000000e+02,4.684362400000000037e-01
3.500000000000000000e+02,4.670503400000000083e-01
3.510000000000000000e+02,4.656900199999999823e-01
3.520000000000000000e+02,4.643559199999999776e-01
3.530000000000000000e+02,4.630488799999999960e-01
3.540000000000000000e+02,4.617697900000000133e-01
3.550000000000000000e+02,4.605197600000000002e-01
3.560000000000000000e+02,4.592998600000000042e-01
3.570000000000000000e+02,4.581113499999999727e-01
3.580000000000000000e+02,4.569556100000000121e-01
3.590000000000000000e+02,4.558340300000000012e-01
3.600000000000000000e+02,4.547481199999999779e-01
3.610000000000000000e+02,4.536996200000000257e-01
3.620000000000000000e+02,4.526901199999999736e-01
3.630000000000000000e+02,4.517214900000000033e-01
3.640000000000000000e+02,4.507955299999999998e-01
3.650000000000000000e+02,4.499141899999999916e-01
3.660000000000000000e+02,4.490793599999999830e-01
3.670000000000000000e+02,4.482929999999999970e-01
3.680000000000000000e+02,4.475569699999999984e-01
3.690000000000000000e+02,4.468730399999999992e-01
3.700000000000000000e+02,4.462428099999999898e-01
3.710000000000000000e+02,4.456676199999999866e-01
3.720000000000000000e+02,4.451485000000000025e-01
3.730000000000000000e+02,4.446859100000000176e-01
3.740000000000000000e+02,4.442797600000000235e-01
3.750000000000000000e+02,4.439292599999999922e-01
3.760000000000000000e+02,4.436327199999999804e-01
3.770000000000000000e+02,4.433875099999999847e-01
3.780000000000000000e+02,4.431899499999999992e-01
3.790000000000000000e+02,4.430355100000000212e-01
3.800000000000000000e+02,4.429188099999999961e-01
3.810000000000000000e+02,4.428339299999999867e-01
3.820000000000000000e+02,4.427747100000000158e-01
3.830000000000000000e+02,4.427352800000000088e-01
3.840000000000000000e+02,4.427103099999999958e-01
3.850000000000000000e+02,4.426953200000000033e-01
3.860000000000000000e+02,4.426867999999999914e-01
3.870000000000000000e+02,4.426822100000000204e-01
3.880000000000000000e+02,4.426798800000000256e-01
3.890000000000000000e+02,4.426787500000000097e-01
3.900000000000000000e+02,4.426782400000000006e-01
3.910000000000000000e+02,4.426780300000000001e-01
3.920000000000000000e+02,4.426779399999999920e-01
3.930000000000000000e+02,4.426779200000000025e-01
3.940000000000000000e+02,4.426779200000000025e-01
3.950000000000000000e+02,4.426779200000000025e-01
3.960000000000000000e+02,4.426779200000000025e-01
3.970000000000000000e+02,4.426778900000000183e-01
3.980000000000000000e+02,4.426778900000000183e-01
3.990000000000000000e+02,4.426778900000000183e-01
