# Time [s], Temperature [C]
1.000000000000000000e+00,2.499998099999999823e+01
2.000000000000000000e+00,4.853107500000000130e+01
3.000000000000000000e+00,6.197145499999999885e+01
4.000000000000000000e+00,7.292938999999999794e+01
5.000000000000000000e+00,8.212382499999999652e+01
6.000000000000000000e+00,9.022613499999999931e+01
7.000000000000000000e+00,9.751074199999999337e+01
8.000000000000000000e+00,1.041736899999999935e+02
9.000000000000000000e+00,1.103367400000000060e+02
1.000000000000000000e+01,1.160898700000000048e+02
1.100000000000000000e+01,1.214978600000000029e+02
1.200000000000000000e+01,1.266126200000000068e+02
1.300000000000000000e+01,1.314737100000000112e+02
1.400000000000000000e+01,1.361168199999999899e+02
1.500000000000000000e+01,1.405691500000000076e+02
1.600000000000000000e+01,1.448568999999999960e+02
1.700000000000000000e+01,1.490009799999999984e+02
1.800000000000000000e+01,1.530153200000000027e+02
1.900000000000000000e+01,1.569111200000000110e+02
2.000000000000000000e+01,1.606904900000000112e+02
2.100000000000000000e+01,1.643519900000000007e+02
2.200000000000000000e+01,1.678922000000000025e+02
2.300000000000000000e+01,1.713120700000000056e+02
2.400000000000000000e+01,1.746079400000000135e+02
2.500000000000000000e+01,1.777822400000000016e+02
2.600000000000000000e+01,1.808446800000000110e+02
2.700000000000000000e+01,1.837877000000000010e+02
2.800000000000000000e+01,1.866161700000000110e+02
2.900000000000000000e+01,1.893445399999999950e+02
3.000000000000000000e+01,1.919522900000000050e+02
3.100000000000000000e+01,1.944436200000000099e+02
3.200000000000000000e+01,1.968454099999999869e+02
3.300000000000000000e+01,1.991145500000000084e+02
3.400000000000000000e+01,2.012611499999999864e+02
3.500000000000000000e+01,2.033349900000000048e+02
3.600000000000000000e+01,2.052596399999999903e+02
3.700000000000000000e+01,2.070603800000000092e+02
3.800000000000000000e+01,2.088224199999999939e+02
3.900000000000000000e+01,2.104219799999999907e+02
4.000000000000000000e+01,2.119067699999999945e+02
4.100000000000000000e+01,2.134073500000000081e+02
4.200000000000000000e+01,2.147334400000000016e+02
4.300000000000000000e+01,2.159648699999999906e+02
4.400000000000000000e+01,2.172765799999999956e+02
4.500000000000000000e+01,2.184007400000000132e+02
4.600000000000000000e+01,2.194515800000000070e+02
4.700000000000000000e+01,2.206482200000000091e+02
4.800000000000000000e+01,2.216373900000000106e+02
4.900000000000000000e+01,2.225749999999999886e+02
5.000000000000000000e+01,2.237153500000000008e+02
5.100000000000000000e+01,2.246243900000000053e+02
5.200000000000000000e+01,2.254965799999999945e+02
5.300000000000000000e+01,2.266232599999999877e+02
5.400000000000000000e+01,2.274884900000000130e+02
5.500000000000000000e+01,2.283320799999999906e+02
5.600000000000000000e+01,2.294701399999999865e+02
5.700000000000000000e+01,2.303189700000000073e+02
5.800000000000000000e+01,2.311561399999999935e+02
5.900000000000000000e+01,2.323205000000000098e+02
6.000000000000000000e+01,2.331712499999999864e+02
6.100000000000000000e+01,2.340152999999999963e+02
6.200000000000000000e+01,2.352150900000000036e+02
6.300000000000000000e+01,2.360783800000000099e+02
6.400000000000000000e+01,2.369388399999999990e+02
6.500000000000000000e+01,2.381748200000000111e+02
6.600000000000000000e+01,2.390567499999999939e+02
6.700000000000000000e+01,2.399372400000000027e+02
6.800000000000000000e+01,2.412063799999999958e+02
6.900000000000000000e+01,2.421108900000000119e+02
7.000000000000000000e+01,2.430128200000000049e+02
7.100000000000000000e+01,2.443070400000000006e+02
7.200000000000000000e+01,2.452342999999999904e+02
7.300000000000000000e+01,2.461562800000000095e+02
7.400000000000000000e+01,2.474661099999999863e+02
7.500000000000000000e+01,2.484133300000000020e+02
7.600000000000000000e+01,2.493528699999999958e+02
7.700000000000000000e+01,2.506661200000000065e+02
7.800000000000000000e+01,2.516326400000000092e+02
7.900000000000000000e+01,2.525836899999999901e+02
8.000000000000000000e+01,2.538918799999999862e+02
8.100000000000000000e+01,2.548723799999999926e+02
8.200000000000000000e+01,2.558334499999999991e+02
8.300000000000000000e+01,2.571290900000000192e+02
8.400000000000000000e+01,2.581182600000000207e+02
8.500000000000000000e+01,2.590869400000000269e+02
8.600000000000000000e+01,2.603603200000000015e+02
8.700000000000000000e+01,2.613594100000000253e+02
8.800000000000000000e+01,2.623327300000000264e+02
8.900000000000000000e+01,2.635825800000000072e+02
9.000000000000000000e+01,2.626517000000000053e+02
9.100000000000000000e+01,2.599720500000000243e+02
9.200000000000000000e+01,2.602422199999999748e+02
9.300000000000000000e+01,2.607665400000000204e+02
9.400000000000000000e+01,2.615690599999999790e+02
9.500000000000000000e+01,2.627249800000000164e+02
9.600000000000000000e+01,2.637451500000000237e+02
9.700000000000000000e+01,2.647395300000000020e+02
9.800000000000000000e+01,2.659642600000000243e+02
9.900000000000000000e+01,2.670300599999999918e+02
1.000000000000000000e+02,2.680534099999999853e+02
1.010000000000000000e+02,2.692672099999999773e+02
1.020000000000000000e+02,2.703344099999999912e+02
1.030000000000000000e+02,2.713568099999999959e+02
1.040000000000000000e+02,2.725467499999999745e+02
1.050000000000000000e+02,2.736048599999999738e+02
1.060000000000000000e+02,2.746211200000000190e+02
1.070000000000000000e+02,2.757805500000000052e+02
1.080000000000000000e+02,2.768284600000000069e+02
1.090000000000000000e+02,2.778356899999999996e+02
1.100000000000000000e+02,2.789647199999999998e+02
1.110000000000000000e+02,2.799999399999999810e+02
1.120000000000000000e+02,2.809963099999999940e+02
1.130000000000000000e+02,2.820970500000000243e+02
1.140000000000000000e+02,2.831166099999999801e+02
1.150000000000000000e+02,2.841004899999999793e+02
1.160000000000000000e+02,2.851770000000000209e+02
1.170000000000000000e+02,2.861776699999999778e+02
1.180000000000000000e+02,2.871486800000000130e+02
1.190000000000000000e+02,2.881990400000000250e+02
1.200000000000000000e+02,2.891830699999999865e+02
1.210000000000000000e+02,2.901430700000000229e+02
1.220000000000000000e+02,2.911684599999999818e+02
1.230000000000000000e+02,2.921364399999999932e+02
1.240000000000000000e+02,2.930826999999999884e+02
1.250000000000000000e+02,2.940831000000000017e+02
1.260000000000000000e+02,2.950383299999999736e+02
1.270000000000000000e+02,2.959677399999999921e+02
1.280000000000000000e+02,2.969527899999999931e+02
1.290000000000000000e+02,2.978874799999999823e+02
1.300000000000000000e+02,2.988100000000000023e+02
1.310000000000000000e+02,2.997725500000000238e+02
1.320000000000000000e+02,3.006946699999999737e+02
1.330000000000000000e+02,3.016014400000000251e+02
1.340000000000000000e+02,3.025474199999999882e+02
1.350000000000000000e+02,3.034529099999999744e+02
1.360000000000000000e+02,3.043493000000000279e+02
1.370000000000000000e+02,3.041890900000000215e+02
1.380000000000000000e+02,3.042583900000000199e+02
1.390000000000000000e+02,3.048120700000000056e+02
1.400000000000000000e+02,3.054322500000000105e+02
1.410000000000000000e+02,3.061401399999999740e+02
1.420000000000000000e+02,3.068892799999999852e+02
1.430000000000000000e+02,3.077167400000000157e+02
1.440000000000000000e+02,3.085459900000000175e+02
1.450000000000000000e+02,3.093831200000000194e+02
1.460000000000000000e+02,3.102584200000000010e+02
1.470000000000000000e+02,3.111217300000000137e+02
1.480000000000000000e+02,3.119752500000000168e+02
1.490000000000000000e+02,3.128604100000000017e+02
1.500000000000000000e+02,3.137281500000000278e+02
1.510000000000000000e+02,3.145843499999999722e+02
1.520000000000000000e+02,3.154630999999999972e+02
1.530000000000000000e+02,3.163214399999999955e+02
1.540000000000000000e+02,3.171692199999999957e+02
1.550000000000000000e+02,3.180353999999999814e+02
1.560000000000000000e+02,3.188845800000000281e+02
1.570000000000000000e+02,3.197209799999999973e+02
1.580000000000000000e+02,3.205735799999999927e+02
1.590000000000000000e+02,3.214099699999999871e+02
1.600000000000000000e+02,3.222340399999999931e+02
1.610000000000000000e+02,3.230692399999999793e+02
1.620000000000000000e+02,3.238919099999999958e+02
1.630000000000000000e+02,3.247060900000000174e+02
1.640000000000000000e+02,3.255270100000000184e+02
1.650000000000000000e+02,3.263366100000000074e+02
1.660000000000000000e+02,3.271385200000000282e+02
1.670000000000000000e+02,3.279490999999999872e+02
1.680000000000000000e+02,3.287477400000000216e+02
1.690000000000000000e+02,3.295351900000000001e+02
1.700000000000000000e+02,3.303317900000000122e+02
1.710000000000000000e+02,3.311177999999999884e+02
1.720000000000000000e+02,3.318967000000000098e+02
1.730000000000000000e+02,3.326819499999999721e+02
1.740000000000000000e+02,3.334568199999999933e+02
1.750000000000000000e+02,3.342255599999999731e+02
1.760000000000000000e+02,3.349993600000000242e+02
1.770000000000000000e+02,3.357593699999999899e+02
1.780000000000000000e+02,3.360795299999999770e+02
1.790000000000000000e+02,3.366581400000000031e+02
1.800000000000000000e+02,3.373333999999999833e+02
1.810000000000000000e+02,3.380053700000000276e+02
1.820000000000000000e+02,3.386985500000000116e+02
1.830000000000000000e+02,3.393900800000000118e+02
1.840000000000000000e+02,3.400862099999999941e+02
1.850000000000000000e+02,3.407970900000000256e+02
1.860000000000000000e+02,3.415053399999999897e+02
1.870000000000000000e+02,3.422153000000000134e+02
1.880000000000000000e+02,3.429340799999999945e+02
1.890000000000000000e+02,3.436499600000000214e+02
1.900000000000000000e+02,3.443668200000000184e+02
1.910000000000000000e+02,3.450868199999999888e+02
1.920000000000000000e+02,3.458016400000000203e+02
1.930000000000000000e+02,3.465137899999999718e+02
1.940000000000000000e+02,3.472298299999999927e+02
1.950000000000000000e+02,3.479428399999999897e+02
1.960000000000000000e+02,3.486503299999999967e+02
1.970000000000000000e+02,3.493601400000000012e+02
1.980000000000000000e+02,3.500639600000000087e+02
1.990000000000000000e+02,3.507660500000000070e+02
2.000000000000000000e+02,3.514671299999999974e+02
2.010000000000000000e+02,3.521647600000000011e+02
2.020000000000000000e+02,3.528564799999999764e+02
2.030000000000000000e+02,3.535512100000000260e+02
2.040000000000000000e+02,3.542379799999999932e+02
2.050000000000000000e+02,3.549204100000000039e+02
2.060000000000000000e+02,3.556031500000000278e+02
2.070000000000000000e+02,3.562821999999999889e+02
2.080000000000000000e+02,3.569550800000000095e+02
2.090000000000000000e+02,3.576315599999999790e+02
2.100000000000000000e+02,3.583027599999999779e+02
2.110000000000000000e+02,3.589673199999999724e+02
2.120000000000000000e+02,3.596315900000000170e+02
2.130000000000000000e+02,3.602923599999999738e+02
2.140000000000000000e+02,3.609468699999999899e+02
2.150000000000000000e+02,3.616041000000000167e+02
2.160000000000000000e+02,3.621194199999999910e+02
2.170000000000000000e+02,3.626682999999999879e+02
2.180000000000000000e+02,3.632674900000000093e+02
2.190000000000000000e+02,3.638684700000000021e+02
2.200000000000000000e+02,3.644709799999999973e+02
2.210000000000000000e+02,3.650770299999999793e+02
2.220000000000000000e+02,3.656811799999999835e+02
2.230000000000000000e+02,3.662822300000000268e+02
2.240000000000000000e+02,3.668909600000000069e+02
2.250000000000000000e+02,3.674952099999999859e+02
2.260000000000000000e+02,3.681008299999999736e+02
2.270000000000000000e+02,3.687089199999999778e+02
2.280000000000000000e+02,3.693149700000000166e+02
2.290000000000000000e+02,3.699169899999999984e+02
2.300000000000000000e+02,3.705256699999999910e+02
2.310000000000000000e+02,3.711283599999999865e+02
2.320000000000000000e+02,3.717300999999999931e+02
2.330000000000000000e+02,3.723328599999999824e+02
2.340000000000000000e+02,3.729325299999999856e+02
2.350000000000000000e+02,3.735308499999999867e+02
2.360000000000000000e+02,3.741294300000000135e+02
2.370000000000000000e+02,3.747215600000000109e+02
2.380000000000000000e+02,3.753154299999999921e+02
2.390000000000000000e+02,3.759055500000000052e+02
2.400000000000000000e+02,3.764941699999999969e+02
2.410000000000000000e+02,3.770803199999999720e+02
2.420000000000000000e+02,3.776653699999999958e+02
2.430000000000000000e+02,3.782476500000000215e+02
2.440000000000000000e+02,3.788272099999999796e+02
2.450000000000000000e+02,3.794026200000000131e+02
2.460000000000000000e+02,3.799788199999999847e+02
2.470000000000000000e+02,3.805489499999999907e+02
2.480000000000000000e+02,3.811226199999999835e+02
2.490000000000000000e+02,3.816900899999999979e+02
2.500000000000000000e+02,3.822552800000000275e+02
2.510000000000000000e+02,3.828192399999999793e+02
2.520000000000000000e+02,3.833344399999999723e+02
2.530000000000000000e+02,3.838462499999999977e+02
2.540000000000000000e+02,3.843686500000000024e+02
2.550000000000000000e+02,3.848932199999999852e+02
2.560000000000000000e+02,3.854182700000000068e+02
2.570000000000000000e+02,3.859462300000000141e+02
2.580000000000000000e+02,3.864686599999999999e+02
2.590000000000000000e+02,3.869930699999999888e+02
2.600000000000000000e+02,3.875161699999999882e+02
2.610000000000000000e+02,3.880402199999999766e+02
2.620000000000000000e+02,3.885593900000000076e+02
2.630000000000000000e+02,3.890831000000000017e+02
2.640000000000000000e+02,3.896059900000000198e+02
2.650000000000000000e+02,3.901233799999999974e+02
2.660000000000000000e+02,3.906439500000000180e+02
2.670000000000000000e+02,3.911611599999999953e+02
2.680000000000000000e+02,3.916774599999999964e+02
2.690000000000000000e+02,3.921932100000000219e+02
2.700000000000000000e+02,3.927093199999999911e+02
2.710000000000000000e+02,3.932229300000000194e+02
2.720000000000000000e+02,3.937355299999999829e+02
2.730000000000000000e+02,3.942480800000000158e+02
2.740000000000000000e+02,3.947570499999999925e+02
2.750000000000000000e+02,3.952655599999999936e+02
2.760000000000000000e+02,3.957743800000000078e+02
2.770000000000000000e+02,3.962788400000000024e+02
2.780000000000000000e+02,3.967846400000000244e+02
2.790000000000000000e+02,3.972870199999999841e+02
2.800000000000000000e+02,3.977868300000000090e+02
2.810000000000000000e+02,3.982875700000000165e+02
2.820000000000000000e+02,3.987823200000000270e+02
2.830000000000000000e+02,3.992788699999999835e+02
2.840000000000000000e+02,3.997751499999999965e+02
2.850000000000000000e+02,4.002667200000000207e+02
2.860000000000000000e+02,4.007583599999999819e+02
2.870000000000000000e+02,4.012478600000000029e+02
2.880000000000000000e+02,4.017345599999999877e+02
2.890000000000000000e+02,4.021924099999999953e+02
2.900000000000000000e+02,4.026515200000000050e+02
2.910000000000000000e+02,4.031148400000000152e+02
2.920000000000000000e+02,4.035733299999999986e+02
2.930000000000000000e+02,4.040361300000000142e+02
2.940000000000000000e+02,4.044994199999999864e+02
2.950000000000000000e+02,4.049620100000000207e+02
2.960000000000000000e+02,4.054217499999999745e+02
2.970000000000000000e+02,4.058824500000000057e+02
2.980000000000000000e+02,4.063406699999999887e+02
2.990000000000000000e+02,4.068004500000000121e+02
3.000000000000000000e+02,4.072566199999999981e+02
3.010000000000000000e+02,4.077137099999999919e+02
3.020000000000000000e+02,4.081717199999999934e+02
3.030000000000000000e+02,4.086286000000000058e+02
3.040000000000000000e+02,4.090819700000000125e+02
3.050000000000000000e+02,4.095357700000000136e+02
3.060000000000000000e+02,4.099902999999999906e+02
3.070000000000000000e+02,4.104438499999999976e+02
3.080000000000000000e+02,4.108953599999999824e+02
3.090000000000000000e+02,4.113471099999999865e+02
3.100000000000000000e+02,4.117983100000000150e+02
3.110000000000000000e+02,4.122500000000000000e+02
3.120000000000000000e+02,4.126961400000000140e+02
3.130000000000000000e+02,4.131444999999999936e+02
3.140000000000000000e+02,4.135936899999999810e+02
3.150000000000000000e+02,4.140416299999999978e+02
3.160000000000000000e+02,4.144859000000000151e+02
3.170000000000000000e+02,4.149318499999999972e+02
3.180000000000000000e+02,4.153768900000000031e+02
3.190000000000000000e+02,4.158209800000000200e+02
3.200000000000000000e+02,4.162636999999999716e+02
3.210000000000000000e+02,4.167041300000000206e+02
3.220000000000000000e+02,4.171450500000000261e+02
3.230000000000000000e+02,4.175868500000000267e+02
3.240000000000000000e+02,4.180274000000000001e+02
3.250000000000000000e+02,4.184669799999999782e+02
3.260000000000000000e+02,4.189042699999999968e+02
3.270000000000000000e+02,4.193417999999999779e+02
3.280000000000000000e+02,4.197788699999999835e+02
3.290000000000000000e+02,4.202163100000000213e+02
3.300000000000000000e+02,4.206430399999999850e+02
3.310000000000000000e+02,4.210665900000000192e+02
3.320000000000000000e+02,4.214907200000000103e+02
3.330000000000000000e+02,4.219142800000000193e+02
3.340000000000000000e+02,4.223377699999999777e+02
3.350000000000000000e+02,4.227612599999999929e+02
3.360000000000000000e+02,4.231843900000000076e+02
3.370000000000000000e+02,4.236055299999999875e+02
3.380000000000000000e+02,4.240288400000000024e+02
3.390000000000000000e+02,4.244519999999999982e+02
3.400000000000000000e+02,4.248750299999999811e+02
3.410000000000000000e+02,4.252992199999999912e+02
3.420000000000000000e+02,4.257237900000000081e+02
3.430000000000000000e+02,4.261456000000000017e+02
3.440000000000000000e+02,4.265692399999999793e+02
3.450000000000000000e+02,4.269922500000000127e+02
3.460000000000000000e+02,4.274170799999999986e+02
3.470000000000000000e+02,4.278424699999999916e+02
3.480000000000000000e+02,4.282686199999999985e+02
3.490000000000000000e+02,4.286932400000000030e+02
3.500000000000000000e+02,4.291200900000000047e+02
3.510000000000000000e+02,4.295474199999999882e+02
3.520000000000000000e+02,4.299759799999999927e+02
3.530000000000000000e+02,4.304054300000000239e+02
3.540000000000000000e+02,4.308352399999999989e+02
3.550000000000000000e+02,4.312639800000000037e+02
3.560000000000000000e+02,4.316958300000000008e+02
3.570000000000000000e+02,4.321286600000000249e+02
3.580000000000000000e+02,4.325623800000000188e+02
3.590000000000000000e+02,4.329965500000000134e+02
3.600000000000000000e+02,4.334305400000000077e+02
3.610000000000000000e+02,4.338668200000000184e+02
3.620000000000000000e+02,4.343057900000000018e+02
3.630000000000000000e+02,4.347460300000000188e+02
3.640000000000000000e+02,4.351878100000000131e+02
3.650000000000000000e+02,4.356298199999999952e+02
3.660000000000000000e+02,4.360745200000000068e+02
3.670000000000000000e+02,4.365212099999999964e+02
3.680000000000000000e+02,4.369708299999999781e+02
3.690000000000000000e+02,4.374184000000000196e+02
3.700000000000000000e+02,4.378708500000000186e+02
3.710000000000000000e+02,4.383267500000000041e+02
3.720000000000000000e+02,4.387849699999999871e+02
3.730000000000000000e+02,4.392433199999999829e+02
3.740000000000000000e+02,4.397061199999999985e+02
3.750000000000000000e+02,4.401720000000000255e+02
3.760000000000000000e+02,4.406401399999999740e+02
3.770000000000000000e+02,4.411107200000000148e+02
3.780000000000000000e+02,4.415856600000000185e+02
3.790000000000000000e+02,4.420647000000000162e+02
3.800000000000000000e+02,4.425457200000000171e+02
3.810000000000000000e+02,4.430305500000000052e+02
3.820000000000000000e+02,4.435211199999999963e+02
3.830000000000000000e+02,4.440062899999999786e+02
3.840000000000000000e+02,4.444979599999999778e+02
3.850000000000000000e+02,4.449956399999999803e+02
3.860000000000000000e+02,4.454975900000000024e+02
3.870000000000000000e+02,4.460061299999999846e+02
3.880000000000000000e+02,4.465207500000000209e+02
3.890000000000000000e+02,4.470381800000000112e+02
3.900000000000000000e+02,4.475644800000000032e+02
3.910000000000000000e+02,4.480953999999999837e+02
3.920000000000000000e+02,4.486327800000000252e+02
3.930000000000000000e+02,4.491764800000000264e+02
3.940000000000000000e+02,4.497284500000000094e+02
3.950000000000000000e+02,4.502844200000000114e+02
3.960000000000000000e+02,4.508505900000000111e+02
3.970000000000000000e+02,4.514224500000000262e+02
3.980000000000000000e+02,4.519998800000000188e+02
3.990000000000000000e+02,4.525876499999999965e+02
