# Time [s], Mass [Kg]
1.000000000000000000e+00,1.000000000000000000e+00
2.000000000000000000e+00,1.000000000000000000e+00
3.000000000000000000e+00,1.000000000000000000e+00
4.000000000000000000e+00,1.000000000000000000e+00
5.000000000000000000e+00,1.000000000000000000e+00
6.000000000000000000e+00,1.000000000000000000e+00
7.000000000000000000e+00,1.000000000000000000e+00
8.000000000000000000e+00,1.000000000000000000e+00
9.000000000000000000e+00,1.000000000000000000e+00
1.000000000000000000e+01,9.999999400000000316e-01
1.100000000000000000e+01,9.999999400000000316e-01
1.200000000000000000e+01,9.999998799999999521e-01
1.300000000000000000e+01,9.999997600000000153e-01
1.400000000000000000e+01,9.999995200000000306e-01
1.500000000000000000e+01,9.999991700000000483e-01
1.600000000000000000e+01,9.999985700000000310e-01
1.700000000000000000e+01,9.999976799999999999e-01
1.800000000000000000e+01,9.999962999999999491e-01
1.900000000000000000e+01,9.999942800000000132e-01
2.000000000000000000e+01,9.999913000000000274e-01
2.100000000000000000e+01,9.999869500000000411e-01
2.200000000000000000e+01,9.999808100000000533e-01
2.300000000000000000e+01,9.999722800000000467e-01
2.400000000000000000e+01,9.999605400000000088e-01
2.500000000000000000e+01,9.999447500000000488e-01
2.600000000000000000e+01,9.999238299999999580e-01
2.700000000000000000e+01,9.998963499999999893e-01
2.800000000000000000e+01,9.998608799999999519e-01
2.900000000000000000e+01,9.998156400000000055e-01
3.000000000000000000e+01,9.997586000000000528e-01
3.100000000000000000e+01,9.996877299999999966e-01
3.200000000000000000e+01,9.996007099999999479e-01
3.300000000000000000e+01,9.994948500000000458e-01
3.400000000000000000e+01,9.993680099999999733e-01
3.500000000000000000e+01,9.992176900000000472e-01
3.600000000000000000e+01,9.990411399999999942e-01
3.700000000000000000e+01,9.988367599999999902e-01
3.800000000000000000e+01,9.986029899999999682e-01
3.900000000000000000e+01,9.983370900000000381e-01
4.000000000000000000e+01,9.980390700000000281e-01
4.100000000000000000e+01,9.977086800000000144e-01
4.200000000000000000e+01,9.973433000000000437e-01
4.300000000000000000e+01,9.969448400000000543e-01
4.400000000000000000e+01,9.965143800000000329e-01
4.500000000000000000e+01,9.960484499999999741e-01
4.600000000000000000e+01,9.955512300000000092e-01
4.700000000000000000e+01,9.950246200000000263e-01
4.800000000000000000e+01,9.944634399999999763e-01
4.900000000000000000e+01,9.938738900000000376e-01
5.000000000000000000e+01,9.932583600000000068e-01
5.100000000000000000e+01,9.926094399999999540e-01
5.200000000000000000e+01,9.919354299999999514e-01
5.300000000000000000e+01,9.912388300000000152e-01
5.400000000000000000e+01,9.905099299999999829e-01
5.500000000000000000e+01,9.897589100000000473e-01
5.600000000000000000e+01,9.889881600000000050e-01
5.700000000000000000e+01,9.881860599999999772e-01
5.800000000000000000e+01,9.873642299999999539e-01
5.900000000000000000e+01,9.865252399999999700e-01
6.000000000000000000e+01,9.856556699999999838e-01
6.100000000000000000e+01,9.847682700000000011e-01
6.200000000000000000e+01,9.838657400000000441e-01
6.300000000000000000e+01,9.829333399999999887e-01
6.400000000000000000e+01,9.819845000000000379e-01
6.500000000000000000e+01,9.810223000000000138e-01
6.600000000000000000e+01,9.800308300000000195e-01
6.700000000000000000e+01,9.790240500000000345e-01
6.800000000000000000e+01,9.780052299999999477e-01
6.900000000000000000e+01,9.769581600000000199e-01
7.000000000000000000e+01,9.758963600000000183e-01
7.100000000000000000e+01,9.748236500000000415e-01
7.200000000000000000e+01,9.737238900000000363e-01
7.300000000000000000e+01,9.726098199999999583e-01
7.400000000000000000e+01,9.714856699999999678e-01
7.500000000000000000e+01,9.703360800000000452e-01
7.600000000000000000e+01,9.691725399999999713e-01
7.700000000000000000e+01,9.679997000000000185e-01
7.800000000000000000e+01,9.668032500000000029e-01
7.900000000000000000e+01,9.655932200000000298e-01
8.000000000000000000e+01,9.643746600000000502e-01
8.100000000000000000e+01,9.631345300000000442e-01
8.200000000000000000e+01,9.618813999999999975e-01
8.300000000000000000e+01,9.606204000000000409e-01
8.400000000000000000e+01,9.593401599999999974e-01
8.500000000000000000e+01,9.580475699999999595e-01
8.600000000000000000e+01,9.567477699999999974e-01
8.700000000000000000e+01,9.554309800000000408e-01
8.800000000000000000e+01,9.541028099999999679e-01
8.900000000000000000e+01,9.527679100000000512e-01
9.000000000000000000e+01,9.514183400000000290e-01
9.100000000000000000e+01,9.497474999999999667e-01
9.200000000000000000e+01,9.482309199999999771e-01
9.300000000000000000e+01,9.467964800000000514e-01
9.400000000000000000e+01,9.453926700000000460e-01
9.500000000000000000e+01,9.440067399999999553e-01
9.600000000000000000e+01,9.426188500000000081e-01
9.700000000000000000e+01,9.412286899999999790e-01
9.800000000000000000e+01,9.398370400000000124e-01
9.900000000000000000e+01,9.384360299999999766e-01
1.000000000000000000e+02,9.370276899999999687e-01
1.010000000000000000e+02,9.356146499999999921e-01
1.020000000000000000e+02,9.341916399999999898e-01
1.030000000000000000e+02,9.327606600000000192e-01
1.040000000000000000e+02,9.313242999999999938e-01
1.050000000000000000e+02,9.298788900000000135e-01
1.060000000000000000e+02,9.284257299999999491e-01
1.070000000000000000e+02,9.269672599999999596e-01
1.080000000000000000e+02,9.255006900000000147e-01
1.090000000000000000e+02,9.240269700000000030e-01
1.100000000000000000e+02,9.225481199999999715e-01
1.110000000000000000e+02,9.210619899999999971e-01
1.120000000000000000e+02,9.195694300000000210e-01
1.130000000000000000e+02,9.180718700000000121e-01
1.140000000000000000e+02,9.165679199999999804e-01
1.150000000000000000e+02,9.150580200000000275e-01
1.160000000000000000e+02,9.135434599999999739e-01
1.170000000000000000e+02,9.120231300000000152e-01
1.180000000000000000e+02,9.104973699999999726e-01
1.190000000000000000e+02,9.089671400000000068e-01
1.200000000000000000e+02,9.074317800000000211e-01
1.210000000000000000e+02,9.058914200000000028e-01
1.220000000000000000e+02,9.043468799999999641e-01
1.230000000000000000e+02,9.027976399999999568e-01
1.240000000000000000e+02,9.012438699999999470e-01
1.250000000000000000e+02,8.996860399999999647e-01
1.260000000000000000e+02,8.981238599999999961e-01
1.270000000000000000e+02,8.965573900000000096e-01
1.280000000000000000e+02,8.949870500000000062e-01
1.290000000000000000e+02,8.934127099999999988e-01
1.300000000000000000e+02,8.918341400000000530e-01
1.310000000000000000e+02,8.902519300000000246e-01
1.320000000000000000e+02,8.886657399999999818e-01
1.330000000000000000e+02,8.870755999999999641e-01
1.340000000000000000e+02,8.854818300000000253e-01
1.350000000000000000e+02,8.838842500000000380e-01
1.360000000000000000e+02,8.822827899999999834e-01
1.370000000000000000e+02,8.806777000000000077e-01
1.380000000000000000e+02,8.789658500000000485e-01
1.390000000000000000e+02,8.772717100000000379e-01
1.400000000000000000e+02,8.755926499999999724e-01
1.410000000000000000e+02,8.739262800000000553e-01
1.420000000000000000e+02,8.722687999999999553e-01
1.430000000000000000e+02,8.706172100000000302e-01
1.440000000000000000e+02,8.689690799999999493e-01
1.450000000000000000e+02,8.673223899999999986e-01
1.460000000000000000e+02,8.656759899999999508e-01
1.470000000000000000e+02,8.640285699999999958e-01
1.480000000000000000e+02,8.623794299999999469e-01
1.490000000000000000e+02,8.607278499999999610e-01
1.500000000000000000e+02,8.590735200000000349e-01
1.510000000000000000e+02,8.574159700000000273e-01
1.520000000000000000e+02,8.557550299999999721e-01
1.530000000000000000e+02,8.540903899999999771e-01
1.540000000000000000e+02,8.524219400000000446e-01
1.550000000000000000e+02,8.507494300000000287e-01
1.560000000000000000e+02,8.490729299999999480e-01
1.570000000000000000e+02,8.473921399999999604e-01
1.580000000000000000e+02,8.457071800000000028e-01
1.590000000000000000e+02,8.440179199999999771e-01
1.600000000000000000e+02,8.423242600000000468e-01
1.610000000000000000e+02,8.406261200000000322e-01
1.620000000000000000e+02,8.389233900000000466e-01
1.630000000000000000e+02,8.372161999999999660e-01
1.640000000000000000e+02,8.355043500000000067e-01
1.650000000000000000e+02,8.337878600000000473e-01
1.660000000000000000e+02,8.320666599999999580e-01
1.670000000000000000e+02,8.303406199999999737e-01
1.680000000000000000e+02,8.286099399999999893e-01
1.690000000000000000e+02,8.268743200000000515e-01
1.700000000000000000e+02,8.251337399999999489e-01
1.710000000000000000e+02,8.233881600000000356e-01
1.720000000000000000e+02,8.216376300000000077e-01
1.730000000000000000e+02,8.198820399999999786e-01
1.740000000000000000e+02,8.181212500000000221e-01
1.750000000000000000e+02,8.163553500000000351e-01
1.760000000000000000e+02,8.145843099999999781e-01
1.770000000000000000e+02,8.128079200000000171e-01
1.780000000000000000e+02,8.110261600000000515e-01
1.790000000000000000e+02,8.091630899999999738e-01
1.800000000000000000e+02,8.073191600000000356e-01
1.810000000000000000e+02,8.054834600000000400e-01
1.820000000000000000e+02,8.036514500000000449e-01
1.830000000000000000e+02,8.018205200000000366e-01
1.840000000000000000e+02,7.999890400000000401e-01
1.850000000000000000e+02,7.981559599999999977e-01
1.860000000000000000e+02,7.963203199999999704e-01
1.870000000000000000e+02,7.944814000000000043e-01
1.880000000000000000e+02,7.926387799999999872e-01
1.890000000000000000e+02,7.907921100000000481e-01
1.900000000000000000e+02,7.889409699999999637e-01
1.910000000000000000e+02,7.870852400000000193e-01
1.920000000000000000e+02,7.852246200000000398e-01
1.930000000000000000e+02,7.833589300000000089e-01
1.940000000000000000e+02,7.814881200000000083e-01
1.950000000000000000e+02,7.796122399999999564e-01
1.960000000000000000e+02,7.777311799999999664e-01
1.970000000000000000e+02,7.758448100000000514e-01
1.980000000000000000e+02,7.739532599999999762e-01
1.990000000000000000e+02,7.720565799999999923e-01
2.000000000000000000e+02,7.701547100000000201e-01
2.010000000000000000e+02,7.682477199999999673e-01
2.020000000000000000e+02,7.663356700000000243e-01
2.030000000000000000e+02,7.644186600000000276e-01
2.040000000000000000e+02,7.624969499999999512e-01
2.050000000000000000e+02,7.605705900000000463e-01
2.060000000000000000e+02,7.586396300000000092e-01
2.070000000000000000e+02,7.567042099999999882e-01
2.080000000000000000e+02,7.547646199999999972e-01
2.090000000000000000e+02,7.528208499999999859e-01
2.100000000000000000e+02,7.508732700000000371e-01
2.110000000000000000e+02,7.489219900000000374e-01
2.120000000000000000e+02,7.469671399999999739e-01
2.130000000000000000e+02,7.450089500000000031e-01
2.140000000000000000e+02,7.430476499999999485e-01
2.150000000000000000e+02,7.410833799999999583e-01
2.160000000000000000e+02,7.391163699999999670e-01
2.170000000000000000e+02,7.370834899999999523e-01
2.180000000000000000e+02,7.350668299999999489e-01
2.190000000000000000e+02,7.330592299999999506e-01
2.200000000000000000e+02,7.310572300000000023e-01
2.210000000000000000e+02,7.290589800000000231e-01
2.220000000000000000e+02,7.270634200000000158e-01
2.230000000000000000e+02,7.250698199999999760e-01
2.240000000000000000e+02,7.230777699999999530e-01
2.250000000000000000e+02,7.210869800000000440e-01
2.260000000000000000e+02,7.190972599999999604e-01
2.270000000000000000e+02,7.171085499999999557e-01
2.280000000000000000e+02,7.151207899999999507e-01
2.290000000000000000e+02,7.131340499999999638e-01
2.300000000000000000e+02,7.111482599999999765e-01
2.310000000000000000e+02,7.091636100000000553e-01
2.320000000000000000e+02,7.071800799999999887e-01
2.330000000000000000e+02,7.051978100000000360e-01
2.340000000000000000e+02,7.032168500000000044e-01
2.350000000000000000e+02,7.012372599999999734e-01
2.360000000000000000e+02,6.992592800000000386e-01
2.370000000000000000e+02,6.972828500000000096e-01
2.380000000000000000e+02,6.953082099999999821e-01
2.390000000000000000e+02,6.933353500000000169e-01
2.400000000000000000e+02,6.913644700000000087e-01
2.410000000000000000e+02,6.893956100000000475e-01
2.420000000000000000e+02,6.874289500000000386e-01
2.430000000000000000e+02,6.854644399999999527e-01
2.440000000000000000e+02,6.835022600000000281e-01
2.450000000000000000e+02,6.815423999999999927e-01
2.460000000000000000e+02,6.795850399999999736e-01
2.470000000000000000e+02,6.776302499999999895e-01
2.480000000000000000e+02,6.756780700000000195e-01
2.490000000000000000e+02,6.737285899999999605e-01
2.500000000000000000e+02,6.717818399999999635e-01
2.510000000000000000e+02,6.698379500000000153e-01
2.520000000000000000e+02,6.678969300000000553e-01
2.530000000000000000e+02,6.659069100000000185e-01
2.540000000000000000e+02,6.639330399999999743e-01
2.550000000000000000e+02,6.619707299999999517e-01
2.560000000000000000e+02,6.600174300000000160e-01
2.570000000000000000e+02,6.580716399999999577e-01
2.580000000000000000e+02,6.561325199999999969e-01
2.590000000000000000e+02,6.541991799999999913e-01
2.600000000000000000e+02,6.522713300000000380e-01
2.610000000000000000e+02,6.503484800000000066e-01
2.620000000000000000e+02,6.484304699999999810e-01
2.630000000000000000e+02,6.465170399999999873e-01
2.640000000000000000e+02,6.446079599999999798e-01
2.650000000000000000e+02,6.427032400000000090e-01
2.660000000000000000e+02,6.408026199999999895e-01
2.670000000000000000e+02,6.389061799999999902e-01
2.680000000000000000e+02,6.370137299999999447e-01
2.690000000000000000e+02,6.351252800000000143e-01
2.700000000000000000e+02,6.332408200000000376e-01
2.710000000000000000e+02,6.313602900000000462e-01
2.720000000000000000e+02,6.294836999999999794e-01
2.730000000000000000e+02,6.276109800000000405e-01
2.740000000000000000e+02,6.257420200000000099e-01
2.750000000000000000e+02,6.238769299999999962e-01
2.760000000000000000e+02,6.220156599999999703e-01
2.770000000000000000e+02,6.201581999999999928e-01
2.780000000000000000e+02,6.183045499999999528e-01
2.790000000000000000e+02,6.164547200000000116e-01
2.800000000000000000e+02,6.146086499999999786e-01
2.810000000000000000e+02,6.127664400000000233e-01
2.820000000000000000e+02,6.109280599999999950e-01
2.830000000000000000e+02,6.090934300000000468e-01
2.840000000000000000e+02,6.072626700000000044e-01
2.850000000000000000e+02,6.054356699999999813e-01
2.860000000000000000e+02,6.036124800000000068e-01
2.870000000000000000e+02,6.017931699999999884e-01
2.880000000000000000e+02,5.999777299999999869e-01
2.890000000000000000e+02,5.981661700000000526e-01
2.900000000000000000e+02,5.963142500000000457e-01
2.910000000000000000e+02,5.944763400000000475e-01
2.920000000000000000e+02,5.926491600000000082e-01
2.930000000000000000e+02,5.908308599999999577e-01
2.940000000000000000e+02,5.890202500000000230e-01
2.950000000000000000e+02,5.872165000000000301e-01
2.960000000000000000e+02,5.854190599999999911e-01
2.970000000000000000e+02,5.836276400000000031e-01
2.980000000000000000e+02,5.818418300000000043e-01
2.990000000000000000e+02,5.800615000000000077e-01
3.000000000000000000e+02,5.782864699999999969e-01
3.010000000000000000e+02,5.765165100000000376e-01
3.020000000000000000e+02,5.747516799999999870e-01
3.030000000000000000e+02,5.729918499999999693e-01
3.040000000000000000e+02,5.712368500000000182e-01
3.050000000000000000e+02,5.694867999999999597e-01
3.060000000000000000e+02,5.677416299999999971e-01
3.070000000000000000e+02,5.660013000000000405e-01
3.080000000000000000e+02,5.642657899999999893e-01
3.090000000000000000e+02,5.625351699999999733e-01
3.100000000000000000e+02,5.608093699999999737e-01
3.110000000000000000e+02,5.590884099999999801e-01
3.120000000000000000e+02,5.573724500000000193e-01
3.130000000000000000e+02,5.556614399999999510e-01
3.140000000000000000e+02,5.539553799999999972e-01
3.150000000000000000e+02,5.522543800000000447e-01
3.160000000000000000e+02,5.505584500000000325e-01
3.170000000000000000e+02,5.488676399999999900e-01
3.180000000000000000e+02,5.471820800000000151e-01
3.190000000000000000e+02,5.455017699999999969e-01
3.200000000000000000e+02,5.438267599999999646e-01
3.210000000000000000e+02,5.421571099999999976e-01
3.220000000000000000e+02,5.404930100000000515e-01
3.230000000000000000e+02,5.388343899999999964e-01
3.240000000000000000e+02,5.371815599999999469e-01
3.250000000000000000e+02,5.355343799999999765e-01
3.260000000000000000e+02,5.338931099999999486e-01
3.270000000000000000e+02,5.322577400000000347e-01
3.280000000000000000e+02,5.306283800000000106e-01
3.290000000000000000e+02,5.290052899999999614e-01
3.300000000000000000e+02,5.273884500000000086e-01
3.310000000000000000e+02,5.257434800000000408e-01
3.320000000000000000e+02,5.241128200000000348e-01
3.330000000000000000e+02,5.224942000000000197e-01
3.340000000000000000e+02,5.208864199999999611e-01
3.350000000000000000e+02,5.192888399999999738e-01
3.360000000000000000e+02,5.177009099999999586e-01
3.370000000000000000e+02,5.161223999999999812e-01
3.380000000000000000e+02,5.145530099999999774e-01
3.390000000000000000e+02,5.129926799999999787e-01
3.400000000000000000e+02,5.114414099999999852e-01
3.410000000000000000e+02,5.098991400000000285e-01
3.420000000000000000e+02,5.083659900000000453e-01
3.430000000000000000e+02,5.068420200000000042e-01
3.440000000000000000e+02,5.053274599999999506e-01
3.450000000000000000e+02,5.038223899999999533e-01
3.460000000000000000e+02,5.023270199999999575e-01
3.470000000000000000e+02,5.008415000000000505e-01
3.480000000000000000e+02,4.993660699999999952e-01
3.490000000000000000e+02,4.979010200000000275e-01
3.500000000000000000e+02,4.964465499999999865e-01
3.510000000000000000e+02,4.950030100000000211e-01
3.520000000000000000e+02,4.935706300000000102e-01
3.530000000000000000e+02,4.921497400000000022e-01
3.540000000000000000e+02,4.907406899999999794e-01
3.550000000000000000e+02,4.893437600000000165e-01
3.560000000000000000e+02,4.879593300000000244e-01
3.570000000000000000e+02,4.865877900000000200e-01
3.580000000000000000e+02,4.852295500000000095e-01
3.590000000000000000e+02,4.838849599999999751e-01
3.600000000000000000e+02,4.825544700000000131e-01
3.610000000000000000e+02,4.812384800000000240e-01
3.620000000000000000e+02,4.799374900000000221e-01
3.630000000000000000e+02,4.786519399999999980e-01
3.640000000000000000e+02,4.773822699999999974e-01
3.650000000000000000e+02,4.761290000000000244e-01
3.660000000000000000e+02,4.748925900000000033e-01
3.670000000000000000e+02,4.736735799999999830e-01
3.680000000000000000e+02,4.724724599999999830e-01
3.690000000000000000e+02,4.712897500000000073e-01
3.700000000000000000e+02,4.701259999999999883e-01
3.710000000000000000e+02,4.689817399999999803e-01
3.720000000000000000e+02,4.678574799999999922e-01
3.730000000000000000e+02,4.667537500000000228e-01
3.740000000000000000e+02,4.656711199999999939e-01
3.750000000000000000e+02,4.646100699999999861e-01
3.760000000000000000e+02,4.635711599999999821e-01
3.770000000000000000e+02,4.625548700000000069e-01
3.780000000000000000e+02,4.615616499999999900e-01
3.790000000000000000e+02,4.605920000000000014e-01
3.800000000000000000e+02,4.596463100000000024e-01
3.810000000000000000e+02,4.587249800000000044e-01
3.820000000000000000e+02,4.578284300000000084e-01
3.830000000000000000e+02,4.569569800000000126e-01
3.840000000000000000e+02,4.561090500000000159e-01
3.850000000000000000e+02,4.552872800000000164e-01
3.860000000000000000e+02,4.544918800000000147e-01
3.870000000000000000e+02,4.537227999999999817e-01
3.880000000000000000e+02,4.529799500000000201e-01
3.890000000000000000e+02,4.522632400000000108e-01
3.900000000000000000e+02,4.515725700000000065e-01
3.910000000000000000e+02,4.509077400000000013e-01
3.920000000000000000e+02,4.502685699999999791e-01
3.930000000000000000e+02,4.496547300000000025e-01
3.940000000000000000e+02,4.490659499999999915e-01
3.950000000000000000e+02,4.485018299999999902e-01
3.960000000000000000e+02,4.479619300000000082e-01
3.970000000000000000e+02,4.474457499999999754e-01
3.980000000000000000e+02,4.469527899999999887e-01
3.990000000000000000e+02,4.464824499999999752e-01
