# Time [s], Temperature [C]
1.000000000000000000e+00,2.499997099999999861e+01
2.000000000000000000e+00,6.786550099999999475e+01
3.000000000000000000e+00,9.227247599999999750e+01
4.000000000000000000e+00,1.118730199999999968e+02
5.000000000000000000e+00,1.281604900000000100e+02
6.000000000000000000e+00,1.423647499999999866e+02
7.000000000000000000e+00,1.550132099999999866e+02
8.000000000000000000e+00,1.664711800000000039e+02
9.000000000000000000e+00,1.769696199999999919e+02
1.000000000000000000e+01,1.866766399999999919e+02
1.100000000000000000e+01,1.957183799999999962e+02
1.200000000000000000e+01,2.041858400000000131e+02
1.300000000000000000e+01,2.121563899999999876e+02
1.400000000000000000e+01,2.196937900000000070e+02
1.500000000000000000e+01,2.268471700000000055e+02
1.600000000000000000e+01,2.336672499999999957e+02
1.700000000000000000e+01,2.401968999999999994e+02
1.800000000000000000e+01,2.464778900000000021e+02
1.900000000000000000e+01,2.525416299999999978e+02
2.000000000000000000e+01,2.584132700000000114e+02
2.100000000000000000e+01,2.640973500000000058e+02
2.200000000000000000e+01,2.695826700000000073e+02
2.300000000000000000e+01,2.748581199999999853e+02
2.400000000000000000e+01,2.799078999999999837e+02
2.500000000000000000e+01,2.847293999999999983e+02
2.600000000000000000e+01,2.893340499999999906e+02
2.700000000000000000e+01,2.937287600000000225e+02
2.800000000000000000e+01,2.979259299999999939e+02
2.900000000000000000e+01,3.019356099999999969e+02
3.000000000000000000e+01,3.057624200000000201e+02
3.100000000000000000e+01,3.094122300000000223e+02
3.200000000000000000e+01,3.128886100000000283e+02
3.300000000000000000e+01,3.161903699999999731e+02
3.400000000000000000e+01,3.193184499999999844e+02
3.500000000000000000e+01,3.222771900000000187e+02
3.600000000000000000e+01,3.250625299999999811e+02
3.700000000000000000e+01,3.276790500000000179e+02
3.800000000000000000e+01,3.301308900000000222e+02
3.900000000000000000e+01,3.324197100000000091e+02
4.000000000000000000e+01,3.345541999999999803e+02
4.100000000000000000e+01,3.365432400000000257e+02
4.200000000000000000e+01,3.383937700000000177e+02
4.300000000000000000e+01,3.401167899999999804e+02
4.400000000000000000e+01,3.417219499999999925e+02
4.500000000000000000e+01,3.432228999999999814e+02
4.600000000000000000e+01,3.446289100000000190e+02
4.700000000000000000e+01,3.459484600000000114e+02
4.800000000000000000e+01,3.471964399999999955e+02
4.900000000000000000e+01,3.483775899999999979e+02
5.000000000000000000e+01,3.495007600000000139e+02
5.100000000000000000e+01,3.505750699999999824e+02
5.200000000000000000e+01,3.516068999999999960e+02
5.300000000000000000e+01,3.525976299999999810e+02
5.400000000000000000e+01,3.535600900000000024e+02
5.500000000000000000e+01,3.544969800000000077e+02
5.600000000000000000e+01,3.554031400000000076e+02
5.700000000000000000e+01,3.562953499999999849e+02
5.800000000000000000e+01,3.571725799999999822e+02
5.900000000000000000e+01,3.580281699999999887e+02
6.000000000000000000e+01,3.588788499999999999e+02
6.100000000000000000e+01,3.597215899999999920e+02
6.200000000000000000e+01,3.605478800000000206e+02
6.300000000000000000e+01,3.613751199999999812e+02
6.400000000000000000e+01,3.621977800000000229e+02
6.500000000000000000e+01,3.630112899999999740e+02
6.600000000000000000e+01,3.638277299999999741e+02
6.700000000000000000e+01,3.646443499999999744e+02
6.800000000000000000e+01,3.654505599999999959e+02
6.900000000000000000e+01,3.662633999999999901e+02
7.000000000000000000e+01,3.670778500000000122e+02
7.100000000000000000e+01,3.678833300000000008e+02
7.200000000000000000e+01,3.686985500000000116e+02
7.300000000000000000e+01,3.695129400000000146e+02
7.400000000000000000e+01,3.703213499999999954e+02
7.500000000000000000e+01,3.711367200000000253e+02
7.600000000000000000e+01,3.719520299999999793e+02
7.700000000000000000e+01,3.727601000000000226e+02
7.800000000000000000e+01,3.735716199999999958e+02
7.900000000000000000e+01,3.743840299999999957e+02
8.000000000000000000e+01,3.751862199999999916e+02
8.100000000000000000e+01,3.759928899999999885e+02
8.200000000000000000e+01,3.767958399999999983e+02
8.300000000000000000e+01,3.775871300000000019e+02
8.400000000000000000e+01,3.783799700000000144e+02
8.500000000000000000e+01,3.791651899999999955e+02
8.600000000000000000e+01,3.799408000000000243e+02
8.700000000000000000e+01,3.807126200000000154e+02
8.800000000000000000e+01,3.814755599999999731e+02
8.900000000000000000e+01,3.822285200000000032e+02
9.000000000000000000e+01,3.829756199999999922e+02
9.100000000000000000e+01,3.837146000000000186e+02
9.200000000000000000e+01,3.844416499999999814e+02
9.300000000000000000e+01,3.851624499999999784e+02
9.400000000000000000e+01,3.858760399999999890e+02
9.500000000000000000e+01,3.865805399999999850e+02
9.600000000000000000e+01,3.872789900000000216e+02
9.700000000000000000e+01,3.879708600000000160e+02
9.800000000000000000e+01,3.886571400000000267e+02
9.900000000000000000e+01,3.893393599999999992e+02
1.000000000000000000e+02,3.900200199999999882e+02
1.010000000000000000e+02,3.906945200000000114e+02
1.020000000000000000e+02,3.913680699999999888e+02
1.030000000000000000e+02,3.920414700000000039e+02
1.040000000000000000e+02,3.927113299999999754e+02
1.050000000000000000e+02,3.933790000000000191e+02
1.060000000000000000e+02,3.915022000000000162e+02
1.070000000000000000e+02,3.891037600000000225e+02
1.080000000000000000e+02,3.890946700000000078e+02
1.090000000000000000e+02,3.893600799999999822e+02
1.100000000000000000e+02,3.899039300000000026e+02
1.110000000000000000e+02,3.905513000000000261e+02
1.120000000000000000e+02,3.912661100000000260e+02
1.130000000000000000e+02,3.920088799999999765e+02
1.140000000000000000e+02,3.927642799999999852e+02
1.150000000000000000e+02,3.935237399999999752e+02
1.160000000000000000e+02,3.942770399999999995e+02
1.170000000000000000e+02,3.950228900000000181e+02
1.180000000000000000e+02,3.957578100000000063e+02
1.190000000000000000e+02,3.964840699999999742e+02
1.200000000000000000e+02,3.972019700000000171e+02
1.210000000000000000e+02,3.979125700000000165e+02
1.220000000000000000e+02,3.986167599999999993e+02
1.230000000000000000e+02,3.993161299999999869e+02
1.240000000000000000e+02,4.000129699999999957e+02
1.250000000000000000e+02,4.007076099999999883e+02
1.260000000000000000e+02,4.014024699999999939e+02
1.270000000000000000e+02,4.020952800000000025e+02
1.280000000000000000e+02,4.027863800000000083e+02
1.290000000000000000e+02,4.034785800000000222e+02
1.300000000000000000e+02,4.041718799999999874e+02
1.310000000000000000e+02,4.048633699999999749e+02
1.320000000000000000e+02,4.055541400000000181e+02
1.330000000000000000e+02,4.062428300000000263e+02
1.340000000000000000e+02,4.069307299999999827e+02
1.350000000000000000e+02,4.076143200000000206e+02
1.360000000000000000e+02,4.082944600000000150e+02
1.370000000000000000e+02,4.089716199999999731e+02
1.380000000000000000e+02,4.096424299999999903e+02
1.390000000000000000e+02,4.103084699999999998e+02
1.400000000000000000e+02,4.109725999999999999e+02
1.410000000000000000e+02,4.116286299999999869e+02
1.420000000000000000e+02,4.122787799999999834e+02
1.430000000000000000e+02,4.129250499999999988e+02
1.440000000000000000e+02,4.135648499999999785e+02
1.450000000000000000e+02,4.142019000000000233e+02
1.460000000000000000e+02,4.148351099999999860e+02
1.470000000000000000e+02,4.154625899999999774e+02
1.480000000000000000e+02,4.160880700000000161e+02
1.490000000000000000e+02,4.167111199999999940e+02
1.500000000000000000e+02,4.173303199999999720e+02
1.510000000000000000e+02,4.179479999999999791e+02
1.520000000000000000e+02,4.185624399999999810e+02
1.530000000000000000e+02,4.191781599999999912e+02
1.540000000000000000e+02,4.197896099999999819e+02
1.550000000000000000e+02,4.197781699999999887e+02
1.560000000000000000e+02,4.201396199999999794e+02
1.570000000000000000e+02,4.204752500000000168e+02
1.580000000000000000e+02,4.208703600000000051e+02
1.590000000000000000e+02,4.213265700000000038e+02
1.600000000000000000e+02,4.218275499999999738e+02
1.610000000000000000e+02,4.223591599999999744e+02
1.620000000000000000e+02,4.229151600000000144e+02
1.630000000000000000e+02,4.234901399999999967e+02
1.640000000000000000e+02,4.240756200000000149e+02
1.650000000000000000e+02,4.246728200000000015e+02
1.660000000000000000e+02,4.252742000000000075e+02
1.670000000000000000e+02,4.258814399999999978e+02
1.680000000000000000e+02,4.264906300000000101e+02
1.690000000000000000e+02,4.271052599999999870e+02
1.700000000000000000e+02,4.277195100000000139e+02
1.710000000000000000e+02,4.283354199999999992e+02
1.720000000000000000e+02,4.289520299999999793e+02
1.730000000000000000e+02,4.295672599999999761e+02
1.740000000000000000e+02,4.301818499999999972e+02
1.750000000000000000e+02,4.307953200000000038e+02
1.760000000000000000e+02,4.314068899999999758e+02
1.770000000000000000e+02,4.320140700000000038e+02
1.780000000000000000e+02,4.326190199999999777e+02
1.790000000000000000e+02,4.332211300000000165e+02
1.800000000000000000e+02,4.338191800000000171e+02
1.810000000000000000e+02,4.344135699999999929e+02
1.820000000000000000e+02,4.350040599999999813e+02
1.830000000000000000e+02,4.355880999999999972e+02
1.840000000000000000e+02,4.361702300000000037e+02
1.850000000000000000e+02,4.367461500000000001e+02
1.860000000000000000e+02,4.373185100000000034e+02
1.870000000000000000e+02,4.378867200000000253e+02
1.880000000000000000e+02,4.384513499999999908e+02
1.890000000000000000e+02,4.390134300000000280e+02
1.900000000000000000e+02,4.395692399999999793e+02
1.910000000000000000e+02,4.401241800000000239e+02
1.920000000000000000e+02,4.406736099999999965e+02
1.930000000000000000e+02,4.412225300000000061e+02
1.940000000000000000e+02,4.417676700000000096e+02
1.950000000000000000e+02,4.423102999999999838e+02
1.960000000000000000e+02,4.427444199999999910e+02
1.970000000000000000e+02,4.431541100000000029e+02
1.980000000000000000e+02,4.435941199999999753e+02
1.990000000000000000e+02,4.440162700000000200e+02
2.000000000000000000e+02,4.444423800000000142e+02
2.010000000000000000e+02,4.448798499999999763e+02
2.020000000000000000e+02,4.453285799999999881e+02
2.030000000000000000e+02,4.457888800000000060e+02
2.040000000000000000e+02,4.462608000000000175e+02
2.050000000000000000e+02,4.467423999999999751e+02
2.060000000000000000e+02,4.472306199999999876e+02
2.070000000000000000e+02,4.477257399999999734e+02
2.080000000000000000e+02,4.482237200000000144e+02
2.090000000000000000e+02,4.487282400000000280e+02
2.100000000000000000e+02,4.492360499999999774e+02
2.110000000000000000e+02,4.497447199999999725e+02
2.120000000000000000e+02,4.502549999999999955e+02
2.130000000000000000e+02,4.507654999999999745e+02
2.140000000000000000e+02,4.512770100000000184e+02
2.150000000000000000e+02,4.517878099999999790e+02
2.160000000000000000e+02,4.522964799999999741e+02
2.170000000000000000e+02,4.528045700000000124e+02
2.180000000000000000e+02,4.533097799999999893e+02
2.190000000000000000e+02,4.538128699999999753e+02
2.200000000000000000e+02,4.543148499999999785e+02
2.210000000000000000e+02,4.548128100000000131e+02
2.220000000000000000e+02,4.553091699999999946e+02
2.230000000000000000e+02,4.558004199999999742e+02
2.240000000000000000e+02,4.562912000000000035e+02
2.250000000000000000e+02,4.567791100000000029e+02
2.260000000000000000e+02,4.572626599999999826e+02
2.270000000000000000e+02,4.577436500000000024e+02
2.280000000000000000e+02,4.582234799999999950e+02
2.290000000000000000e+02,4.586988799999999742e+02
2.300000000000000000e+02,4.591522199999999998e+02
2.310000000000000000e+02,4.595766600000000039e+02
2.320000000000000000e+02,4.599913900000000240e+02
2.330000000000000000e+02,4.604025899999999751e+02
2.340000000000000000e+02,4.608087800000000129e+02
2.350000000000000000e+02,4.612117299999999886e+02
2.360000000000000000e+02,4.616170999999999935e+02
2.370000000000000000e+02,4.620248399999999833e+02
2.380000000000000000e+02,4.624354599999999778e+02
2.390000000000000000e+02,4.628498500000000035e+02
2.400000000000000000e+02,4.632672999999999774e+02
2.410000000000000000e+02,4.636871899999999869e+02
2.420000000000000000e+02,4.641079100000000039e+02
2.430000000000000000e+02,4.645317999999999756e+02
2.440000000000000000e+02,4.649573700000000258e+02
2.450000000000000000e+02,4.653842799999999897e+02
2.460000000000000000e+02,4.658120400000000245e+02
2.470000000000000000e+02,4.662384000000000128e+02
2.480000000000000000e+02,4.666657999999999902e+02
2.490000000000000000e+02,4.670933200000000056e+02
2.500000000000000000e+02,4.675204800000000205e+02
2.510000000000000000e+02,4.679468400000000088e+02
2.520000000000000000e+02,4.683703300000000240e+02
2.530000000000000000e+02,4.687929399999999873e+02
2.540000000000000000e+02,4.692153299999999945e+02
2.550000000000000000e+02,4.696359600000000114e+02
2.560000000000000000e+02,4.700553600000000074e+02
2.570000000000000000e+02,4.704733600000000138e+02
2.580000000000000000e+02,4.708876999999999953e+02
2.590000000000000000e+02,4.713008399999999938e+02
2.600000000000000000e+02,4.717130099999999970e+02
2.610000000000000000e+02,4.721234699999999975e+02
2.620000000000000000e+02,4.725318300000000136e+02
2.630000000000000000e+02,4.729308500000000208e+02
2.640000000000000000e+02,4.733213200000000143e+02
2.650000000000000000e+02,4.737026700000000119e+02
2.660000000000000000e+02,4.740776999999999930e+02
2.670000000000000000e+02,4.744484600000000114e+02
2.680000000000000000e+02,4.748154299999999921e+02
2.690000000000000000e+02,4.751802400000000262e+02
2.700000000000000000e+02,4.755434599999999818e+02
2.710000000000000000e+02,4.759060099999999807e+02
2.720000000000000000e+02,4.762699000000000069e+02
2.730000000000000000e+02,4.766332100000000196e+02
2.740000000000000000e+02,4.769972500000000082e+02
2.750000000000000000e+02,4.773608100000000150e+02
2.760000000000000000e+02,4.777257700000000114e+02
2.770000000000000000e+02,4.780914300000000026e+02
2.780000000000000000e+02,4.784575800000000072e+02
2.790000000000000000e+02,4.788238200000000120e+02
2.800000000000000000e+02,4.791904599999999732e+02
2.810000000000000000e+02,4.795573999999999728e+02
2.820000000000000000e+02,4.799241900000000101e+02
2.830000000000000000e+02,4.802908899999999903e+02
2.840000000000000000e+02,4.806583600000000160e+02
2.850000000000000000e+02,4.810244099999999889e+02
2.860000000000000000e+02,4.813896199999999794e+02
2.870000000000000000e+02,4.817540300000000002e+02
2.880000000000000000e+02,4.821179200000000264e+02
2.890000000000000000e+02,4.824811100000000010e+02
2.900000000000000000e+02,4.828436300000000188e+02
2.910000000000000000e+02,4.832051999999999907e+02
2.920000000000000000e+02,4.835659200000000055e+02
2.930000000000000000e+02,4.839259900000000130e+02
2.940000000000000000e+02,4.842849699999999871e+02
2.950000000000000000e+02,4.846428500000000099e+02
2.960000000000000000e+02,4.850004299999999944e+02
2.970000000000000000e+02,4.853558699999999817e+02
2.980000000000000000e+02,4.857106299999999806e+02
2.990000000000000000e+02,4.860656399999999735e+02
3.000000000000000000e+02,4.864172699999999736e+02
3.010000000000000000e+02,4.867635799999999904e+02
3.020000000000000000e+02,4.871049800000000118e+02
3.030000000000000000e+02,4.874424399999999764e+02
3.040000000000000000e+02,4.877778000000000134e+02
3.050000000000000000e+02,4.881116299999999910e+02
3.060000000000000000e+02,4.884428700000000276e+02
3.070000000000000000e+02,4.887724900000000048e+02
3.080000000000000000e+02,4.891014400000000251e+02
3.090000000000000000e+02,4.894297199999999748e+02
3.100000000000000000e+02,4.897585100000000011e+02
3.110000000000000000e+02,4.900865800000000263e+02
3.120000000000000000e+02,4.904146099999999819e+02
3.130000000000000000e+02,4.907427099999999882e+02
3.140000000000000000e+02,4.910713799999999765e+02
3.150000000000000000e+02,4.914002699999999777e+02
3.160000000000000000e+02,4.917301600000000121e+02
3.170000000000000000e+02,4.920610699999999724e+02
3.180000000000000000e+02,4.923915400000000204e+02
3.190000000000000000e+02,4.927219200000000114e+02
3.200000000000000000e+02,4.930526100000000156e+02
3.210000000000000000e+02,4.933833000000000197e+02
3.220000000000000000e+02,4.937149699999999939e+02
3.230000000000000000e+02,4.940463300000000118e+02
3.240000000000000000e+02,4.943779599999999732e+02
3.250000000000000000e+02,4.947097499999999854e+02
3.260000000000000000e+02,4.950418999999999983e+02
3.270000000000000000e+02,4.953741499999999860e+02
3.280000000000000000e+02,4.957072800000000257e+02
3.290000000000000000e+02,4.960398900000000140e+02
3.300000000000000000e+02,4.963727099999999837e+02
3.310000000000000000e+02,4.967070299999999747e+02
3.320000000000000000e+02,4.970410499999999843e+02
3.330000000000000000e+02,4.973750299999999811e+02
3.340000000000000000e+02,4.977096300000000042e+02
3.350000000000000000e+02,4.980437299999999823e+02
3.360000000000000000e+02,4.983783000000000243e+02
3.370000000000000000e+02,4.987132599999999911e+02
3.380000000000000000e+02,4.990489799999999718e+02
3.390000000000000000e+02,4.993851599999999848e+02
3.400000000000000000e+02,4.997198799999999892e+02
3.410000000000000000e+02,5.000553300000000263e+02
3.420000000000000000e+02,5.003919099999999958e+02
3.430000000000000000e+02,5.007277199999999766e+02
3.440000000000000000e+02,5.010630499999999756e+02
3.450000000000000000e+02,5.013979499999999803e+02
3.460000000000000000e+02,5.017341900000000123e+02
3.470000000000000000e+02,5.020708599999999819e+02
3.480000000000000000e+02,5.024071700000000078e+02
3.490000000000000000e+02,5.027444499999999721e+02
3.500000000000000000e+02,5.030830100000000016e+02
3.510000000000000000e+02,5.034227000000000203e+02
3.520000000000000000e+02,5.037639500000000226e+02
3.530000000000000000e+02,5.041080000000000041e+02
3.540000000000000000e+02,5.044532800000000066e+02
3.550000000000000000e+02,5.048009000000000128e+02
3.560000000000000000e+02,5.051507899999999722e+02
3.570000000000000000e+02,5.055029599999999732e+02
3.580000000000000000e+02,5.058581500000000233e+02
3.590000000000000000e+02,5.062166700000000219e+02
3.600000000000000000e+02,5.065782199999999875e+02
3.610000000000000000e+02,5.069430199999999900e+02
3.620000000000000000e+02,5.073120999999999867e+02
3.630000000000000000e+02,5.076840799999999945e+02
3.640000000000000000e+02,5.080597200000000271e+02
3.650000000000000000e+02,5.084394500000000221e+02
3.660000000000000000e+02,5.088235500000000116e+02
3.670000000000000000e+02,5.092121599999999830e+02
3.680000000000000000e+02,5.096057700000000068e+02
3.690000000000000000e+02,5.100028399999999920e+02
3.700000000000000000e+02,5.104057000000000244e+02
3.710000000000000000e+02,5.108147900000000163e+02
3.720000000000000000e+02,5.112294299999999794e+02
3.730000000000000000e+02,5.116500899999999774e+02
3.740000000000000000e+02,5.120776399999999740e+02
3.750000000000000000e+02,5.125105600000000550e+02
3.760000000000000000e+02,5.129510500000000093e+02
3.770000000000000000e+02,5.133986800000000130e+02
3.780000000000000000e+02,5.138546800000000303e+02
3.790000000000000000e+02,5.143178699999999708e+02
3.800000000000000000e+02,5.147904099999999517e+02
3.810000000000000000e+02,5.152716100000000097e+02
3.820000000000000000e+02,5.157609300000000303e+02
3.830000000000000000e+02,5.162600099999999657e+02
3.840000000000000000e+02,5.167693500000000313e+02
3.850000000000000000e+02,5.172873499999999467e+02
3.860000000000000000e+02,5.178160400000000436e+02
3.870000000000000000e+02,5.183531500000000278e+02
3.880000000000000000e+02,5.189017300000000432e+02
3.890000000000000000e+02,5.194591100000000097e+02
3.900000000000000000e+02,5.200250200000000405e+02
3.910000000000000000e+02,5.206016200000000254e+02
3.920000000000000000e+02,5.211862200000000485e+02
3.930000000000000000e+02,5.217807599999999866e+02
3.940000000000000000e+02,5.223816500000000360e+02
3.950000000000000000e+02,5.229907799999999725e+02
3.960000000000000000e+02,5.236058299999999690e+02
3.970000000000000000e+02,5.242287599999999657e+02
3.980000000000000000e+02,5.248564499999999953e+02
3.990000000000000000e+02,5.254896899999999960e+02
