# Time [s], Convective Heat Transfer Coefficient [W/m2K]
1.000000000000000000e+00,0.000000000000000000e+00
2.000000000000000000e+00,0.000000000000000000e+00
3.000000000000000000e+00,0.000000000000000000e+00
4.000000000000000000e+00,0.000000000000000000e+00
5.000000000000000000e+00,0.000000000000000000e+00
6.000000000000000000e+00,0.000000000000000000e+00
7.000000000000000000e+00,2.412849599104084641e-02
8.000000000000000000e+00,3.748642353082986406e-02
9.000000000000000000e+00,5.636813249252742991e-02
1.000000000000000000e+01,7.911338352345732849e-02
1.100000000000000000e+01,1.066064020691303155e-01
1.200000000000000000e+01,1.387730521534575046e-01
1.300000000000000000e+01,1.755676384550157454e-01
1.400000000000000000e+01,2.165091236708039657e-01
1.500000000000000000e+01,2.612437900452269646e-01
1.600000000000000000e+01,3.093518941168367231e-01
1.700000000000000000e+01,3.603567492360380542e-01
1.800000000000000000e+01,4.138597323282346974e-01
1.900000000000000000e+01,4.694536816314462957e-01
2.000000000000000000e+01,5.267746399174859651e-01
2.100000000000000000e+01,5.855053446698490482e-01
2.200000000000000000e+01,6.453439984273601215e-01
2.300000000000000000e+01,7.060502474756518154e-01
2.400000000000000000e+01,7.673881060716605251e-01
2.500000000000000000e+01,8.291709457413891649e-01
2.600000000000000000e+01,8.912227650035451365e-01
2.700000000000000000e+01,9.533995917230236872e-01
2.800000000000000000e+01,1.015577243008974007e+00
2.900000000000000000e+01,1.077647917678545841e+00
3.000000000000000000e+01,1.139518801357117805e+00
3.100000000000000000e+01,1.201110852599218015e+00
3.200000000000000000e+01,1.262354143388557892e+00
3.300000000000000000e+01,1.323197440372631206e+00
3.400000000000000000e+01,1.383589633823424592e+00
3.500000000000000000e+01,1.443493998147759250e+00
3.600000000000000000e+01,1.502873949798939845e+00
3.700000000000000000e+01,1.561704709802741675e+00
3.800000000000000000e+01,1.619965234797306586e+00
3.900000000000000000e+01,1.677635967196977607e+00
4.000000000000000000e+01,1.734704728129994100e+00
4.100000000000000000e+01,1.791161235923584893e+00
4.200000000000000000e+01,1.846997200458868837e+00
4.300000000000000000e+01,1.902207959039541763e+00
4.400000000000000000e+01,1.956791699575259891e+00
4.500000000000000000e+01,2.010745692525727879e+00
4.600000000000000000e+01,2.064071608877052988e+00
4.700000000000000000e+01,2.116771440869450238e+00
4.800000000000000000e+01,2.168848774000160518e+00
4.900000000000000000e+01,2.220306860117188030e+00
5.000000000000000000e+01,2.271150824789118339e+00
5.100000000000000000e+01,2.321386055209808674e+00
5.200000000000000000e+01,2.371019896467488675e+00
5.300000000000000000e+01,2.420058744987462873e+00
5.400000000000000000e+01,2.468508888415994917e+00
5.500000000000000000e+01,2.516378828044814497e+00
5.600000000000000000e+01,2.563676109200250242e+00
5.700000000000000000e+01,2.610408945646202739e+00
5.800000000000000000e+01,2.656585027174664049e+00
5.900000000000000000e+01,2.702213133638413201e+00
6.000000000000000000e+01,2.747301026477551034e+00
6.100000000000000000e+01,2.791857646521585412e+00
6.200000000000000000e+01,2.835890835069839522e+00
6.300000000000000000e+01,2.879409136975676020e+00
6.400000000000000000e+01,2.922421647337613670e+00
6.500000000000000000e+01,2.964936953841899037e+00
6.600000000000000000e+01,3.006962386550711130e+00
6.700000000000000000e+01,3.048506037579877148e+00
6.800000000000000000e+01,3.089576133871968278e+00
6.900000000000000000e+01,3.130181464051309703e+00
7.000000000000000000e+01,3.170329879090575620e+00
7.100000000000000000e+01,3.210028605991262829e+00
7.200000000000000000e+01,3.249285516169185595e+00
7.300000000000000000e+01,3.288108051393955122e+00
7.400000000000000000e+01,3.326503885594698673e+00
7.500000000000000000e+01,3.364480671577171567e+00
7.600000000000000000e+01,3.402044507410908469e+00
7.700000000000000000e+01,3.439204143879985853e+00
7.800000000000000000e+01,3.475965748345666295e+00
7.900000000000000000e+01,3.512336477375846755e+00
8.000000000000000000e+01,3.548322410939745097e+00
8.100000000000000000e+01,3.583930560290992329e+00
8.200000000000000000e+01,3.619166978809766455e+00
8.300000000000000000e+01,3.654038771262104301e+00
8.400000000000000000e+01,3.688551146782975465e+00
8.500000000000000000e+01,3.722711130819318814e+00
8.600000000000000000e+01,3.756523743939338633e+00
8.700000000000000000e+01,3.789995919441818462e+00
8.800000000000000000e+01,3.823132326611593523e+00
8.900000000000000000e+01,3.855939335386225242e+00
9.000000000000000000e+01,3.888422081449990575e+00
9.100000000000000000e+01,3.920586008696331781e+00
9.200000000000000000e+01,3.952436539549089023e+00
9.300000000000000000e+01,3.983979071948041462e+00
9.400000000000000000e+01,4.015218831707431768e+00
9.500000000000000000e+01,4.046159880626677641e+00
9.600000000000000000e+01,4.076807312953126150e+00
9.700000000000000000e+01,4.107165718370750618e+00
9.800000000000000000e+01,4.137240241276884944e+00
9.900000000000000000e+01,4.167035189981835863e+00
1.000000000000000000e+02,4.196555089796119020e+00
1.010000000000000000e+02,4.225804272166993947e+00
1.020000000000000000e+02,4.254787467508012178e+00
1.030000000000000000e+02,4.283508372821338561e+00
1.040000000000000000e+02,4.311971480702601056e+00
1.050000000000000000e+02,4.340180099382024537e+00
1.060000000000000000e+02,4.368138389931695897e+00
1.070000000000000000e+02,4.395849978149596105e+00
1.080000000000000000e+02,4.423319302568956779e+00
1.090000000000000000e+02,4.450549908703367308e+00
1.100000000000000000e+02,4.477545085591167151e+00
1.110000000000000000e+02,4.504308802962659897e+00
1.120000000000000000e+02,4.530843731556383425e+00
1.130000000000000000e+02,4.557153628096356712e+00
1.140000000000000000e+02,4.583241990800253518e+00
1.150000000000000000e+02,4.609111742517744581e+00
1.160000000000000000e+02,4.634766678645569904e+00
1.170000000000000000e+02,4.660209370573459076e+00
1.180000000000000000e+02,4.685443150564905679e+00
1.190000000000000000e+02,4.710470593480601487e+00
1.200000000000000000e+02,4.735294808845878833e+00
1.210000000000000000e+02,4.759918637635720096e+00
1.220000000000000000e+02,4.784345125804457588e+00
1.230000000000000000e+02,4.808577007285167682e+00
1.240000000000000000e+02,4.832616468530951614e+00
1.250000000000000000e+02,4.856466217260444473e+00
1.260000000000000000e+02,4.880129211004993195e+00
1.270000000000000000e+02,4.903607817281799619e+00
1.280000000000000000e+02,4.926904757508173915e+00
1.290000000000000000e+02,4.950021704756387919e+00
1.300000000000000000e+02,4.972961556568204600e+00
1.310000000000000000e+02,4.995726596502546357e+00
1.320000000000000000e+02,5.018318986495369671e+00
1.330000000000000000e+02,5.040741048492715315e+00
1.340000000000000000e+02,5.062994709248689773e+00
1.350000000000000000e+02,5.085082196389093312e+00
1.360000000000000000e+02,5.107006025323665988e+00
1.370000000000000000e+02,5.128767651894737156e+00
1.380000000000000000e+02,5.150369546703966961e+00
1.390000000000000000e+02,5.171813314756551705e+00
1.400000000000000000e+02,5.193101033104530195e+00
1.410000000000000000e+02,5.214234413529573509e+00
1.420000000000000000e+02,5.235215756766708139e+00
1.430000000000000000e+02,5.256046107057848360e+00
1.440000000000000000e+02,5.276727697740190237e+00
1.450000000000000000e+02,5.297262444930110448e+00
1.460000000000000000e+02,5.317651545766733712e+00
1.470000000000000000e+02,5.337897395488046648e+00
1.480000000000000000e+02,5.358000728870011109e+00
1.490000000000000000e+02,5.377963636487632648e+00
1.500000000000000000e+02,5.397787385394024362e+00
1.510000000000000000e+02,5.417474204059447018e+00
1.520000000000000000e+02,5.437024396634040357e+00
1.530000000000000000e+02,5.456440107341487433e+00
1.540000000000000000e+02,5.475723069184054381e+00
1.550000000000000000e+02,5.494874424554716086e+00
1.560000000000000000e+02,5.513894976660288272e+00
1.570000000000000000e+02,5.532786960078754035e+00
1.580000000000000000e+02,5.551551067698824227e+00
1.590000000000000000e+02,5.570188615220970973e+00
1.600000000000000000e+02,5.588701407989261405e+00
1.610000000000000000e+02,5.607090123930198011e+00
1.620000000000000000e+02,5.625356125853818057e+00
1.630000000000000000e+02,5.643500410225423813e+00
1.640000000000000000e+02,5.661524531879616795e+00
1.650000000000000000e+02,5.679429388809539070e+00
1.660000000000000000e+02,5.697215711582891196e+00
1.670000000000000000e+02,5.714885107895821825e+00
1.680000000000000000e+02,5.732438575143823378e+00
1.690000000000000000e+02,5.749877085544665256e+00
1.700000000000000000e+02,5.767201340530012210e+00
1.710000000000000000e+02,5.784412513491230534e+00
1.720000000000000000e+02,5.801511818480117988e+00
1.730000000000000000e+02,5.818500059574392758e+00
1.740000000000000000e+02,5.835378158442537710e+00
1.750000000000000000e+02,5.852146638255035782e+00
1.760000000000000000e+02,5.868806892503877215e+00
1.770000000000000000e+02,5.885359910047231580e+00
1.780000000000000000e+02,5.901806017624143585e+00
1.790000000000000000e+02,5.918146168201499080e+00
1.800000000000000000e+02,5.934381358696024122e+00
1.810000000000000000e+02,5.950512562702558128e+00
1.820000000000000000e+02,5.966540205050105961e+00
1.830000000000000000e+02,5.982464994129529146e+00
1.840000000000000000e+02,5.998287849294984930e+00
1.850000000000000000e+02,6.014009604069165071e+00
1.860000000000000000e+02,6.029631169400158086e+00
1.870000000000000000e+02,6.045152666822605880e+00
1.880000000000000000e+02,6.060574946459921009e+00
1.890000000000000000e+02,6.075899029510244631e+00
1.900000000000000000e+02,6.091125252139064195e+00
1.910000000000000000e+02,6.106254883651892840e+00
1.920000000000000000e+02,6.121287541798815290e+00
1.930000000000000000e+02,6.136224652851294259e+00
1.940000000000000000e+02,6.151066468612471638e+00
1.950000000000000000e+02,6.165813788162835429e+00
1.960000000000000000e+02,6.180467270641628375e+00
1.970000000000000000e+02,6.195027377577506655e+00
1.980000000000000000e+02,6.209494377511497021e+00
1.990000000000000000e+02,6.223869347684642506e+00
2.000000000000000000e+02,6.238152771754723602e+00
2.010000000000000000e+02,6.252345032481938070e+00
2.020000000000000000e+02,6.266446741909451390e+00
2.030000000000000000e+02,6.280458350428651748e+00
2.040000000000000000e+02,6.294380445840083382e+00
2.050000000000000000e+02,6.308213397338755080e+00
2.060000000000000000e+02,6.321958238960019294e+00
2.070000000000000000e+02,6.335615080449093384e+00
2.080000000000000000e+02,6.349184491910853545e+00
2.090000000000000000e+02,6.362667031358824055e+00
2.100000000000000000e+02,6.376063043437212308e+00
2.110000000000000000e+02,6.389373007979338048e+00
2.120000000000000000e+02,6.402597451539495665e+00
2.130000000000000000e+02,6.415737259282541238e+00
2.140000000000000000e+02,6.428792393164805219e+00
2.150000000000000000e+02,6.441763123616250475e+00
2.160000000000000000e+02,6.454650641453742566e+00
2.170000000000000000e+02,6.467454716811905868e+00
2.180000000000000000e+02,6.480176236023828196e+00
2.190000000000000000e+02,6.492815513735100907e+00
2.200000000000000000e+02,6.505373133847820455e+00
2.210000000000000000e+02,6.517849393266026858e+00
2.220000000000000000e+02,6.530244581886605282e+00
2.230000000000000000e+02,6.542559256197980844e+00
2.240000000000000000e+02,6.554793689396912981e+00
2.250000000000000000e+02,6.566948691004021121e+00
2.260000000000000000e+02,6.579024244773155061e+00
2.270000000000000000e+02,6.591021410056915997e+00
2.280000000000000000e+02,6.602940154401341744e+00
2.290000000000000000e+02,6.614780710871076330e+00
2.300000000000000000e+02,6.626543839869672325e+00
2.310000000000000000e+02,6.638229491620151634e+00
2.320000000000000000e+02,6.649838408699302761e+00
2.330000000000000000e+02,6.661370793253934330e+00
2.340000000000000000e+02,6.672827367948316102e+00
2.350000000000000000e+02,6.684208319078038585e+00
2.360000000000000000e+02,6.695514089058532292e+00
2.370000000000000000e+02,6.706745111880461963e+00
2.380000000000000000e+02,6.717901553897121403e+00
2.390000000000000000e+02,6.728984093848188408e+00
2.400000000000000000e+02,6.739992883740692164e+00
2.410000000000000000e+02,6.750928328001127632e+00
2.420000000000000000e+02,6.761790823382376026e+00
2.430000000000000000e+02,6.772580759113509430e+00
2.440000000000000000e+02,6.783298262639323895e+00
2.450000000000000000e+02,6.793943964573966987e+00
2.460000000000000000e+02,6.804517979584573162e+00
2.470000000000000000e+02,6.815020670532481617e+00
2.480000000000000000e+02,6.825452393393020678e+00
2.490000000000000000e+02,6.835813747896088977e+00
2.500000000000000000e+02,6.846104824608927331e+00
2.510000000000000000e+02,6.856325959630265032e+00
2.520000000000000000e+02,6.866477482665331422e+00
2.530000000000000000e+02,6.876559964693409022e+00
2.540000000000000000e+02,6.886573473984202387e+00
2.550000000000000000e+02,6.896518321765737092e+00
2.560000000000000000e+02,6.906394813315129610e+00
2.570000000000000000e+02,6.916203248062209319e+00
2.580000000000000000e+02,6.925944163725147540e+00
2.590000000000000000e+02,6.935617846298644196e+00
2.600000000000000000e+02,6.945224090907028192e+00
2.610000000000000000e+02,6.954763660647875767e+00
2.620000000000000000e+02,6.964236583867144503e+00
2.630000000000000000e+02,6.973643367692912598e+00
2.640000000000000000e+02,6.982984031357087673e+00
2.650000000000000000e+02,6.992259070425902223e+00
2.660000000000000000e+02,7.001468734121722548e+00
2.670000000000000000e+02,7.010613266760601370e+00
2.680000000000000000e+02,7.019893640273497049e+00
2.690000000000000000e+02,7.028987720034559850e+00
2.700000000000000000e+02,7.037987195132094698e+00
2.710000000000000000e+02,7.046912560969456507e+00
2.720000000000000000e+02,7.055767172041920610e+00
2.730000000000000000e+02,7.064553408049813576e+00
2.740000000000000000e+02,7.073273154381942263e+00
2.750000000000000000e+02,7.081927108297356277e+00
2.760000000000000000e+02,7.090516190606849456e+00
2.770000000000000000e+02,7.099040846238145797e+00
2.780000000000000000e+02,7.107501745195367704e+00
2.790000000000000000e+02,7.115899317591293460e+00
2.800000000000000000e+02,7.124233987171436411e+00
2.810000000000000000e+02,7.132506171432098974e+00
2.820000000000000000e+02,7.140716052159826077e+00
2.830000000000000000e+02,7.148864265317059541e+00
2.840000000000000000e+02,7.156950296173844706e+00
2.850000000000000000e+02,7.164975000524642645e+00
2.860000000000000000e+02,7.172938541728405504e+00
2.870000000000000000e+02,7.180841079483220923e+00
2.880000000000000000e+02,7.188682090305836603e+00
2.890000000000000000e+02,7.196462183181882466e+00
2.900000000000000000e+02,7.204181282955706145e+00
2.910000000000000000e+02,7.211839763012840798e+00
2.920000000000000000e+02,7.219437766745424589e+00
2.930000000000000000e+02,7.226974537603197746e+00
2.940000000000000000e+02,7.234451336041078484e+00
2.950000000000000000e+02,7.241867624224471278e+00
2.960000000000000000e+02,7.249223757489414943e+00
2.970000000000000000e+02,7.256519641432655376e+00
2.980000000000000000e+02,7.263755623882374834e+00
2.990000000000000000e+02,7.270931604801533332e+00
3.000000000000000000e+02,7.278048366661975521e+00
3.010000000000000000e+02,7.285105360214512160e+00
3.020000000000000000e+02,7.292103359070925883e+00
3.030000000000000000e+02,7.299041810351719839e+00
3.040000000000000000e+02,7.305921698305370526e+00
3.050000000000000000e+02,7.312742684164010853e+00
3.060000000000000000e+02,7.319505084963838115e+00
3.070000000000000000e+02,7.326209213192607095e+00
3.080000000000000000e+02,7.332854941458079701e+00
3.090000000000000000e+02,7.339442575713422734e+00
3.100000000000000000e+02,7.345972851376387780e+00
3.110000000000000000e+02,7.352445197230177421e+00
3.120000000000000000e+02,7.358860340898408126e+00
3.130000000000000000e+02,7.365217923818016210e+00
3.140000000000000000e+02,7.371518664856885117e+00
3.150000000000000000e+02,7.377762630655803733e+00
3.160000000000000000e+02,7.383950099980219228e+00
3.170000000000000000e+02,7.390080704583788851e+00
3.180000000000000000e+02,7.396155360475592744e+00
3.190000000000000000e+02,7.402173907335667380e+00
3.200000000000000000e+02,7.408136823693097561e+00
3.210000000000000000e+02,7.414043944042323808e+00
3.220000000000000000e+02,7.419895952349325086e+00
3.230000000000000000e+02,7.425692464754026112e+00
3.240000000000000000e+02,7.431434157551004560e+00
3.250000000000000000e+02,7.437121065896485028e+00
3.260000000000000000e+02,7.442753645344362567e+00
3.270000000000000000e+02,7.448331713672635246e+00
3.280000000000000000e+02,7.453855509119065026e+00
3.290000000000000000e+02,7.459325687265851990e+00
3.300000000000000000e+02,7.464742267647278773e+00
3.310000000000000000e+02,7.470105477497532398e+00
3.320000000000000000e+02,7.475415540791954250e+00
3.330000000000000000e+02,7.480672678291745648e+00
3.340000000000000000e+02,7.485876898694612258e+00
3.350000000000000000e+02,7.491029043143225152e+00
3.360000000000000000e+02,7.496128696335986774e+00
3.370000000000000000e+02,7.501176691583060219e+00
3.380000000000000000e+02,7.506173232552427521e+00
3.390000000000000000e+02,7.511118312496543048e+00
3.400000000000000000e+02,7.516012130083709053e+00
3.410000000000000000e+02,7.520855295022651710e+00
3.420000000000000000e+02,7.525647792008886228e+00
3.430000000000000000e+02,7.530390016883824700e+00
3.440000000000000000e+02,7.535082774067021205e+00
3.450000000000000000e+02,7.539725420804423983e+00
3.460000000000000000e+02,7.544318549770935967e+00
3.470000000000000000e+02,7.548887604971667109e+00
3.480000000000000000e+02,7.553395533812031992e+00
3.490000000000000000e+02,7.557852183526766687e+00
3.500000000000000000e+02,7.562261007295362880e+00
3.510000000000000000e+02,7.566622169178321755e+00
3.520000000000000000e+02,7.570936647773166328e+00
3.530000000000000000e+02,7.575204395680919411e+00
3.540000000000000000e+02,7.579426586780553698e+00
3.550000000000000000e+02,7.583602759879106259e+00
3.560000000000000000e+02,7.587734487544284256e+00
3.570000000000000000e+02,7.591820896824953202e+00
3.580000000000000000e+02,7.595862740182528050e+00
3.590000000000000000e+02,7.599860157426864049e+00
3.600000000000000000e+02,7.603813893760686504e+00
3.610000000000000000e+02,7.607723274126920288e+00
3.620000000000000000e+02,7.611589241247884274e+00
3.630000000000000000e+02,7.615411521568786313e+00
3.640000000000000000e+02,7.619190849505072194e+00
3.650000000000000000e+02,7.622926746526660580e+00
3.660000000000000000e+02,7.626620143412446318e+00
3.670000000000000000e+02,7.630270960712570272e+00
3.680000000000000000e+02,7.633879318849013274e+00
3.690000000000000000e+02,7.637445938539183743e+00
3.700000000000000000e+02,7.640971135541415826e+00
3.710000000000000000e+02,7.644455022888472229e+00
3.720000000000000000e+02,7.647898312373802909e+00
3.730000000000000000e+02,7.651300912191656423e+00
3.740000000000000000e+02,7.654663728577684623e+00
3.750000000000000000e+02,7.657987064594757420e+00
3.760000000000000000e+02,7.661271619995156712e+00
3.770000000000000000e+02,7.664517692492059275e+00
3.780000000000000000e+02,7.667725776813471228e+00
3.790000000000000000e+02,7.670896166038782660e+00
3.800000000000000000e+02,7.674029946343343234e+00
3.810000000000000000e+02,7.677127404905037089e+00
3.820000000000000000e+02,7.680188827012392139e+00
3.830000000000000000e+02,7.683214892696831555e+00
3.840000000000000000e+02,7.686206278928482405e+00
3.850000000000000000e+02,7.689163659685847030e+00
3.860000000000000000e+02,7.692086914650962726e+00
3.870000000000000000e+02,7.694977109193704479e+00
3.880000000000000000e+02,7.697834909577371043e+00
3.890000000000000000e+02,7.700660387105779492e+00
3.900000000000000000e+02,7.703454006631670126e+00
3.910000000000000000e+02,7.706216625150821287e+00
3.920000000000000000e+02,7.708948899512057196e+00
3.930000000000000000e+02,7.711650893501721171e+00
3.940000000000000000e+02,7.714323456876197582e+00
3.950000000000000000e+02,7.716967239826373337e+00
3.960000000000000000e+02,7.719582104405298573e+00
3.970000000000000000e+02,7.722168893956538938e+00
3.980000000000000000e+02,7.724727860455593564e+00
