# Time [s], Mass [Kg]
1.000000000000000000e+00,1.000000000000000000e+00
2.000000000000000000e+00,1.000000000000000000e+00
3.000000000000000000e+00,1.000000000000000000e+00
4.000000000000000000e+00,1.000000000000000000e+00
5.000000000000000000e+00,1.000000000000000000e+00
6.000000000000000000e+00,1.000000000000000000e+00
7.000000000000000000e+00,1.000000000000000000e+00
8.000000000000000000e+00,1.000000000000000000e+00
9.000000000000000000e+00,1.000000000000000000e+00
1.000000000000000000e+01,1.000000000000000000e+00
1.100000000000000000e+01,1.000000000000000000e+00
1.200000000000000000e+01,1.000000000000000000e+00
1.300000000000000000e+01,1.000000000000000000e+00
1.400000000000000000e+01,1.000000000000000000e+00
1.500000000000000000e+01,1.000000000000000000e+00
1.600000000000000000e+01,1.000000000000000000e+00
1.700000000000000000e+01,1.000000000000000000e+00
1.800000000000000000e+01,9.999999400000000316e-01
1.900000000000000000e+01,9.999998799999999521e-01
2.000000000000000000e+01,9.999998199999999837e-01
2.100000000000000000e+01,9.999997000000000469e-01
2.200000000000000000e+01,9.999994599999999512e-01
2.300000000000000000e+01,9.999991099999999689e-01
2.400000000000000000e+01,9.999985099999999516e-01
2.500000000000000000e+01,9.999975599999999520e-01
2.600000000000000000e+01,9.999961899999999515e-01
2.700000000000000000e+01,9.999940999999999969e-01
2.800000000000000000e+01,9.999911799999999795e-01
2.900000000000000000e+01,9.999871900000000258e-01
3.000000000000000000e+01,9.999817600000000528e-01
3.100000000000000000e+01,9.999746099999999860e-01
3.200000000000000000e+01,9.999653099999999961e-01
3.300000000000000000e+01,9.999533900000000530e-01
3.400000000000000000e+01,9.999382500000000285e-01
3.500000000000000000e+01,9.999193499999999846e-01
3.600000000000000000e+01,9.998959299999999883e-01
3.700000000000000000e+01,9.998671999999999560e-01
3.800000000000000000e+01,9.998323900000000153e-01
3.900000000000000000e+01,9.997904300000000077e-01
4.000000000000000000e+01,9.997403599999999946e-01
4.100000000000000000e+01,9.996811199999999786e-01
4.200000000000000000e+01,9.996115599999999546e-01
4.300000000000000000e+01,9.995305500000000176e-01
4.400000000000000000e+01,9.994368599999999825e-01
4.500000000000000000e+01,9.993293899999999841e-01
4.600000000000000000e+01,9.992069599999999774e-01
4.700000000000000000e+01,9.990684399999999465e-01
4.800000000000000000e+01,9.989128699999999528e-01
4.900000000000000000e+01,9.987392400000000281e-01
5.000000000000000000e+01,9.985468400000000466e-01
5.100000000000000000e+01,9.983348300000000064e-01
5.200000000000000000e+01,9.981028400000000467e-01
5.300000000000000000e+01,9.978504799999999841e-01
5.400000000000000000e+01,9.975774299999999872e-01
5.500000000000000000e+01,9.972836999999999952e-01
5.600000000000000000e+01,9.969694599999999740e-01
5.700000000000000000e+01,9.966347800000000534e-01
5.800000000000000000e+01,9.962801900000000099e-01
5.900000000000000000e+01,9.959062300000000034e-01
6.000000000000000000e+01,9.955133800000000033e-01
6.100000000000000000e+01,9.951024699999999612e-01
6.200000000000000000e+01,9.946742699999999715e-01
6.300000000000000000e+01,9.942295599999999567e-01
6.400000000000000000e+01,9.937693499999999958e-01
6.500000000000000000e+01,9.932946000000000275e-01
6.600000000000000000e+01,9.928061400000000036e-01
6.700000000000000000e+01,9.923051600000000194e-01
6.800000000000000000e+01,9.917925600000000452e-01
6.900000000000000000e+01,9.912693500000000491e-01
7.000000000000000000e+01,9.907364800000000304e-01
7.100000000000000000e+01,9.901950400000000263e-01
7.200000000000000000e+01,9.896458399999999989e-01
7.300000000000000000e+01,9.890898500000000482e-01
7.400000000000000000e+01,9.885280100000000125e-01
7.500000000000000000e+01,9.879610500000000073e-01
7.600000000000000000e+01,9.873897999999999842e-01
7.700000000000000000e+01,9.868151499999999743e-01
7.800000000000000000e+01,9.862375300000000289e-01
7.900000000000000000e+01,9.856576900000000308e-01
8.000000000000000000e+01,9.850761900000000182e-01
8.100000000000000000e+01,9.844933700000000343e-01
8.200000000000000000e+01,9.839097900000000063e-01
8.300000000000000000e+01,9.833257199999999587e-01
8.400000000000000000e+01,9.827414199999999767e-01
8.500000000000000000e+01,9.821569900000000075e-01
8.600000000000000000e+01,9.815726299999999460e-01
8.700000000000000000e+01,9.809882599999999453e-01
8.800000000000000000e+01,9.804039599999999632e-01
8.900000000000000000e+01,9.798196599999999812e-01
9.000000000000000000e+01,9.792351700000000436e-01
9.100000000000000000e+01,9.786503899999999811e-01
9.200000000000000000e+01,9.780651299999999493e-01
9.300000000000000000e+01,9.774792799999999504e-01
9.400000000000000000e+01,9.768926500000000290e-01
9.500000000000000000e+01,9.763050699999999971e-01
9.600000000000000000e+01,9.757164699999999469e-01
9.700000000000000000e+01,9.751267399999999919e-01
9.800000000000000000e+01,9.745358800000000210e-01
9.900000000000000000e+01,9.739438299999999549e-01
1.000000000000000000e+02,9.733506400000000447e-01
1.010000000000000000e+02,9.727562699999999785e-01
1.020000000000000000e+02,9.721608800000000050e-01
1.030000000000000000e+02,9.715645899999999502e-01
1.040000000000000000e+02,9.709674099999999752e-01
1.050000000000000000e+02,9.703695199999999854e-01
1.060000000000000000e+02,9.697709100000000415e-01
1.070000000000000000e+02,9.691718200000000172e-01
1.080000000000000000e+02,9.685721999999999943e-01
1.090000000000000000e+02,9.679722200000000498e-01
1.100000000000000000e+02,9.673718199999999934e-01
1.110000000000000000e+02,9.667710099999999862e-01
1.120000000000000000e+02,9.661697099999999594e-01
1.130000000000000000e+02,9.655680100000000321e-01
1.140000000000000000e+02,9.649657600000000057e-01
1.150000000000000000e+02,9.643628600000000439e-01
1.160000000000000000e+02,9.637592400000000170e-01
1.170000000000000000e+02,9.631547299999999590e-01
1.180000000000000000e+02,9.625492700000000124e-01
1.190000000000000000e+02,9.619427299999999681e-01
1.200000000000000000e+02,9.613350000000000506e-01
1.210000000000000000e+02,9.607259000000000215e-01
1.220000000000000000e+02,9.601154299999999919e-01
1.230000000000000000e+02,9.595034700000000250e-01
1.240000000000000000e+02,9.588898999999999617e-01
1.250000000000000000e+02,9.582748399999999611e-01
1.260000000000000000e+02,9.576581100000000069e-01
1.270000000000000000e+02,9.570397099999999879e-01
1.280000000000000000e+02,9.564197100000000340e-01
1.290000000000000000e+02,9.557980900000000446e-01
1.300000000000000000e+02,9.551748599999999589e-01
1.310000000000000000e+02,9.545500300000000493e-01
1.320000000000000000e+02,9.539236399999999616e-01
1.330000000000000000e+02,9.532956500000000499e-01
1.340000000000000000e+02,9.526661600000000396e-01
1.350000000000000000e+02,9.520350100000000149e-01
1.360000000000000000e+02,9.514023700000000527e-01
1.370000000000000000e+02,9.507680499999999757e-01
1.380000000000000000e+02,9.501321299999999637e-01
1.390000000000000000e+02,9.494944800000000296e-01
1.400000000000000000e+02,9.488550999999999513e-01
1.410000000000000000e+02,9.482139299999999826e-01
1.420000000000000000e+02,9.475708600000000148e-01
1.430000000000000000e+02,9.469258200000000292e-01
1.440000000000000000e+02,9.462787499999999463e-01
1.450000000000000000e+02,9.456295399999999907e-01
1.460000000000000000e+02,9.449781200000000325e-01
1.470000000000000000e+02,9.443244899999999609e-01
1.480000000000000000e+02,9.436684800000000317e-01
1.490000000000000000e+02,9.430100900000000230e-01
1.500000000000000000e+02,9.423492599999999664e-01
1.510000000000000000e+02,9.416859699999999833e-01
1.520000000000000000e+02,9.410201900000000341e-01
1.530000000000000000e+02,9.403518400000000499e-01
1.540000000000000000e+02,9.396808700000000014e-01
1.550000000000000000e+02,9.390073399999999681e-01
1.560000000000000000e+02,9.383312499999999501e-01
1.570000000000000000e+02,9.376524699999999601e-01
1.580000000000000000e+02,9.369710100000000486e-01
1.590000000000000000e+02,9.362869299999999617e-01
1.600000000000000000e+02,9.356000399999999662e-01
1.610000000000000000e+02,9.349104799999999882e-01
1.620000000000000000e+02,9.342181099999999905e-01
1.630000000000000000e+02,9.335228800000000549e-01
1.640000000000000000e+02,9.328247899999999593e-01
1.650000000000000000e+02,9.321237799999999574e-01
1.660000000000000000e+02,9.314197300000000013e-01
1.670000000000000000e+02,9.307126399999999800e-01
1.680000000000000000e+02,9.300023899999999566e-01
1.690000000000000000e+02,9.292889199999999628e-01
1.700000000000000000e+02,9.285722400000000487e-01
1.710000000000000000e+02,9.278522700000000345e-01
1.720000000000000000e+02,9.271288500000000043e-01
1.730000000000000000e+02,9.264019700000000190e-01
1.740000000000000000e+02,9.256716400000000178e-01
1.750000000000000000e+02,9.249376700000000451e-01
1.760000000000000000e+02,9.242001199999999583e-01
1.770000000000000000e+02,9.234588700000000427e-01
1.780000000000000000e+02,9.227138799999999863e-01
1.790000000000000000e+02,9.219650600000000029e-01
1.800000000000000000e+02,9.212124900000000505e-01
1.810000000000000000e+02,9.204559900000000017e-01
1.820000000000000000e+02,9.196955599999999675e-01
1.830000000000000000e+02,9.189311300000000404e-01
1.840000000000000000e+02,9.181625799999999504e-01
1.850000000000000000e+02,9.173899899999999885e-01
1.860000000000000000e+02,9.166132200000000063e-01
1.870000000000000000e+02,9.158321600000000062e-01
1.880000000000000000e+02,9.150468099999999882e-01
1.890000000000000000e+02,9.142571099999999840e-01
1.900000000000000000e+02,9.134629399999999455e-01
1.910000000000000000e+02,9.126641800000000471e-01
1.920000000000000000e+02,9.118608799999999848e-01
1.930000000000000000e+02,9.110528799999999539e-01
1.940000000000000000e+02,9.102401700000000151e-01
1.950000000000000000e+02,9.094226399999999488e-01
1.960000000000000000e+02,9.086001500000000508e-01
1.970000000000000000e+02,9.077727799999999458e-01
1.980000000000000000e+02,9.069403999999999799e-01
1.990000000000000000e+02,9.061028399999999650e-01
2.000000000000000000e+02,9.052602100000000096e-01
2.010000000000000000e+02,9.044123299999999865e-01
2.020000000000000000e+02,9.035591499999999776e-01
2.030000000000000000e+02,9.027006600000000436e-01
2.040000000000000000e+02,9.018368100000000442e-01
2.050000000000000000e+02,9.009675400000000112e-01
2.060000000000000000e+02,9.000927800000000367e-01
2.070000000000000000e+02,8.992125399999999491e-01
2.080000000000000000e+02,8.983266899999999833e-01
2.090000000000000000e+02,8.974353099999999861e-01
2.100000000000000000e+02,8.965382600000000313e-01
2.110000000000000000e+02,8.956355499999999470e-01
2.120000000000000000e+02,8.947271700000000161e-01
2.130000000000000000e+02,8.938130699999999873e-01
2.140000000000000000e+02,8.928933100000000511e-01
2.150000000000000000e+02,8.919677700000000486e-01
2.160000000000000000e+02,8.910365099999999483e-01
2.170000000000000000e+02,8.900995900000000516e-01
2.180000000000000000e+02,8.891568800000000383e-01
2.190000000000000000e+02,8.882085100000000066e-01
2.200000000000000000e+02,8.872545400000000360e-01
2.210000000000000000e+02,8.862948400000000282e-01
2.220000000000000000e+02,8.853296600000000183e-01
2.230000000000000000e+02,8.843588799999999583e-01
2.240000000000000000e+02,8.833826799999999757e-01
2.250000000000000000e+02,8.824010500000000201e-01
2.260000000000000000e+02,8.814141199999999676e-01
2.270000000000000000e+02,8.804220000000000379e-01
2.280000000000000000e+02,8.794247499999999773e-01
2.290000000000000000e+02,8.784224400000000266e-01
2.300000000000000000e+02,8.774151799999999612e-01
2.310000000000000000e+02,8.764032099999999881e-01
2.320000000000000000e+02,8.753864799999999669e-01
2.330000000000000000e+02,8.743652699999999722e-01
2.340000000000000000e+02,8.733396500000000229e-01
2.350000000000000000e+02,8.723098000000000241e-01
2.360000000000000000e+02,8.712758400000000236e-01
2.370000000000000000e+02,8.702380100000000063e-01
2.380000000000000000e+02,8.691963600000000012e-01
2.390000000000000000e+02,8.681511299999999931e-01
2.400000000000000000e+02,8.671024400000000298e-01
2.410000000000000000e+02,8.660506000000000038e-01
2.420000000000000000e+02,8.649956600000000551e-01
2.430000000000000000e+02,8.639379099999999756e-01
2.440000000000000000e+02,8.628774900000000248e-01
2.450000000000000000e+02,8.618146199999999757e-01
2.460000000000000000e+02,8.607494199999999873e-01
2.470000000000000000e+02,8.596821999999999520e-01
2.480000000000000000e+02,8.586131299999999467e-01
2.490000000000000000e+02,8.575423399999999585e-01
2.500000000000000000e+02,8.564701099999999512e-01
2.510000000000000000e+02,8.553965700000000227e-01
2.520000000000000000e+02,8.543220200000000153e-01
2.530000000000000000e+02,8.532465700000000375e-01
2.540000000000000000e+02,8.521704100000000448e-01
2.550000000000000000e+02,8.510937699999999717e-01
2.560000000000000000e+02,8.500168299999999455e-01
2.570000000000000000e+02,8.489397800000000327e-01
2.580000000000000000e+02,8.478627199999999586e-01
2.590000000000000000e+02,8.467859599999999487e-01
2.600000000000000000e+02,8.457096200000000508e-01
2.610000000000000000e+02,8.446338799999999480e-01
2.620000000000000000e+02,8.435588499999999712e-01
2.630000000000000000e+02,8.424847100000000255e-01
2.640000000000000000e+02,8.414117100000000349e-01
2.650000000000000000e+02,8.403399000000000285e-01
2.660000000000000000e+02,8.392694600000000227e-01
2.670000000000000000e+02,8.382005099999999542e-01
2.680000000000000000e+02,8.371331699999999820e-01
2.690000000000000000e+02,8.360676799999999798e-01
2.700000000000000000e+02,8.350040899999999766e-01
2.710000000000000000e+02,8.339424699999999913e-01
2.720000000000000000e+02,8.328830600000000084e-01
2.730000000000000000e+02,8.318258499999999778e-01
2.740000000000000000e+02,8.307710900000000454e-01
2.750000000000000000e+02,8.297187099999999704e-01
2.760000000000000000e+02,8.286689499999999597e-01
2.770000000000000000e+02,8.276218199999999525e-01
2.780000000000000000e+02,8.265774299999999464e-01
2.790000000000000000e+02,8.255358900000000499e-01
2.800000000000000000e+02,8.244972799999999991e-01
2.810000000000000000e+02,8.234616500000000450e-01
2.820000000000000000e+02,8.224290600000000451e-01
2.830000000000000000e+02,8.213996300000000472e-01
2.840000000000000000e+02,8.203734200000000198e-01
2.850000000000000000e+02,8.193504200000000237e-01
2.860000000000000000e+02,8.183308200000000143e-01
2.870000000000000000e+02,8.173145099999999941e-01
2.880000000000000000e+02,8.163017000000000190e-01
2.890000000000000000e+02,8.152923600000000492e-01
2.900000000000000000e+02,8.142865900000000323e-01
2.910000000000000000e+02,8.132843400000000500e-01
2.920000000000000000e+02,8.122857799999999573e-01
2.930000000000000000e+02,8.112908599999999470e-01
2.940000000000000000e+02,8.102996300000000485e-01
2.950000000000000000e+02,8.093121599999999471e-01
2.960000000000000000e+02,8.083284499999999761e-01
2.970000000000000000e+02,8.073485500000000537e-01
2.980000000000000000e+02,8.063725200000000370e-01
2.990000000000000000e+02,8.054003699999999766e-01
3.000000000000000000e+02,8.044321500000000125e-01
3.010000000000000000e+02,8.034678699999999729e-01
3.020000000000000000e+02,8.025075200000000297e-01
3.030000000000000000e+02,8.015512200000000087e-01
3.040000000000000000e+02,8.005989199999999917e-01
3.050000000000000000e+02,7.996506700000000079e-01
3.060000000000000000e+02,7.987064699999999462e-01
3.070000000000000000e+02,7.977663900000000474e-01
3.080000000000000000e+02,7.968304800000000077e-01
3.090000000000000000e+02,7.958986799999999695e-01
3.100000000000000000e+02,7.949710500000000124e-01
3.110000000000000000e+02,7.940476499999999938e-01
3.120000000000000000e+02,7.931284899999999638e-01
3.130000000000000000e+02,7.922136199999999517e-01
3.140000000000000000e+02,7.913029799999999891e-01
3.150000000000000000e+02,7.903966900000000129e-01
3.160000000000000000e+02,7.894946900000000545e-01
3.170000000000000000e+02,7.885970500000000216e-01
3.180000000000000000e+02,7.877038699999999727e-01
3.190000000000000000e+02,7.868150499999999603e-01
3.200000000000000000e+02,7.859306900000000429e-01
3.210000000000000000e+02,7.850508099999999878e-01
3.220000000000000000e+02,7.841754600000000464e-01
3.230000000000000000e+02,7.833046299999999462e-01
3.240000000000000000e+02,7.824383999999999784e-01
3.250000000000000000e+02,7.815767500000000423e-01
3.260000000000000000e+02,7.807197599999999849e-01
3.270000000000000000e+02,7.798674100000000387e-01
3.280000000000000000e+02,7.790198299999999687e-01
3.290000000000000000e+02,7.781769600000000286e-01
3.300000000000000000e+02,7.773389200000000443e-01
3.310000000000000000e+02,7.765057100000000156e-01
3.320000000000000000e+02,7.756773200000000035e-01
3.330000000000000000e+02,7.748539399999999633e-01
3.340000000000000000e+02,7.740354499999999582e-01
3.350000000000000000e+02,7.732220300000000046e-01
3.360000000000000000e+02,7.724136700000000522e-01
3.370000000000000000e+02,7.716104400000000085e-01
3.380000000000000000e+02,7.708123300000000455e-01
3.390000000000000000e+02,7.700194700000000392e-01
3.400000000000000000e+02,7.692319199999999579e-01
3.410000000000000000e+02,7.684497200000000028e-01
3.420000000000000000e+02,7.676728999999999914e-01
3.430000000000000000e+02,7.669015500000000429e-01
3.440000000000000000e+02,7.661356900000000358e-01
3.450000000000000000e+02,7.653754900000000472e-01
3.460000000000000000e+02,7.646210199999999846e-01
3.470000000000000000e+02,7.638722700000000199e-01
3.480000000000000000e+02,7.631292899999999602e-01
3.490000000000000000e+02,7.623922800000000333e-01
3.500000000000000000e+02,7.616612900000000463e-01
3.510000000000000000e+02,7.609363799999999678e-01
3.520000000000000000e+02,7.602176099999999881e-01
3.530000000000000000e+02,7.595050899999999938e-01
3.540000000000000000e+02,7.587990199999999907e-01
3.550000000000000000e+02,7.580993799999999894e-01
3.560000000000000000e+02,7.574062900000000376e-01
3.570000000000000000e+02,7.567198899999999506e-01
3.580000000000000000e+02,7.560403300000000382e-01
3.590000000000000000e+02,7.553676999999999753e-01
3.600000000000000000e+02,7.547020300000000237e-01
3.610000000000000000e+02,7.540435800000000466e-01
3.620000000000000000e+02,7.533923999999999621e-01
3.630000000000000000e+02,7.527486700000000086e-01
3.640000000000000000e+02,7.521125699999999803e-01
3.650000000000000000e+02,7.514840999999999882e-01
3.660000000000000000e+02,7.508635500000000462e-01
3.670000000000000000e+02,7.502510500000000304e-01
3.680000000000000000e+02,7.496467799999999571e-01
3.690000000000000000e+02,7.490508000000000166e-01
3.700000000000000000e+02,7.484634500000000301e-01
3.710000000000000000e+02,7.478847499999999870e-01
3.720000000000000000e+02,7.473149900000000123e-01
3.730000000000000000e+02,7.467543500000000112e-01
3.740000000000000000e+02,7.462030600000000291e-01
3.750000000000000000e+02,7.456612599999999924e-01
3.760000000000000000e+02,7.451291700000000073e-01
3.770000000000000000e+02,7.446070900000000270e-01
3.780000000000000000e+02,7.440951500000000385e-01
3.790000000000000000e+02,7.435936300000000054e-01
3.800000000000000000e+02,7.431027300000000446e-01
3.810000000000000000e+02,7.426227899999999771e-01
3.820000000000000000e+02,7.421539400000000120e-01
3.830000000000000000e+02,7.416965399999999597e-01
3.840000000000000000e+02,7.412507499999999583e-01
3.850000000000000000e+02,7.408168299999999817e-01
3.860000000000000000e+02,7.403951899999999808e-01
3.870000000000000000e+02,7.399858799999999848e-01
3.880000000000000000e+02,7.395893300000000448e-01
3.890000000000000000e+02,7.392057199999999550e-01
3.900000000000000000e+02,7.388352799999999831e-01
3.910000000000000000e+02,7.384783000000000319e-01
3.920000000000000000e+02,7.381349799999999961e-01
3.930000000000000000e+02,7.378055500000000322e-01
3.940000000000000000e+02,7.374902399999999636e-01
3.950000000000000000e+02,7.371891699999999492e-01
3.960000000000000000e+02,7.369025900000000240e-01
3.970000000000000000e+02,7.366304999999999659e-01
3.980000000000000000e+02,7.363730699999999629e-01
3.990000000000000000e+02,7.361303000000000152e-01
