# Time [s], Mass [Kg]
1.000000000000000000e+00,1.000000000000000000e+00
2.000000000000000000e+00,1.000000000000000000e+00
3.000000000000000000e+00,1.000000000000000000e+00
4.000000000000000000e+00,1.000000000000000000e+00
5.000000000000000000e+00,1.000000000000000000e+00
6.000000000000000000e+00,1.000000000000000000e+00
7.000000000000000000e+00,1.000000000000000000e+00
8.000000000000000000e+00,1.000000000000000000e+00
9.000000000000000000e+00,1.000000000000000000e+00
1.000000000000000000e+01,1.000000000000000000e+00
1.100000000000000000e+01,1.000000000000000000e+00
1.200000000000000000e+01,1.000000000000000000e+00
1.300000000000000000e+01,1.000000000000000000e+00
1.400000000000000000e+01,9.999999400000000316e-01
1.500000000000000000e+01,9.999998799999999521e-01
1.600000000000000000e+01,9.999997600000000153e-01
1.700000000000000000e+01,9.999995799999999990e-01
1.800000000000000000e+01,9.999992800000000459e-01
1.900000000000000000e+01,9.999986899999999679e-01
2.000000000000000000e+01,9.999978499999999659e-01
2.100000000000000000e+01,9.999964799999999654e-01
2.200000000000000000e+01,9.999943999999999500e-01
2.300000000000000000e+01,9.999913000000000274e-01
2.400000000000000000e+01,9.999867099999999454e-01
2.500000000000000000e+01,9.999802700000000044e-01
2.600000000000000000e+01,9.999711500000000308e-01
2.700000000000000000e+01,9.999586900000000389e-01
2.800000000000000000e+01,9.999419499999999683e-01
2.900000000000000000e+01,9.999196500000000487e-01
3.000000000000000000e+01,9.998905700000000341e-01
3.100000000000000000e+01,9.998531299999999788e-01
3.200000000000000000e+01,9.998055700000000323e-01
3.300000000000000000e+01,9.997458500000000470e-01
3.400000000000000000e+01,9.996718799999999572e-01
3.500000000000000000e+01,9.995813399999999849e-01
3.600000000000000000e+01,9.994717199999999524e-01
3.700000000000000000e+01,9.993405899999999731e-01
3.800000000000000000e+01,9.991854999999999487e-01
3.900000000000000000e+01,9.990041299999999902e-01
4.000000000000000000e+01,9.987944399999999501e-01
4.100000000000000000e+01,9.985544100000000034e-01
4.200000000000000000e+01,9.982830900000000396e-01
4.300000000000000000e+01,9.979791599999999763e-01
4.400000000000000000e+01,9.976421599999999446e-01
4.500000000000000000e+01,9.972726100000000038e-01
4.600000000000000000e+01,9.968705799999999506e-01
4.700000000000000000e+01,9.964368300000000511e-01
4.800000000000000000e+01,9.959735299999999958e-01
4.900000000000000000e+01,9.954813700000000321e-01
5.000000000000000000e+01,9.949617400000000389e-01
5.100000000000000000e+01,9.944176700000000313e-01
5.200000000000000000e+01,9.938498099999999447e-01
5.300000000000000000e+01,9.932595499999999911e-01
5.400000000000000000e+01,9.926499699999999926e-01
5.500000000000000000e+01,9.920212600000000158e-01
5.600000000000000000e+01,9.913744300000000287e-01
5.700000000000000000e+01,9.907123399999999691e-01
5.800000000000000000e+01,9.900346399999999658e-01
5.900000000000000000e+01,9.893420299999999834e-01
6.000000000000000000e+01,9.886370300000000277e-01
6.100000000000000000e+01,9.879190899999999997e-01
6.200000000000000000e+01,9.871885799999999822e-01
6.300000000000000000e+01,9.864478100000000360e-01
6.400000000000000000e+01,9.856962599999999908e-01
6.500000000000000000e+01,9.849341499999999527e-01
6.600000000000000000e+01,9.841634000000000215e-01
6.700000000000000000e+01,9.832834599999999980e-01
6.800000000000000000e+01,9.824453600000000453e-01
6.900000000000000000e+01,9.816155399999999531e-01
7.000000000000000000e+01,9.807857899999999907e-01
7.100000000000000000e+01,9.799538899999999941e-01
7.200000000000000000e+01,9.791193599999999941e-01
7.300000000000000000e+01,9.782810800000000251e-01
7.400000000000000000e+01,9.774380900000000372e-01
7.500000000000000000e+01,9.765912900000000008e-01
7.600000000000000000e+01,9.757400800000000096e-01
7.700000000000000000e+01,9.748840300000000125e-01
7.800000000000000000e+01,9.740240599999999693e-01
7.900000000000000000e+01,9.731596700000000322e-01
8.000000000000000000e+01,9.722907499999999814e-01
8.100000000000000000e+01,9.714178399999999769e-01
8.200000000000000000e+01,9.705408800000000502e-01
8.300000000000000000e+01,9.696595700000000262e-01
8.400000000000000000e+01,9.687744999999999829e-01
8.500000000000000000e+01,9.678856099999999518e-01
8.600000000000000000e+01,9.669926800000000489e-01
8.700000000000000000e+01,9.660962199999999500e-01
8.800000000000000000e+01,9.651962499999999778e-01
8.900000000000000000e+01,9.642925900000000050e-01
9.000000000000000000e+01,9.633856400000000431e-01
9.100000000000000000e+01,9.624754199999999704e-01
9.200000000000000000e+01,9.615617400000000536e-01
9.300000000000000000e+01,9.606450199999999606e-01
9.400000000000000000e+01,9.597251999999999450e-01
9.500000000000000000e+01,9.588020999999999905e-01
9.600000000000000000e+01,9.578760899999999578e-01
9.700000000000000000e+01,9.569470900000000002e-01
9.800000000000000000e+01,9.560149900000000089e-01
9.900000000000000000e+01,9.550800299999999687e-01
1.000000000000000000e+02,9.541420900000000538e-01
1.010000000000000000e+02,9.532012300000000105e-01
1.020000000000000000e+02,9.522574499999999498e-01
1.030000000000000000e+02,9.513108700000000306e-01
1.040000000000000000e+02,9.503613100000000147e-01
1.050000000000000000e+02,9.494089500000000292e-01
1.060000000000000000e+02,9.484538399999999925e-01
1.070000000000000000e+02,9.474957600000000202e-01
1.080000000000000000e+02,9.465349299999999966e-01
1.090000000000000000e+02,9.455712400000000351e-01
1.100000000000000000e+02,9.446046900000000246e-01
1.110000000000000000e+02,9.436353400000000446e-01
1.120000000000000000e+02,9.426631300000000158e-01
1.130000000000000000e+02,9.416879999999999695e-01
1.140000000000000000e+02,9.407100099999999854e-01
1.150000000000000000e+02,9.397291500000000131e-01
1.160000000000000000e+02,9.387452600000000258e-01
1.170000000000000000e+02,9.377584500000000212e-01
1.180000000000000000e+02,9.367685900000000121e-01
1.190000000000000000e+02,9.357756999999999881e-01
1.200000000000000000e+02,9.347798200000000390e-01
1.210000000000000000e+02,9.337807900000000272e-01
1.220000000000000000e+02,9.327786000000000133e-01
1.230000000000000000e+02,9.317733000000000265e-01
1.240000000000000000e+02,9.307647900000000085e-01
1.250000000000000000e+02,9.297530699999999593e-01
1.260000000000000000e+02,9.287379999999999525e-01
1.270000000000000000e+02,9.277196500000000068e-01
1.280000000000000000e+02,9.266979100000000136e-01
1.290000000000000000e+02,9.256727099999999542e-01
1.300000000000000000e+02,9.246441100000000191e-01
1.310000000000000000e+02,9.236119999999999886e-01
1.320000000000000000e+02,9.225763099999999550e-01
1.330000000000000000e+02,9.215369799999999501e-01
1.340000000000000000e+02,9.204939600000000555e-01
1.350000000000000000e+02,9.194472399999999990e-01
1.360000000000000000e+02,9.183967100000000050e-01
1.370000000000000000e+02,9.173423099999999941e-01
1.380000000000000000e+02,9.162840199999999768e-01
1.390000000000000000e+02,9.152217499999999450e-01
1.400000000000000000e+02,9.141554200000000519e-01
1.410000000000000000e+02,9.130850400000000144e-01
1.420000000000000000e+02,9.120104900000000070e-01
1.430000000000000000e+02,9.109317099999999501e-01
1.440000000000000000e+02,9.098486300000000471e-01
1.450000000000000000e+02,9.087611399999999673e-01
1.460000000000000000e+02,9.076693099999999514e-01
1.470000000000000000e+02,9.065728800000000254e-01
1.480000000000000000e+02,9.054719199999999857e-01
1.490000000000000000e+02,9.043662500000000382e-01
1.500000000000000000e+02,9.032558800000000110e-01
1.510000000000000000e+02,9.021406800000000281e-01
1.520000000000000000e+02,9.010205900000000101e-01
1.530000000000000000e+02,8.998955499999999885e-01
1.540000000000000000e+02,8.987654400000000265e-01
1.550000000000000000e+02,8.976301599999999548e-01
1.560000000000000000e+02,8.964896799999999555e-01
1.570000000000000000e+02,8.953438999999999703e-01
1.580000000000000000e+02,8.941926399999999830e-01
1.590000000000000000e+02,8.930359500000000228e-01
1.600000000000000000e+02,8.918736600000000125e-01
1.610000000000000000e+02,8.907056500000000154e-01
1.620000000000000000e+02,8.895096200000000009e-01
1.630000000000000000e+02,8.883064999999999989e-01
1.640000000000000000e+02,8.870971199999999612e-01
1.650000000000000000e+02,8.858825599999999856e-01
1.660000000000000000e+02,8.846632800000000518e-01
1.670000000000000000e+02,8.834390600000000537e-01
1.680000000000000000e+02,8.822097800000000545e-01
1.690000000000000000e+02,8.809751900000000191e-01
1.700000000000000000e+02,8.797349899999999945e-01
1.710000000000000000e+02,8.784890199999999538e-01
1.720000000000000000e+02,8.772369599999999545e-01
1.730000000000000000e+02,8.759785300000000330e-01
1.740000000000000000e+02,8.747135999999999800e-01
1.750000000000000000e+02,8.734418200000000354e-01
1.760000000000000000e+02,8.721631199999999584e-01
1.770000000000000000e+02,8.708772700000000366e-01
1.780000000000000000e+02,8.695839600000000447e-01
1.790000000000000000e+02,8.682830900000000351e-01
1.800000000000000000e+02,8.669744099999999731e-01
1.810000000000000000e+02,8.656578099999999720e-01
1.820000000000000000e+02,8.643329699999999782e-01
1.830000000000000000e+02,8.629997400000000152e-01
1.840000000000000000e+02,8.616579800000000455e-01
1.850000000000000000e+02,8.603074600000000238e-01
1.860000000000000000e+02,8.589479300000000261e-01
1.870000000000000000e+02,8.575791699999999462e-01
1.880000000000000000e+02,8.562010500000000190e-01
1.890000000000000000e+02,8.548132800000000087e-01
1.900000000000000000e+02,8.534157300000000390e-01
1.910000000000000000e+02,8.520080399999999665e-01
1.920000000000000000e+02,8.505901099999999548e-01
1.930000000000000000e+02,8.491615700000000322e-01
1.940000000000000000e+02,8.477222899999999894e-01
1.950000000000000000e+02,8.462719300000000056e-01
1.960000000000000000e+02,8.448102499999999848e-01
1.970000000000000000e+02,8.433370000000000033e-01
1.980000000000000000e+02,8.418518900000000471e-01
1.990000000000000000e+02,8.403546200000000521e-01
2.000000000000000000e+02,8.388449500000000336e-01
2.010000000000000000e+02,8.373225300000000093e-01
2.020000000000000000e+02,8.357870600000000261e-01
2.030000000000000000e+02,8.342382299999999695e-01
2.040000000000000000e+02,8.326757599999999870e-01
2.050000000000000000e+02,8.310992699999999456e-01
2.060000000000000000e+02,8.295084799999999925e-01
2.070000000000000000e+02,8.279029700000000158e-01
2.080000000000000000e+02,8.262824399999999514e-01
2.090000000000000000e+02,8.246465899999999571e-01
2.100000000000000000e+02,8.229950700000000507e-01
2.110000000000000000e+02,8.213274499999999589e-01
2.120000000000000000e+02,8.196434400000000009e-01
2.130000000000000000e+02,8.179426800000000330e-01
2.140000000000000000e+02,8.162248100000000228e-01
2.150000000000000000e+02,8.144895399999999563e-01
2.160000000000000000e+02,8.127364500000000547e-01
2.170000000000000000e+02,8.109652400000000316e-01
2.180000000000000000e+02,8.091756700000000135e-01
2.190000000000000000e+02,8.073673799999999678e-01
2.200000000000000000e+02,8.055400799999999917e-01
2.210000000000000000e+02,8.036935299999999893e-01
2.220000000000000000e+02,8.018274300000000077e-01
2.230000000000000000e+02,7.999416599999999988e-01
2.240000000000000000e+02,7.980359799999999781e-01
2.250000000000000000e+02,7.961102700000000087e-01
2.260000000000000000e+02,7.941489800000000043e-01
2.270000000000000000e+02,7.921695100000000211e-01
2.280000000000000000e+02,7.901712100000000127e-01
2.290000000000000000e+02,7.881537100000000073e-01
2.300000000000000000e+02,7.861169000000000073e-01
2.310000000000000000e+02,7.840607200000000443e-01
2.320000000000000000e+02,7.819852200000000364e-01
2.330000000000000000e+02,7.798905400000000210e-01
2.340000000000000000e+02,7.777769599999999617e-01
2.350000000000000000e+02,7.756446599999999858e-01
2.360000000000000000e+02,7.734941800000000311e-01
2.370000000000000000e+02,7.713258899999999585e-01
2.380000000000000000e+02,7.691402999999999990e-01
2.390000000000000000e+02,7.669380300000000483e-01
2.400000000000000000e+02,7.647197799999999601e-01
2.410000000000000000e+02,7.624862799999999607e-01
2.420000000000000000e+02,7.602382899999999832e-01
2.430000000000000000e+02,7.579766500000000296e-01
2.440000000000000000e+02,7.557023800000000069e-01
2.450000000000000000e+02,7.534163000000000388e-01
2.460000000000000000e+02,7.511195499999999692e-01
2.470000000000000000e+02,7.488131500000000385e-01
2.480000000000000000e+02,7.464981099999999925e-01
2.490000000000000000e+02,7.441756099999999874e-01
2.500000000000000000e+02,7.418467399999999490e-01
2.510000000000000000e+02,7.395126199999999539e-01
2.520000000000000000e+02,7.371745699999999735e-01
2.530000000000000000e+02,7.348335999999999757e-01
2.540000000000000000e+02,7.324908999999999448e-01
2.550000000000000000e+02,7.301476599999999761e-01
2.560000000000000000e+02,7.278050799999999931e-01
2.570000000000000000e+02,7.254642799999999614e-01
2.580000000000000000e+02,7.231263500000000288e-01
2.590000000000000000e+02,7.207924700000000184e-01
2.600000000000000000e+02,7.184636599999999484e-01
2.610000000000000000e+02,7.161410499999999457e-01
2.620000000000000000e+02,7.138257000000000074e-01
2.630000000000000000e+02,7.115186500000000303e-01
2.640000000000000000e+02,7.092208300000000243e-01
2.650000000000000000e+02,7.069332600000000078e-01
2.660000000000000000e+02,7.046569000000000305e-01
2.670000000000000000e+02,7.023926999999999810e-01
2.680000000000000000e+02,7.001305199999999784e-01
2.690000000000000000e+02,6.978835500000000192e-01
2.700000000000000000e+02,6.956522499999999720e-01
2.710000000000000000e+02,6.934373400000000132e-01
2.720000000000000000e+02,6.912395399999999857e-01
2.730000000000000000e+02,6.890595600000000154e-01
2.740000000000000000e+02,6.868980500000000378e-01
2.750000000000000000e+02,6.847558599999999940e-01
2.760000000000000000e+02,6.826335799999999621e-01
2.770000000000000000e+02,6.805319800000000363e-01
2.780000000000000000e+02,6.784517199999999804e-01
2.790000000000000000e+02,6.763933899999999833e-01
2.800000000000000000e+02,6.743577099999999991e-01
2.810000000000000000e+02,6.723452800000000451e-01
2.820000000000000000e+02,6.703566899999999773e-01
2.830000000000000000e+02,6.683925400000000350e-01
2.840000000000000000e+02,6.664533599999999947e-01
2.850000000000000000e+02,6.645397499999999846e-01
2.860000000000000000e+02,6.626521899999999743e-01
2.870000000000000000e+02,6.607912200000000125e-01
2.880000000000000000e+02,6.589572399999999996e-01
2.890000000000000000e+02,6.571507500000000057e-01
2.900000000000000000e+02,6.553721999999999603e-01
2.910000000000000000e+02,6.536218499999999487e-01
2.920000000000000000e+02,6.519001700000000010e-01
2.930000000000000000e+02,6.502074599999999593e-01
2.940000000000000000e+02,6.485439499999999802e-01
2.950000000000000000e+02,6.469099499999999558e-01
2.960000000000000000e+02,6.453057500000000113e-01
2.970000000000000000e+02,6.437314200000000541e-01
2.980000000000000000e+02,6.421871200000000002e-01
2.990000000000000000e+02,6.406730999999999954e-01
3.000000000000000000e+02,6.391892399999999919e-01
3.010000000000000000e+02,6.377357200000000059e-01
3.020000000000000000e+02,6.363125400000000376e-01
3.030000000000000000e+02,6.349196400000000073e-01
3.040000000000000000e+02,6.335568999999999784e-01
3.050000000000000000e+02,6.322242599999999824e-01
3.060000000000000000e+02,6.309215999999999713e-01
3.070000000000000000e+02,6.296486900000000109e-01
3.080000000000000000e+02,6.284053299999999842e-01
3.090000000000000000e+02,6.271913599999999755e-01
3.100000000000000000e+02,6.260064199999999524e-01
3.110000000000000000e+02,6.248502099999999615e-01
3.120000000000000000e+02,6.237224300000000499e-01
3.130000000000000000e+02,6.226227899999999815e-01
3.140000000000000000e+02,6.215507999999999589e-01
3.150000000000000000e+02,6.205061099999999996e-01
3.160000000000000000e+02,6.194883599999999602e-01
3.170000000000000000e+02,6.184970100000000137e-01
3.180000000000000000e+02,6.175316600000000378e-01
3.190000000000000000e+02,6.165918099999999624e-01
3.200000000000000000e+02,6.156770599999999982e-01
3.210000000000000000e+02,6.147868600000000461e-01
3.220000000000000000e+02,6.139206900000000466e-01
3.230000000000000000e+02,6.130780599999999803e-01
3.240000000000000000e+02,6.122585499999999570e-01
3.250000000000000000e+02,6.114615199999999806e-01
3.260000000000000000e+02,6.106864800000000315e-01
3.270000000000000000e+02,6.099329000000000001e-01
3.280000000000000000e+02,6.092003000000000279e-01
3.290000000000000000e+02,6.084882000000000346e-01
3.300000000000000000e+02,6.077960100000000532e-01
3.310000000000000000e+02,6.071231999999999740e-01
3.320000000000000000e+02,6.064692099999999808e-01
3.330000000000000000e+02,6.058335299999999535e-01
3.340000000000000000e+02,6.052157299999999518e-01
3.350000000000000000e+02,6.046153300000000064e-01
3.360000000000000000e+02,6.040318599999999760e-01
3.370000000000000000e+02,6.034647800000000339e-01
3.380000000000000000e+02,6.029137399999999758e-01
3.390000000000000000e+02,6.023782500000000040e-01
3.400000000000000000e+02,6.018578399999999773e-01
3.410000000000000000e+02,6.013520999999999450e-01
3.420000000000000000e+02,6.008605399999999985e-01
3.430000000000000000e+02,6.003827999999999943e-01
3.440000000000000000e+02,5.999184800000000317e-01
3.450000000000000000e+02,5.994671599999999989e-01
3.460000000000000000e+02,5.990284099999999556e-01
3.470000000000000000e+02,5.986019399999999990e-01
3.480000000000000000e+02,5.981873300000000171e-01
3.490000000000000000e+02,5.977841600000000088e-01
3.500000000000000000e+02,5.973922000000000399e-01
3.510000000000000000e+02,5.970110299999999981e-01
3.520000000000000000e+02,5.966403500000000415e-01
3.530000000000000000e+02,5.962798599999999949e-01
3.540000000000000000e+02,5.959291500000000186e-01
3.550000000000000000e+02,5.955880300000000460e-01
3.560000000000000000e+02,5.952561499999999839e-01
3.570000000000000000e+02,5.949332699999999585e-01
3.580000000000000000e+02,5.946190399999999876e-01
3.590000000000000000e+02,5.943131999999999859e-01
3.600000000000000000e+02,5.940155999999999770e-01
3.610000000000000000e+02,5.937258600000000497e-01
3.620000000000000000e+02,5.934438699999999844e-01
3.630000000000000000e+02,5.931692100000000023e-01
3.640000000000000000e+02,5.929018299999999631e-01
3.650000000000000000e+02,5.926414100000000351e-01
3.660000000000000000e+02,5.923878000000000199e-01
3.670000000000000000e+02,5.921407300000000040e-01
3.680000000000000000e+02,5.919000500000000109e-01
3.690000000000000000e+02,5.916655699999999740e-01
3.700000000000000000e+02,5.914370399999999695e-01
3.710000000000000000e+02,5.912143600000000498e-01
3.720000000000000000e+02,5.909972799999999582e-01
3.730000000000000000e+02,5.907856799999999797e-01
3.740000000000000000e+02,5.905793900000000374e-01
3.750000000000000000e+02,5.903782199999999536e-01
3.760000000000000000e+02,5.901820700000000031e-01
3.770000000000000000e+02,5.899907899999999872e-01
3.780000000000000000e+02,5.898041699999999610e-01
3.790000000000000000e+02,5.896220800000000484e-01
3.800000000000000000e+02,5.894444599999999479e-01
3.810000000000000000e+02,5.892711899999999448e-01
3.820000000000000000e+02,5.891020300000000542e-01
3.830000000000000000e+02,5.889369199999999749e-01
3.840000000000000000e+02,5.887757500000000421e-01
3.850000000000000000e+02,5.886183999999999861e-01
3.860000000000000000e+02,5.884648000000000101e-01
3.870000000000000000e+02,5.883147699999999869e-01
3.880000000000000000e+02,5.881682599999999983e-01
3.890000000000000000e+02,5.880250900000000280e-01
3.900000000000000000e+02,5.878853200000000445e-01
3.910000000000000000e+02,5.877487099999999520e-01
3.920000000000000000e+02,5.876151899999999539e-01
3.930000000000000000e+02,5.874847800000000397e-01
3.940000000000000000e+02,5.873572799999999816e-01
3.950000000000000000e+02,5.872326500000000227e-01
3.960000000000000000e+02,5.871108200000000332e-01
3.970000000000000000e+02,5.869916699999999654e-01
3.980000000000000000e+02,5.868752000000000413e-01
3.990000000000000000e+02,5.867613000000000412e-01
