# Time [s], Temperature [C]
1.000000000000000000e+00,2.499997099999999861e+01
2.000000000000000000e+00,6.782954399999999850e+01
3.000000000000000000e+00,9.169223800000000324e+01
4.000000000000000000e+00,1.110751400000000046e+02
5.000000000000000000e+00,1.271705800000000011e+02
6.000000000000000000e+00,1.412574799999999868e+02
7.000000000000000000e+00,1.538227699999999913e+02
8.000000000000000000e+00,1.652299800000000118e+02
9.000000000000000000e+00,1.757016800000000103e+02
1.000000000000000000e+01,1.854013400000000047e+02
1.100000000000000000e+01,1.944492600000000095e+02
1.200000000000000000e+01,2.029364899999999921e+02
1.300000000000000000e+01,2.109368699999999990e+02
1.400000000000000000e+01,2.185104499999999916e+02
1.500000000000000000e+01,2.257070300000000032e+02
1.600000000000000000e+01,2.325736699999999928e+02
1.700000000000000000e+01,2.391521600000000092e+02
1.800000000000000000e+01,2.454783600000000092e+02
1.900000000000000000e+01,2.515845799999999883e+02
2.000000000000000000e+01,2.574937699999999836e+02
2.100000000000000000e+01,2.632111800000000130e+02
2.200000000000000000e+01,2.687336999999999989e+02
2.300000000000000000e+01,2.740534700000000043e+02
2.400000000000000000e+01,2.791617699999999900e+02
2.500000000000000000e+01,2.840613999999999919e+02
2.600000000000000000e+01,2.887617500000000064e+02
2.700000000000000000e+01,2.932736800000000130e+02
2.800000000000000000e+01,2.976109599999999773e+02
2.900000000000000000e+01,3.017860699999999952e+02
3.000000000000000000e+01,3.058086900000000128e+02
3.100000000000000000e+01,3.096876800000000003e+02
3.200000000000000000e+01,3.134277299999999968e+02
3.300000000000000000e+01,3.170375399999999786e+02
3.400000000000000000e+01,3.205211499999999774e+02
3.500000000000000000e+01,3.238759800000000268e+02
3.600000000000000000e+01,3.271155999999999722e+02
3.700000000000000000e+01,3.302397199999999771e+02
3.800000000000000000e+01,3.332376399999999990e+02
3.900000000000000000e+01,3.361336400000000140e+02
4.000000000000000000e+01,3.389249899999999798e+02
4.100000000000000000e+01,3.415899999999999750e+02
4.200000000000000000e+01,3.441722700000000259e+02
4.300000000000000000e+01,3.466634799999999927e+02
4.400000000000000000e+01,3.490307300000000055e+02
4.500000000000000000e+01,3.513401799999999753e+02
4.600000000000000000e+01,3.535766600000000039e+02
4.700000000000000000e+01,3.556926599999999894e+02
4.800000000000000000e+01,3.577804300000000239e+02
4.900000000000000000e+01,3.598124700000000189e+02
5.000000000000000000e+01,3.617295500000000175e+02
5.100000000000000000e+01,3.636424600000000282e+02
5.200000000000000000e+01,3.655129400000000146e+02
5.300000000000000000e+01,3.672725500000000238e+02
5.400000000000000000e+01,3.690448299999999904e+02
5.500000000000000000e+01,3.707846400000000244e+02
5.600000000000000000e+01,3.724139099999999871e+02
5.700000000000000000e+01,3.740689699999999789e+02
5.800000000000000000e+01,3.756934499999999844e+02
5.900000000000000000e+01,3.772098399999999856e+02
6.000000000000000000e+01,3.787615999999999872e+02
6.100000000000000000e+01,3.802821000000000140e+02
6.200000000000000000e+01,3.817020600000000172e+02
6.300000000000000000e+01,3.831582900000000222e+02
6.400000000000000000e+01,3.845870100000000207e+02
6.500000000000000000e+01,3.859223000000000070e+02
6.600000000000000000e+01,3.879435700000000224e+02
6.700000000000000000e+01,3.864809599999999818e+02
6.800000000000000000e+01,3.879713399999999979e+02
6.900000000000000000e+01,3.889942899999999781e+02
7.000000000000000000e+01,3.903219300000000089e+02
7.100000000000000000e+01,3.914952400000000239e+02
7.200000000000000000e+01,3.927640999999999849e+02
7.300000000000000000e+01,3.940062899999999786e+02
7.400000000000000000e+01,3.951934499999999844e+02
7.500000000000000000e+01,3.964059100000000058e+02
7.600000000000000000e+01,3.976084599999999796e+02
7.700000000000000000e+01,3.987486000000000104e+02
7.800000000000000000e+01,3.999137600000000248e+02
7.900000000000000000e+01,4.010674999999999955e+02
8.000000000000000000e+01,4.021635999999999740e+02
8.100000000000000000e+01,4.032815200000000004e+02
8.200000000000000000e+01,4.043886699999999905e+02
8.300000000000000000e+01,4.054448199999999929e+02
8.400000000000000000e+01,4.065212099999999964e+02
8.500000000000000000e+01,4.075854199999999992e+02
8.600000000000000000e+01,4.086062600000000202e+02
8.700000000000000000e+01,4.096419399999999769e+02
8.800000000000000000e+01,4.106689099999999826e+02
8.900000000000000000e+01,4.116560999999999808e+02
9.000000000000000000e+01,4.126563100000000190e+02
9.100000000000000000e+01,4.136506299999999783e+02
9.200000000000000000e+01,4.146046099999999797e+02
9.300000000000000000e+01,4.155766300000000228e+02
9.400000000000000000e+01,4.165389400000000251e+02
9.500000000000000000e+01,4.174664000000000215e+02
9.600000000000000000e+01,4.184094200000000114e+02
9.700000000000000000e+01,4.193460099999999784e+02
9.800000000000000000e+01,4.202483500000000163e+02
9.900000000000000000e+01,4.211655600000000277e+02
1.000000000000000000e+02,4.220764800000000037e+02
1.010000000000000000e+02,4.229564500000000180e+02
1.020000000000000000e+02,4.238500399999999786e+02
1.030000000000000000e+02,4.247374599999999987e+02
1.040000000000000000e+02,4.255983899999999949e+02
1.050000000000000000e+02,4.264709500000000162e+02
1.060000000000000000e+02,4.273326099999999883e+02
1.070000000000000000e+02,4.281772500000000150e+02
1.080000000000000000e+02,4.290265200000000050e+02
1.090000000000000000e+02,4.298731700000000160e+02
1.100000000000000000e+02,4.306960100000000011e+02
1.110000000000000000e+02,4.315305500000000052e+02
1.120000000000000000e+02,4.323588599999999929e+02
1.130000000000000000e+02,4.331657999999999902e+02
1.140000000000000000e+02,4.339820599999999899e+02
1.150000000000000000e+02,4.347932099999999878e+02
1.160000000000000000e+02,4.355849600000000237e+02
1.170000000000000000e+02,4.363848899999999844e+02
1.180000000000000000e+02,4.371805400000000077e+02
1.190000000000000000e+02,4.379599900000000048e+02
1.200000000000000000e+02,4.387430100000000266e+02
1.210000000000000000e+02,4.395240499999999884e+02
1.220000000000000000e+02,4.402894900000000007e+02
1.230000000000000000e+02,4.410606399999999780e+02
1.240000000000000000e+02,4.418274799999999800e+02
1.250000000000000000e+02,4.425788000000000011e+02
1.260000000000000000e+02,4.433368199999999888e+02
1.270000000000000000e+02,4.440902699999999754e+02
1.280000000000000000e+02,4.448313299999999799e+02
1.290000000000000000e+02,4.455800500000000284e+02
1.300000000000000000e+02,4.463199799999999868e+02
1.310000000000000000e+02,4.470501699999999801e+02
1.320000000000000000e+02,4.477843300000000113e+02
1.330000000000000000e+02,4.485144000000000233e+02
1.340000000000000000e+02,4.492334000000000174e+02
1.350000000000000000e+02,4.499590499999999906e+02
1.360000000000000000e+02,4.506761799999999880e+02
1.370000000000000000e+02,4.513852800000000229e+02
1.380000000000000000e+02,4.520976900000000001e+02
1.390000000000000000e+02,4.528068799999999783e+02
1.400000000000000000e+02,4.535084800000000200e+02
1.410000000000000000e+02,4.542089799999999968e+02
1.420000000000000000e+02,4.549084799999999973e+02
1.430000000000000000e+02,4.555985999999999763e+02
1.440000000000000000e+02,4.562938800000000015e+02
1.450000000000000000e+02,4.569827000000000226e+02
1.460000000000000000e+02,4.576646700000000010e+02
1.470000000000000000e+02,4.583482999999999947e+02
1.480000000000000000e+02,4.590303999999999860e+02
1.490000000000000000e+02,4.597017200000000230e+02
1.500000000000000000e+02,4.603775899999999979e+02
1.510000000000000000e+02,4.610533800000000042e+02
1.520000000000000000e+02,4.617171900000000164e+02
1.530000000000000000e+02,4.623849799999999846e+02
1.540000000000000000e+02,4.630510300000000257e+02
1.550000000000000000e+02,4.637068499999999744e+02
1.560000000000000000e+02,4.643663000000000238e+02
1.570000000000000000e+02,4.650246000000000208e+02
1.580000000000000000e+02,4.656752000000000180e+02
1.590000000000000000e+02,4.663264199999999846e+02
1.600000000000000000e+02,4.669775700000000143e+02
1.610000000000000000e+02,4.683966699999999719e+02
1.620000000000000000e+02,4.672827800000000025e+02
1.630000000000000000e+02,4.681348600000000033e+02
1.640000000000000000e+02,4.684454999999999814e+02
1.650000000000000000e+02,4.691160899999999856e+02
1.660000000000000000e+02,4.696341899999999896e+02
1.670000000000000000e+02,4.702635500000000093e+02
1.680000000000000000e+02,4.708409700000000271e+02
1.690000000000000000e+02,4.714666399999999840e+02
1.700000000000000000e+02,4.720631399999999758e+02
1.710000000000000000e+02,4.726842700000000264e+02
1.720000000000000000e+02,4.732930900000000065e+02
1.730000000000000000e+02,4.739115300000000275e+02
1.740000000000000000e+02,4.745225500000000238e+02
1.750000000000000000e+02,4.751406600000000253e+02
1.760000000000000000e+02,4.757513999999999896e+02
1.770000000000000000e+02,4.763654799999999909e+02
1.780000000000000000e+02,4.769788199999999847e+02
1.790000000000000000e+02,4.775867900000000077e+02
1.800000000000000000e+02,4.782007100000000150e+02
1.810000000000000000e+02,4.788068499999999972e+02
1.820000000000000000e+02,4.794129599999999982e+02
1.830000000000000000e+02,4.800182800000000043e+02
1.840000000000000000e+02,4.806237199999999916e+02
1.850000000000000000e+02,4.812215899999999920e+02
1.860000000000000000e+02,4.818258099999999899e+02
1.870000000000000000e+02,4.824221800000000258e+02
1.880000000000000000e+02,4.830195600000000127e+02
1.890000000000000000e+02,4.836152000000000157e+02
1.900000000000000000e+02,4.842102100000000178e+02
1.910000000000000000e+02,4.847979700000000207e+02
1.920000000000000000e+02,4.853917500000000018e+02
1.930000000000000000e+02,4.859775700000000143e+02
1.940000000000000000e+02,4.865644500000000221e+02
1.950000000000000000e+02,4.871495100000000207e+02
1.960000000000000000e+02,4.877339499999999930e+02
1.970000000000000000e+02,4.883111000000000104e+02
1.980000000000000000e+02,4.888940400000000182e+02
1.990000000000000000e+02,4.894714700000000107e+02
2.000000000000000000e+02,4.900470900000000256e+02
2.010000000000000000e+02,4.906218299999999886e+02
2.020000000000000000e+02,4.911926300000000083e+02
2.030000000000000000e+02,4.917656900000000064e+02
2.040000000000000000e+02,4.923329499999999825e+02
2.050000000000000000e+02,4.929037200000000212e+02
2.060000000000000000e+02,4.934649999999999750e+02
2.070000000000000000e+02,4.940310099999999807e+02
2.080000000000000000e+02,4.945951200000000085e+02
2.090000000000000000e+02,4.951527699999999754e+02
2.100000000000000000e+02,4.957151799999999753e+02
2.110000000000000000e+02,4.962708999999999833e+02
2.120000000000000000e+02,4.968291300000000206e+02
2.130000000000000000e+02,4.973821699999999737e+02
2.140000000000000000e+02,4.979360399999999913e+02
2.150000000000000000e+02,4.984864200000000096e+02
2.160000000000000000e+02,4.990334199999999782e+02
2.170000000000000000e+02,4.995849900000000048e+02
2.180000000000000000e+02,5.001297000000000139e+02
2.190000000000000000e+02,5.006745000000000232e+02
2.200000000000000000e+02,5.012183200000000056e+02
2.210000000000000000e+02,5.017602499999999850e+02
2.220000000000000000e+02,5.022974899999999820e+02
2.230000000000000000e+02,5.028392299999999864e+02
2.240000000000000000e+02,5.033742100000000050e+02
2.250000000000000000e+02,5.038889800000000037e+02
2.260000000000000000e+02,5.042121900000000210e+02
2.270000000000000000e+02,5.047521699999999782e+02
2.280000000000000000e+02,5.052405699999999911e+02
2.290000000000000000e+02,5.057658099999999877e+02
2.300000000000000000e+02,5.062765200000000050e+02
2.310000000000000000e+02,5.067970900000000256e+02
2.320000000000000000e+02,5.073124700000000189e+02
2.330000000000000000e+02,5.078259899999999902e+02
2.340000000000000000e+02,5.083428599999999733e+02
2.350000000000000000e+02,5.088568999999999960e+02
2.360000000000000000e+02,5.093691999999999780e+02
2.370000000000000000e+02,5.098840000000000146e+02
2.380000000000000000e+02,5.103938899999999990e+02
2.390000000000000000e+02,5.109059799999999996e+02
2.400000000000000000e+02,5.114126600000000167e+02
2.410000000000000000e+02,5.119233699999999772e+02
2.420000000000000000e+02,5.124299300000000130e+02
2.430000000000000000e+02,5.129338400000000320e+02
2.440000000000000000e+02,5.134403099999999540e+02
2.450000000000000000e+02,5.139415299999999434e+02
2.460000000000000000e+02,5.144453700000000254e+02
2.470000000000000000e+02,5.149430499999999711e+02
2.480000000000000000e+02,5.154440299999999979e+02
2.490000000000000000e+02,5.159413500000000568e+02
2.500000000000000000e+02,5.164371300000000247e+02
2.510000000000000000e+02,5.169305399999999509e+02
2.520000000000000000e+02,5.174263300000000072e+02
2.530000000000000000e+02,5.179170500000000175e+02
2.540000000000000000e+02,5.184084500000000162e+02
2.550000000000000000e+02,5.188952000000000453e+02
2.560000000000000000e+02,5.193851300000000037e+02
2.570000000000000000e+02,5.198713999999999942e+02
2.580000000000000000e+02,5.203561999999999443e+02
2.590000000000000000e+02,5.208410599999999704e+02
2.600000000000000000e+02,5.213228800000000547e+02
2.610000000000000000e+02,5.218046900000000505e+02
2.620000000000000000e+02,5.222856399999999439e+02
2.630000000000000000e+02,5.227662400000000389e+02
2.640000000000000000e+02,5.232417599999999993e+02
2.650000000000000000e+02,5.237214999999999918e+02
2.660000000000000000e+02,5.241972700000000032e+02
2.670000000000000000e+02,5.246714500000000498e+02
2.680000000000000000e+02,5.250791000000000395e+02
2.690000000000000000e+02,5.255474199999999882e+02
2.700000000000000000e+02,5.259994500000000244e+02
2.710000000000000000e+02,5.264668599999999969e+02
2.720000000000000000e+02,5.269289599999999609e+02
2.730000000000000000e+02,5.273977099999999609e+02
2.740000000000000000e+02,5.278633399999999938e+02
2.750000000000000000e+02,5.283301400000000285e+02
2.760000000000000000e+02,5.287963300000000118e+02
2.770000000000000000e+02,5.292660499999999502e+02
2.780000000000000000e+02,5.297329099999999471e+02
2.790000000000000000e+02,5.302029400000000123e+02
2.800000000000000000e+02,5.306732799999999770e+02
2.810000000000000000e+02,5.311421500000000151e+02
2.820000000000000000e+02,5.316126699999999801e+02
2.830000000000000000e+02,5.320860000000000127e+02
2.840000000000000000e+02,5.325587199999999939e+02
2.850000000000000000e+02,5.330323499999999513e+02
2.860000000000000000e+02,5.335082999999999629e+02
2.870000000000000000e+02,5.339854699999999639e+02
2.880000000000000000e+02,5.344609400000000505e+02
2.890000000000000000e+02,5.349426300000000083e+02
2.900000000000000000e+02,5.354241299999999910e+02
2.910000000000000000e+02,5.359077099999999518e+02
2.920000000000000000e+02,5.363920900000000529e+02
2.930000000000000000e+02,5.368810999999999467e+02
2.940000000000000000e+02,5.373694500000000289e+02
2.950000000000000000e+02,5.378626100000000179e+02
2.960000000000000000e+02,5.383554699999999684e+02
2.970000000000000000e+02,5.388519300000000385e+02
2.980000000000000000e+02,5.393531500000000278e+02
2.990000000000000000e+02,5.398535200000000032e+02
3.000000000000000000e+02,5.403602300000000014e+02
3.010000000000000000e+02,5.408662100000000237e+02
3.020000000000000000e+02,5.413793299999999817e+02
3.030000000000000000e+02,5.418938600000000179e+02
3.040000000000000000e+02,5.424099700000000439e+02
3.050000000000000000e+02,5.429331700000000183e+02
3.060000000000000000e+02,5.434559900000000425e+02
3.070000000000000000e+02,5.439854699999999639e+02
3.080000000000000000e+02,5.445149499999999989e+02
3.090000000000000000e+02,5.450526700000000346e+02
3.100000000000000000e+02,5.455904500000000326e+02
3.110000000000000000e+02,5.461323899999999867e+02
3.120000000000000000e+02,5.466790200000000368e+02
3.130000000000000000e+02,5.472283300000000281e+02
3.140000000000000000e+02,5.477823499999999513e+02
3.150000000000000000e+02,5.483402700000000323e+02
3.160000000000000000e+02,5.489000200000000405e+02
3.170000000000000000e+02,5.494667399999999589e+02
3.180000000000000000e+02,5.500326499999999896e+02
3.190000000000000000e+02,5.506059000000000196e+02
3.200000000000000000e+02,5.511819500000000289e+02
3.210000000000000000e+02,5.517592200000000275e+02
3.220000000000000000e+02,5.523432599999999866e+02
3.230000000000000000e+02,5.529265699999999697e+02
3.240000000000000000e+02,5.535167800000000398e+02
3.250000000000000000e+02,5.541081500000000233e+02
3.260000000000000000e+02,5.547039200000000392e+02
3.270000000000000000e+02,5.552999300000000176e+02
3.280000000000000000e+02,5.559026499999999942e+02
3.290000000000000000e+02,5.565075100000000248e+02
3.300000000000000000e+02,5.570754399999999578e+02
3.310000000000000000e+02,5.576819500000000289e+02
3.320000000000000000e+02,5.582821699999999510e+02
3.330000000000000000e+02,5.588923999999999523e+02
3.340000000000000000e+02,5.595026900000000296e+02
3.350000000000000000e+02,5.601160300000000234e+02
3.360000000000000000e+02,5.607326000000000477e+02
3.370000000000000000e+02,5.613503399999999601e+02
3.380000000000000000e+02,5.619705199999999650e+02
3.390000000000000000e+02,5.625897200000000566e+02
3.400000000000000000e+02,5.632134999999999536e+02
3.410000000000000000e+02,5.638344700000000103e+02
3.420000000000000000e+02,5.644580099999999447e+02
3.430000000000000000e+02,5.650820300000000316e+02
3.440000000000000000e+02,5.657062399999999798e+02
3.450000000000000000e+02,5.663310500000000047e+02
3.460000000000000000e+02,5.669539200000000392e+02
3.470000000000000000e+02,5.675795900000000529e+02
3.480000000000000000e+02,5.682029999999999745e+02
3.490000000000000000e+02,5.688262899999999718e+02
3.500000000000000000e+02,5.694497099999999818e+02
3.510000000000000000e+02,5.700702499999999873e+02
3.520000000000000000e+02,5.706930499999999711e+02
3.530000000000000000e+02,5.713114600000000110e+02
3.540000000000000000e+02,5.719309700000000021e+02
3.550000000000000000e+02,5.725458999999999605e+02
3.560000000000000000e+02,5.731635700000000497e+02
3.570000000000000000e+02,5.737755700000000161e+02
3.580000000000000000e+02,5.743879399999999578e+02
3.590000000000000000e+02,5.749990800000000490e+02
3.600000000000000000e+02,5.756057100000000446e+02
3.610000000000000000e+02,5.762122200000000021e+02
3.620000000000000000e+02,5.768151199999999790e+02
3.630000000000000000e+02,5.774166300000000547e+02
3.640000000000000000e+02,5.780131800000000339e+02
3.650000000000000000e+02,5.786117600000000039e+02
3.660000000000000000e+02,5.792031899999999496e+02
3.670000000000000000e+02,5.797946200000000090e+02
3.680000000000000000e+02,5.803815899999999601e+02
3.690000000000000000e+02,5.809668599999999969e+02
3.700000000000000000e+02,5.815468100000000504e+02
3.710000000000000000e+02,5.821276199999999790e+02
3.720000000000000000e+02,5.827006199999999581e+02
3.730000000000000000e+02,5.832738000000000511e+02
3.740000000000000000e+02,5.838431399999999485e+02
3.750000000000000000e+02,5.844076499999999896e+02
3.760000000000000000e+02,5.849705800000000409e+02
3.770000000000000000e+02,5.855276499999999942e+02
3.780000000000000000e+02,5.860842300000000478e+02
3.790000000000000000e+02,5.866346399999999903e+02
3.800000000000000000e+02,5.871817600000000539e+02
3.810000000000000000e+02,5.877272299999999632e+02
3.820000000000000000e+02,5.882661699999999882e+02
3.830000000000000000e+02,5.888046900000000505e+02
3.840000000000000000e+02,5.893367299999999886e+02
3.850000000000000000e+02,5.898658400000000483e+02
3.860000000000000000e+02,5.903916600000000017e+02
3.870000000000000000e+02,5.909136999999999489e+02
3.880000000000000000e+02,5.914309100000000399e+02
3.890000000000000000e+02,5.919457400000000007e+02
3.900000000000000000e+02,5.924559299999999666e+02
3.910000000000000000e+02,5.929614900000000262e+02
3.920000000000000000e+02,5.934635600000000295e+02
3.930000000000000000e+02,5.939622200000000021e+02
3.940000000000000000e+02,5.944566700000000310e+02
3.950000000000000000e+02,5.949480600000000550e+02
3.960000000000000000e+02,5.954332900000000564e+02
3.970000000000000000e+02,5.959174199999999928e+02
3.980000000000000000e+02,5.963964200000000346e+02
3.990000000000000000e+02,5.968712199999999939e+02
