# Time [s], Convective Heat Transfer Coefficient [W/m2K]
1.000000000000000000e+00,0.000000000000000000e+00
2.000000000000000000e+00,0.000000000000000000e+00
3.000000000000000000e+00,0.000000000000000000e+00
4.000000000000000000e+00,0.000000000000000000e+00
5.000000000000000000e+00,0.000000000000000000e+00
6.000000000000000000e+00,1.915079995362458862e-02
7.000000000000000000e+00,3.380449737731881787e-02
8.000000000000000000e+00,5.366129469656785722e-02
9.000000000000000000e+00,7.985453566186268004e-02
1.000000000000000000e+01,1.131034866832691665e-01
1.100000000000000000e+01,1.539014479364445298e-01
1.200000000000000000e+01,2.021417527389425817e-01
1.300000000000000000e+01,2.577320696690486579e-01
1.400000000000000000e+01,3.202192663893984603e-01
1.500000000000000000e+01,3.890177986802701438e-01
1.600000000000000000e+01,4.634821881054528858e-01
1.700000000000000000e+01,5.429288889554356734e-01
1.800000000000000000e+01,6.267126641796445519e-01
1.900000000000000000e+01,7.141797419675202097e-01
2.000000000000000000e+01,8.047477399674545229e-01
2.100000000000000000e+01,8.978743420617734117e-01
2.200000000000000000e+01,9.930729533592498326e-01
2.300000000000000000e+01,1.089916067277282297e+00
2.400000000000000000e+01,1.188019298337062324e+00
2.500000000000000000e+01,1.287040548793104922e+00
2.600000000000000000e+01,1.386688485491662126e+00
2.700000000000000000e+01,1.486707060558319693e+00
2.800000000000000000e+01,1.586869687498736692e+00
2.900000000000000000e+01,1.686983258146693476e+00
3.000000000000000000e+01,1.786879455809583295e+00
3.100000000000000000e+01,1.886413256302398311e+00
3.200000000000000000e+01,1.985461964763626019e+00
3.300000000000000000e+01,2.083917624948015579e+00
3.400000000000000000e+01,2.181689554915718698e+00
3.500000000000000000e+01,2.278701743862484363e+00
3.600000000000000000e+01,2.374888288121537627e+00
3.700000000000000000e+01,2.470196151365320780e+00
3.800000000000000000e+01,2.564580756207164747e+00
3.900000000000000000e+01,2.658005091472100290e+00
4.000000000000000000e+01,2.750439658428732059e+00
4.100000000000000000e+01,2.841862210589054971e+00
4.200000000000000000e+01,2.932252768057496350e+00
4.300000000000000000e+01,3.021600859981510734e+00
4.400000000000000000e+01,3.109895025915939915e+00
4.500000000000000000e+01,3.197129765300791071e+00
4.600000000000000000e+01,3.283301642943789567e+00
4.700000000000000000e+01,3.368412269060315101e+00
4.800000000000000000e+01,3.452461658040125503e+00
4.900000000000000000e+01,3.535454915029183187e+00
5.000000000000000000e+01,3.617396405932677528e+00
5.100000000000000000e+01,3.698293371554064901e+00
5.200000000000000000e+01,3.778153560395389299e+00
5.300000000000000000e+01,3.856985079900546065e+00
5.400000000000000000e+01,3.934798101661652669e+00
5.500000000000000000e+01,4.011601528384596271e+00
5.600000000000000000e+01,4.087407752336246425e+00
5.700000000000000000e+01,4.162227284940467342e+00
5.800000000000000000e+01,4.236070433757912035e+00
5.900000000000000000e+01,4.308950418063580479e+00
6.000000000000000000e+01,4.380879843330444778e+00
6.100000000000000000e+01,4.451870385689999488e+00
6.200000000000000000e+01,4.521934888406445197e+00
6.300000000000000000e+01,4.591085756357641046e+00
6.400000000000000000e+01,4.659335306051646697e+00
6.500000000000000000e+01,4.726696375595372146e+00
6.600000000000000000e+01,4.796104022846711779e+00
6.700000000000000000e+01,4.862775725728808673e+00
6.800000000000000000e+01,4.928138253865704144e+00
6.900000000000000000e+01,4.992505293608852313e+00
7.000000000000000000e+01,5.055943078139270241e+00
7.100000000000000000e+01,5.118499673979498787e+00
7.200000000000000000e+01,5.180206227169447786e+00
7.300000000000000000e+01,5.241088642324115199e+00
7.400000000000000000e+01,5.301166971937736783e+00
7.500000000000000000e+01,5.360461608867174377e+00
7.600000000000000000e+01,5.418990428470758403e+00
7.700000000000000000e+01,5.476769845117945401e+00
7.800000000000000000e+01,5.533817230347283456e+00
7.900000000000000000e+01,5.590147347469004657e+00
8.000000000000000000e+01,5.645775047692059623e+00
8.100000000000000000e+01,5.700715170472284932e+00
8.200000000000000000e+01,5.754982174078127954e+00
8.300000000000000000e+01,5.808589045140286622e+00
8.400000000000000000e+01,5.861548200940326581e+00
8.500000000000000000e+01,5.913872965870517362e+00
8.600000000000000000e+01,5.965575441950415225e+00
8.700000000000000000e+01,6.016666860837420749e+00
8.800000000000000000e+01,6.067159777095148421e+00
8.900000000000000000e+01,6.117065355209376776e+00
9.000000000000000000e+01,6.166393750228741588e+00
9.100000000000000000e+01,6.215155937270773201e+00
9.200000000000000000e+01,6.263362120063449723e+00
9.300000000000000000e+01,6.311022283094445129e+00
9.400000000000000000e+01,6.358146897516983920e+00
9.500000000000000000e+01,6.404745311637308092e+00
9.600000000000000000e+01,6.450826867842059720e+00
9.700000000000000000e+01,6.496401426130095302e+00
9.800000000000000000e+01,6.541477765879959883e+00
9.900000000000000000e+01,6.586064627682444161e+00
1.000000000000000000e+02,6.630171139218067999e+00
1.010000000000000000e+02,6.673805736364929686e+00
1.020000000000000000e+02,6.716976465181689449e+00
1.030000000000000000e+02,6.759692541767249097e+00
1.040000000000000000e+02,6.801961494949678944e+00
1.050000000000000000e+02,6.843790767882034665e+00
1.060000000000000000e+02,6.885187968723827545e+00
1.070000000000000000e+02,6.926161103754638226e+00
1.080000000000000000e+02,6.966717347480710920e+00
1.090000000000000000e+02,7.006864043444756440e+00
1.100000000000000000e+02,7.046608458325802182e+00
1.110000000000000000e+02,7.085956620134045814e+00
1.120000000000000000e+02,7.124915460875453022e+00
1.130000000000000000e+02,7.163492311098281995e+00
1.140000000000000000e+02,7.201693524496129761e+00
1.150000000000000000e+02,7.239525422466277504e+00
1.160000000000000000e+02,7.276992748278829026e+00
1.170000000000000000e+02,7.314102904547886475e+00
1.180000000000000000e+02,7.350861920538664052e+00
1.190000000000000000e+02,7.387274949422188541e+00
1.200000000000000000e+02,7.423348647645518383e+00
1.210000000000000000e+02,7.459086684670816148e+00
1.220000000000000000e+02,7.494495719970869274e+00
1.230000000000000000e+02,7.529581133988623165e+00
1.240000000000000000e+02,7.564348110477999043e+00
1.250000000000000000e+02,7.598800632069153238e+00
1.260000000000000000e+02,7.632944347075341973e+00
1.270000000000000000e+02,7.666784504509593923e+00
1.280000000000000000e+02,7.700325379780300850e+00
1.290000000000000000e+02,7.733571295581543659e+00
1.300000000000000000e+02,7.766527202265741003e+00
1.310000000000000000e+02,7.799197304716609658e+00
1.320000000000000000e+02,7.831586429631689050e+00
1.330000000000000000e+02,7.863698296736756355e+00
1.340000000000000000e+02,7.895536690544155967e+00
1.350000000000000000e+02,7.927106016810647304e+00
1.360000000000000000e+02,7.958410354265718745e+00
1.370000000000000000e+02,7.989453467775398998e+00
1.380000000000000000e+02,8.020239184732316673e+00
1.390000000000000000e+02,8.050771212398084131e+00
1.400000000000000000e+02,8.081052425735487432e+00
1.410000000000000000e+02,8.111087567481023441e+00
1.420000000000000000e+02,8.140879117504193019e+00
1.430000000000000000e+02,8.170431057696424304e+00
1.440000000000000000e+02,8.199746032722842415e+00
1.450000000000000000e+02,8.228827645093788945e+00
1.460000000000000000e+02,8.257679048514123821e+00
1.470000000000000000e+02,8.286303475244185535e+00
1.480000000000000000e+02,8.314703725757571107e+00
1.490000000000000000e+02,8.342882688187712503e+00
1.500000000000000000e+02,8.370843168575003546e+00
1.510000000000000000e+02,8.398588059801594952e+00
1.520000000000000000e+02,8.426120174142798902e+00
1.530000000000000000e+02,8.453442246164375007e+00
1.540000000000000000e+02,8.480556609957867309e+00
1.550000000000000000e+02,8.507466344219380971e+00
1.560000000000000000e+02,8.534173320443398936e+00
1.570000000000000000e+02,8.560680317152579377e+00
1.580000000000000000e+02,8.586989722178506312e+00
1.590000000000000000e+02,8.613103702605529932e+00
1.600000000000000000e+02,8.639024839004402878e+00
1.610000000000000000e+02,8.664766092102317074e+00
1.620000000000000000e+02,8.690312367726907183e+00
1.630000000000000000e+02,8.715670185200739439e+00
1.640000000000000000e+02,8.740843762774616721e+00
1.650000000000000000e+02,8.765835846168791079e+00
1.660000000000000000e+02,8.790649417128582499e+00
1.670000000000000000e+02,8.815287235280514722e+00
1.680000000000000000e+02,8.839752743524798007e+00
1.690000000000000000e+02,8.864048410853518689e+00
1.700000000000000000e+02,8.888176796521451095e+00
1.710000000000000000e+02,8.912139663628073194e+00
1.720000000000000000e+02,8.935938880205789303e+00
1.730000000000000000e+02,8.959576270777976248e+00
1.740000000000000000e+02,8.983052457153204884e+00
1.750000000000000000e+02,9.006369198725133529e+00
1.760000000000000000e+02,9.029527783919968797e+00
1.770000000000000000e+02,9.052528613773137778e+00
1.780000000000000000e+02,9.075372929845595849e+00
1.790000000000000000e+02,9.098061520386693246e+00
1.800000000000000000e+02,9.120595294475522863e+00
1.810000000000000000e+02,9.142974858936636195e+00
1.820000000000000000e+02,9.165201083087557876e+00
1.830000000000000000e+02,9.187274953694194224e+00
1.840000000000000000e+02,9.209197020069749939e+00
1.850000000000000000e+02,9.230968228674445442e+00
1.860000000000000000e+02,9.252589093370771067e+00
1.870000000000000000e+02,9.274060249871086015e+00
1.880000000000000000e+02,9.295382452886077118e+00
1.890000000000000000e+02,9.316556033933595771e+00
1.900000000000000000e+02,9.337581582146095016e+00
1.910000000000000000e+02,9.358459002822144157e+00
1.920000000000000000e+02,9.379189395467641077e+00
1.930000000000000000e+02,9.399772642724293803e+00
1.940000000000000000e+02,9.420208624043656442e+00
1.950000000000000000e+02,9.440497740967737528e+00
1.960000000000000000e+02,9.460640121121569379e+00
1.970000000000000000e+02,9.480635233214345092e+00
1.980000000000000000e+02,9.500482160061515913e+00
1.990000000000000000e+02,9.520181414503040784e+00
2.000000000000000000e+02,9.539732465836721076e+00
2.010000000000000000e+02,9.559134401486350185e+00
2.020000000000000000e+02,9.578386317186406984e+00
2.030000000000000000e+02,9.597488206062187999e+00
2.040000000000000000e+02,9.616438282335291632e+00
2.050000000000000000e+02,9.635235789862948153e+00
2.060000000000000000e+02,9.653879851264761669e+00
2.070000000000000000e+02,9.672369219666419937e+00
2.080000000000000000e+02,9.690701911374304700e+00
2.090000000000000000e+02,9.708877081992588032e+00
2.100000000000000000e+02,9.726892777628679099e+00
2.110000000000000000e+02,9.744747187578326475e+00
2.120000000000000000e+02,9.762439378041205984e+00
2.130000000000000000e+02,9.779967072831569297e+00
2.140000000000000000e+02,9.797328140193981127e+00
2.150000000000000000e+02,9.814520954085855564e+00
2.160000000000000000e+02,9.831543658049801238e+00
2.170000000000000000e+02,9.848394047851922295e+00
2.180000000000000000e+02,9.865070418662362783e+00
2.190000000000000000e+02,9.881570117329591341e+00
2.200000000000000000e+02,9.897892425057030152e+00
2.210000000000000000e+02,9.914034237404004912e+00
2.220000000000000000e+02,9.929994969608358701e+00
2.230000000000000000e+02,9.945772136931532614e+00
2.240000000000000000e+02,9.961364687198756229e+00
2.250000000000000000e+02,9.976869531298666161e+00
2.260000000000000000e+02,9.992157738947181400e+00
2.270000000000000000e+02,1.000726336497003288e+01
2.280000000000000000e+02,1.002219346565611779e+01
2.290000000000000000e+02,1.003694442522879271e+01
2.300000000000000000e+02,1.005151138157807189e+01
2.310000000000000000e+02,1.006589136215369962e+01
2.320000000000000000e+02,1.008008267961073656e+01
2.330000000000000000e+02,1.009408514263786039e+01
2.340000000000000000e+02,1.010790095141037526e+01
2.350000000000000000e+02,1.012153237988033894e+01
2.360000000000000000e+02,1.013498280104653837e+01
2.370000000000000000e+02,1.014825678685878962e+01
2.380000000000000000e+02,1.016135918673650984e+01
2.390000000000000000e+02,1.017429557766658732e+01
2.400000000000000000e+02,1.018707225642142511e+01
2.410000000000000000e+02,1.019969600711441338e+01
2.420000000000000000e+02,1.021217488261260087e+01
2.430000000000000000e+02,1.022451673523827864e+01
2.440000000000000000e+02,1.023672933276771779e+01
2.450000000000000000e+02,1.024882281296696185e+01
2.460000000000000000e+02,1.026080554370282627e+01
2.470000000000000000e+02,1.027268869337208201e+01
2.480000000000000000e+02,1.028448254804041895e+01
2.490000000000000000e+02,1.029619696487042191e+01
2.500000000000000000e+02,1.030784358179968940e+01
2.510000000000000000e+02,1.031943360019462119e+01
2.520000000000000000e+02,1.033097680369185234e+01
2.530000000000000000e+02,1.034248518616026757e+01
2.540000000000000000e+02,1.035397041629892634e+01
2.550000000000000000e+02,1.036544253418132300e+01
2.560000000000000000e+02,1.037691344809967120e+01
2.570000000000000000e+02,1.038839431054465123e+01
2.580000000000000000e+02,1.039989401092772958e+01
2.590000000000000000e+02,1.041142362767512175e+01
2.600000000000000000e+02,1.042299392504027544e+01
2.610000000000000000e+02,1.043461309782472135e+01
2.620000000000000000e+02,1.044629130428448960e+01
2.630000000000000000e+02,1.045803711103332745e+01
2.640000000000000000e+02,1.046985825702550521e+01
2.650000000000000000e+02,1.048176400557929711e+01
2.660000000000000000e+02,1.049376087344172781e+01
2.670000000000000000e+02,1.050705109486863265e+01
2.680000000000000000e+02,1.051971967916469097e+01
2.690000000000000000e+02,1.053224501573965810e+01
2.700000000000000000e+02,1.054480758816729669e+01
2.710000000000000000e+02,1.055743986336927875e+01
2.720000000000000000e+02,1.057017347145785813e+01
2.730000000000000000e+02,1.058302217332611228e+01
2.740000000000000000e+02,1.059599635564349107e+01
2.750000000000000000e+02,1.060910296492296645e+01
2.760000000000000000e+02,1.062234658494057271e+01
2.770000000000000000e+02,1.063573070622510919e+01
2.780000000000000000e+02,1.064925701598137664e+01
2.790000000000000000e+02,1.066292902358885364e+01
2.800000000000000000e+02,1.067674566962575078e+01
2.810000000000000000e+02,1.069070824668308894e+01
2.820000000000000000e+02,1.070481934710421967e+01
2.830000000000000000e+02,1.071907612106302210e+01
2.840000000000000000e+02,1.073347837570889496e+01
2.850000000000000000e+02,1.074802256135698819e+01
2.860000000000000000e+02,1.076271050814649577e+01
2.870000000000000000e+02,1.077753746113021549e+01
2.880000000000000000e+02,1.079250161789292761e+01
2.890000000000000000e+02,1.080760078141117830e+01
2.900000000000000000e+02,1.082282876830904428e+01
2.910000000000000000e+02,1.083818433509870616e+01
2.920000000000000000e+02,1.085366296103608974e+01
2.930000000000000000e+02,1.086925838168249570e+01
2.940000000000000000e+02,1.088496577676396271e+01
2.950000000000000000e+02,1.090077879534857175e+01
2.960000000000000000e+02,1.091669478524853787e+01
2.970000000000000000e+02,1.093270592582343959e+01
2.980000000000000000e+02,1.094880614006720876e+01
2.990000000000000000e+02,1.096498902587376456e+01
3.000000000000000000e+02,1.098124601760739161e+01
3.010000000000000000e+02,1.099757164585479963e+01
3.020000000000000000e+02,1.101395857138690637e+01
3.030000000000000000e+02,1.103039905705708357e+01
3.040000000000000000e+02,1.104688641367596347e+01
3.050000000000000000e+02,1.106341364645871828e+01
3.060000000000000000e+02,1.107997031376789998e+01
3.070000000000000000e+02,1.109655180091918503e+01
3.080000000000000000e+02,1.111314994531660894e+01
3.090000000000000000e+02,1.112975715331196902e+01
3.100000000000000000e+02,1.114636441365909292e+01
3.110000000000000000e+02,1.116296704932410400e+01
3.120000000000000000e+02,1.117955725430519465e+01
3.130000000000000000e+02,1.119612582098051767e+01
3.140000000000000000e+02,1.121266765431434997e+01
3.150000000000000000e+02,1.122917744099250292e+01
3.160000000000000000e+02,1.124564798642430574e+01
3.170000000000000000e+02,1.126207319546311680e+01
3.180000000000000000e+02,1.127844446719510785e+01
3.190000000000000000e+02,1.129475935631742090e+01
3.200000000000000000e+02,1.131101132807949305e+01
3.210000000000000000e+02,1.132719310100757681e+01
3.220000000000000000e+02,1.134330375318116424e+01
3.230000000000000000e+02,1.135933466098651401e+01
3.240000000000000000e+02,1.137528381010332090e+01
3.250000000000000000e+02,1.139114704205079676e+01
3.260000000000000000e+02,1.140691934309007571e+01
3.270000000000000000e+02,1.142259817501590113e+01
3.280000000000000000e+02,1.143818120395924787e+01
3.290000000000000000e+02,1.145459566200833734e+01
3.300000000000000000e+02,1.147025048310919004e+01
3.310000000000000000e+02,1.148555584358223491e+01
3.320000000000000000e+02,1.150075600320072766e+01
3.330000000000000000e+02,1.151582208141677377e+01
3.340000000000000000e+02,1.153077629416276650e+01
3.350000000000000000e+02,1.154561094074162320e+01
3.360000000000000000e+02,1.156033153354637477e+01
3.370000000000000000e+02,1.157493164172291067e+01
3.380000000000000000e+02,1.158941299945629488e+01
3.390000000000000000e+02,1.160377314551798378e+01
3.400000000000000000e+02,1.161801267311594366e+01
3.410000000000000000e+02,1.163212991495220550e+01
3.420000000000000000e+02,1.164612494055953285e+01
3.430000000000000000e+02,1.165999850208019062e+01
3.440000000000000000e+02,1.167374944922239877e+01
3.450000000000000000e+02,1.168737680829667980e+01
3.460000000000000000e+02,1.170088106244225834e+01
3.470000000000000000e+02,1.171426294048745653e+01
3.480000000000000000e+02,1.172752179706606412e+01
3.490000000000000000e+02,1.174065817575970527e+01
3.500000000000000000e+02,1.175367167740656704e+01
3.510000000000000000e+02,1.176656274601740826e+01
3.520000000000000000e+02,1.177933341881998430e+01
3.530000000000000000e+02,1.179198251065980685e+01
3.540000000000000000e+02,1.180450934480254865e+01
3.550000000000000000e+02,1.181691659757434110e+01
3.560000000000000000e+02,1.182920516035767911e+01
3.570000000000000000e+02,1.184137315655501865e+01
3.580000000000000000e+02,1.185342321821917899e+01
3.590000000000000000e+02,1.186535562228877794e+01
3.600000000000000000e+02,1.187716989109270216e+01
3.610000000000000000e+02,1.188886952045199408e+01
3.620000000000000000e+02,1.190045177402637577e+01
3.630000000000000000e+02,1.191192061362475840e+01
3.640000000000000000e+02,1.192327403670609698e+01
3.650000000000000000e+02,1.193451522834431344e+01
3.660000000000000000e+02,1.194564225838326266e+01
3.670000000000000000e+02,1.195665877374995034e+01
3.680000000000000000e+02,1.196756405759768249e+01
3.690000000000000000e+02,1.197835910655238578e+01
3.700000000000000000e+02,1.198904531225261039e+01
3.710000000000000000e+02,1.199962356374106243e+01
3.720000000000000000e+02,1.201009368396004184e+01
3.730000000000000000e+02,1.202045695053566554e+01
3.740000000000000000e+02,1.203071511279993011e+01
3.750000000000000000e+02,1.204086901540021870e+01
3.760000000000000000e+02,1.205091868670185207e+01
3.770000000000000000e+02,1.206086527699046584e+01
3.780000000000000000e+02,1.207071008520196465e+01
3.790000000000000000e+02,1.208045279320278453e+01
3.800000000000000000e+02,1.209009468225284856e+01
3.810000000000000000e+02,1.209963726103378434e+01
3.820000000000000000e+02,1.210908154554670801e+01
3.830000000000000000e+02,1.211842893993654435e+01
3.840000000000000000e+02,1.212767924393550345e+01
3.850000000000000000e+02,1.213683408232348349e+01
3.860000000000000000e+02,1.214589268568902725e+01
3.870000000000000000e+02,1.215485761312375779e+01
3.880000000000000000e+02,1.216372863573365137e+01
3.890000000000000000e+02,1.217250765533880674e+01
3.900000000000000000e+02,1.218119561247146621e+01
3.910000000000000000e+02,1.218979178438232225e+01
3.920000000000000000e+02,1.219829859564152663e+01
3.930000000000000000e+02,1.220671531138115995e+01
3.940000000000000000e+02,1.221504488471276062e+01
3.950000000000000000e+02,1.222328703704503639e+01
3.960000000000000000e+02,1.223144211398854964e+01
3.970000000000000000e+02,1.223951100305122885e+01
3.980000000000000000e+02,1.224749598857638055e+01
