# Time [s], Mass [Kg]
1.000000000000000000e+00,1.389829478396905627e-01
2.000000000000000000e+00,1.389829478394625784e-01
3.000000000000000000e+00,1.389829478391724493e-01
4.000000000000000000e+00,1.389829478387763495e-01
5.000000000000000000e+00,1.389829478382172412e-01
6.000000000000000000e+00,1.389829478374222105e-01
7.000000000000000000e+00,1.389829478362984705e-01
8.000000000000000000e+00,1.389829478347301972e-01
9.000000000000000000e+00,1.389829478325743661e-01
1.000000000000000000e+01,1.389829478296566723e-01
1.100000000000000000e+01,1.389829478257667561e-01
1.200000000000000000e+01,1.389829478206532076e-01
1.300000000000000000e+01,1.389829478140178209e-01
1.400000000000000000e+01,1.389829478055096823e-01
1.500000000000000000e+01,1.389829477947184810e-01
1.600000000000000000e+01,1.389829477811674874e-01
1.700000000000000000e+01,1.389829477643057254e-01
1.800000000000000000e+01,1.389829477434997018e-01
1.900000000000000000e+01,1.389829477180246076e-01
2.000000000000000000e+01,1.389829476870544922e-01
2.100000000000000000e+01,1.389829476496521887e-01
2.200000000000000000e+01,1.389829476047582946e-01
2.300000000000000000e+01,1.389829475511792645e-01
2.400000000000000000e+01,1.389829474875750870e-01
2.500000000000000000e+01,1.389829474124460174e-01
2.600000000000000000e+01,1.389829473241181168e-01
2.700000000000000000e+01,1.389829472207284589e-01
2.800000000000000000e+01,1.389829471002093086e-01
2.900000000000000000e+01,1.389829469602707201e-01
3.000000000000000000e+01,1.389829467983831335e-01
3.100000000000000000e+01,1.389829466117585288e-01
3.200000000000000000e+01,1.389829463973300538e-01
3.300000000000000000e+01,1.389829461517312348e-01
3.400000000000000000e+01,1.389829458712741606e-01
3.500000000000000000e+01,1.389829455519250578e-01
3.600000000000000000e+01,1.389829451892805323e-01
3.700000000000000000e+01,1.389829447785422001e-01
3.800000000000000000e+01,1.389829443144878773e-01
3.900000000000000000e+01,1.389829437914441579e-01
4.000000000000000000e+01,1.389829432032570200e-01
4.100000000000000000e+01,1.389829425432582977e-01
4.200000000000000000e+01,1.389829418042340392e-01
4.300000000000000000e+01,1.389829409783905900e-01
4.400000000000000000e+01,1.389829400573157625e-01
4.500000000000000000e+01,1.389829390319423097e-01
4.600000000000000000e+01,1.389829378925092618e-01
4.700000000000000000e+01,1.389829366285166568e-01
4.800000000000000000e+01,1.389829352286839625e-01
4.900000000000000000e+01,1.389829336809053628e-01
5.000000000000000000e+01,1.389829319721969103e-01
5.100000000000000000e+01,1.389829300886497587e-01
5.200000000000000000e+01,1.389829280153797031e-01
5.300000000000000000e+01,1.389829257364649517e-01
5.400000000000000000e+01,1.389829232348930577e-01
5.500000000000000000e+01,1.389829204925036032e-01
5.600000000000000000e+01,1.389829174899157582e-01
5.700000000000000000e+01,1.389829142064681056e-01
5.800000000000000000e+01,1.389829106201534437e-01
5.900000000000000000e+01,1.389829067075342428e-01
6.000000000000000000e+01,1.389829024436750604e-01
6.100000000000000000e+01,1.389828978020687389e-01
6.200000000000000000e+01,1.389828927545377069e-01
6.300000000000000000e+01,1.389828872711577068e-01
6.400000000000000000e+01,1.389828813201744451e-01
6.500000000000000000e+01,1.389828748678853532e-01
6.600000000000000000e+01,1.389828678785577920e-01
6.700000000000000000e+01,1.389828603143372365e-01
6.800000000000000000e+01,1.389828521351043622e-01
6.900000000000000000e+01,1.389828432983860607e-01
7.000000000000000000e+01,1.389828337592534935e-01
7.100000000000000000e+01,1.389828234701517562e-01
7.200000000000000000e+01,1.389828123808037608e-01
7.300000000000000000e+01,1.389828004380982418e-01
7.400000000000000000e+01,1.389827875858842543e-01
7.500000000000000000e+01,1.389827737648707540e-01
7.600000000000000000e+01,1.389827589125057494e-01
7.700000000000000000e+01,1.389827429627267519e-01
7.800000000000000000e+01,1.389827258458587456e-01
7.900000000000000000e+01,1.389827074884832370e-01
8.000000000000000000e+01,1.389826878131277532e-01
8.100000000000000000e+01,1.389826667381762471e-01
8.200000000000000000e+01,1.389826441777372579e-01
8.300000000000000000e+01,1.389826200412507540e-01
8.400000000000000000e+01,1.389825942334142472e-01
8.500000000000000000e+01,1.389825666540527582e-01
8.600000000000000000e+01,1.389825371976257384e-01
8.700000000000000000e+01,1.389825057531812458e-01
8.800000000000000000e+01,1.389824722042347638e-01
8.900000000000000000e+01,1.389824364281422586e-01
9.000000000000000000e+01,1.389823982961032600e-01
9.100000000000000000e+01,1.389823576730627452e-01
9.200000000000000000e+01,1.389823144169072544e-01
9.300000000000000000e+01,1.389822683785407464e-01
9.400000000000000000e+01,1.389822194018237589e-01
9.500000000000000000e+01,1.389821673225187515e-01
9.600000000000000000e+01,1.389821119684982453e-01
9.700000000000000000e+01,1.389820531597587561e-01
9.800000000000000000e+01,1.389819907070242444e-01
9.900000000000000000e+01,1.389819244121292541e-01
1.000000000000000000e+02,1.389818540681332371e-01
1.010000000000000000e+02,1.389817794574862431e-01
1.020000000000000000e+02,1.389817003526567507e-01
1.030000000000000000e+02,1.389816165163927641e-01
1.040000000000000000e+02,1.389815276992982518e-01
1.050000000000000000e+02,1.389814336408117523e-01
1.060000000000000000e+02,1.389813340696817445e-01
1.070000000000000000e+02,1.389812287007517466e-01
1.080000000000000000e+02,1.389811172364267544e-01
1.090000000000000000e+02,1.389809993674417377e-01
1.100000000000000000e+02,1.389808747685567503e-01
1.110000000000000000e+02,1.389807431007367422e-01
1.120000000000000000e+02,1.389806040123617581e-01
1.130000000000000000e+02,1.389804571334717631e-01
1.140000000000000000e+02,1.389803020788667465e-01
1.150000000000000000e+02,1.389801384499017578e-01
1.160000000000000000e+02,1.389799658268517368e-01
1.170000000000000000e+02,1.389797837732467400e-01
1.180000000000000000e+02,1.389795918384617579e-01
1.190000000000000000e+02,1.389793895475667507e-01
1.200000000000000000e+02,1.389791764073517455e-01
1.210000000000000000e+02,1.389789519099867421e-01
1.220000000000000000e+02,1.389787155195767454e-01
1.230000000000000000e+02,1.389784666804067537e-01
1.240000000000000000e+02,1.389782048220167543e-01
1.250000000000000000e+02,1.389779293413767602e-01
1.260000000000000000e+02,1.389776396141467474e-01
1.270000000000000000e+02,1.389773350017167453e-01
1.280000000000000000e+02,1.389770148276167627e-01
1.290000000000000000e+02,1.389766783926717486e-01
1.300000000000000000e+02,1.389763249845667459e-01
1.310000000000000000e+02,1.389759538468367528e-01
1.320000000000000000e+02,1.389755641991167467e-01
1.330000000000000000e+02,1.389751552499817466e-01
1.340000000000000000e+02,1.389747261563217540e-01
1.350000000000000000e+02,1.389742760502217511e-01
1.360000000000000000e+02,1.389738040560567489e-01
1.370000000000000000e+02,1.389733092375167456e-01
1.380000000000000000e+02,1.389727906329817630e-01
1.390000000000000000e+02,1.389722472780817453e-01
1.400000000000000000e+02,1.389716781367567600e-01
1.410000000000000000e+02,1.389710821477217473e-01
1.420000000000000000e+02,1.389704582541767541e-01
1.430000000000000000e+02,1.389698053144017564e-01
1.440000000000000000e+02,1.389691221622367523e-01
1.450000000000000000e+02,1.389684076458067574e-01
1.460000000000000000e+02,1.389676605123167374e-01
1.470000000000000000e+02,1.389668794862517487e-01
1.480000000000000000e+02,1.389660633194867434e-01
1.490000000000000000e+02,1.389652106435117496e-01
1.500000000000000000e+02,1.389643200699867409e-01
1.510000000000000000e+02,1.389633902551967448e-01
1.520000000000000000e+02,1.389624197114367465e-01
1.530000000000000000e+02,1.389614069354667414e-01
1.540000000000000000e+02,1.389603504908667464e-01
1.550000000000000000e+02,1.389592487682167476e-01
1.560000000000000000e+02,1.389581001486167589e-01
1.570000000000000000e+02,1.389569031085167439e-01
1.580000000000000000e+02,1.389556559162667404e-01
1.590000000000000000e+02,1.389543568388167394e-01
1.600000000000000000e+02,1.389530042739167415e-01
1.610000000000000000e+02,1.389515963687167621e-01
1.620000000000000000e+02,1.389501312793667565e-01
1.630000000000000000e+02,1.389486073367167396e-01
1.640000000000000000e+02,1.389470225696167460e-01
1.650000000000000000e+02,1.389453750289667555e-01
1.660000000000000000e+02,1.389436629941667445e-01
1.670000000000000000e+02,1.389418843806667636e-01
1.680000000000000000e+02,1.389400371420167479e-01
1.690000000000000000e+02,1.389381195253167611e-01
1.700000000000000000e+02,1.389361293388667595e-01
1.710000000000000000e+02,1.389340644485667631e-01
1.720000000000000000e+02,1.389319230923667381e-01
1.730000000000000000e+02,1.389297029803167605e-01
1.740000000000000000e+02,1.389274019029667628e-01
1.750000000000000000e+02,1.389250181156667374e-01
1.760000000000000000e+02,1.389225492402167417e-01
1.770000000000000000e+02,1.389199930056667642e-01
1.780000000000000000e+02,1.389173477147667424e-01
1.790000000000000000e+02,1.389146109120167616e-01
1.800000000000000000e+02,1.389117802799667567e-01
1.810000000000000000e+02,1.389088542017667405e-01
1.820000000000000000e+02,1.389058301564167486e-01
1.830000000000000000e+02,1.389027057958667488e-01
1.840000000000000000e+02,1.388994796187667524e-01
1.850000000000000000e+02,1.388961490495167483e-01
1.860000000000000000e+02,1.388927117248167642e-01
1.870000000000000000e+02,1.388891662956167616e-01
1.880000000000000000e+02,1.388855101431667460e-01
1.890000000000000000e+02,1.388817409045667584e-01
1.900000000000000000e+02,1.388778574203667626e-01
1.910000000000000000e+02,1.388738570381667370e-01
1.920000000000000000e+02,1.388697374093167403e-01
1.930000000000000000e+02,1.388654976008667497e-01
1.940000000000000000e+02,1.388611349342167567e-01
1.950000000000000000e+02,1.388566470868667635e-01
1.960000000000000000e+02,1.388520333881167468e-01
1.970000000000000000e+02,1.388472911383667463e-01
1.980000000000000000e+02,1.388424180506667438e-01
1.990000000000000000e+02,1.388374137502667582e-01
2.000000000000000000e+02,1.388322755178167389e-01
2.010000000000000000e+02,1.388270011075167509e-01
2.020000000000000000e+02,1.388215904718667626e-01
2.030000000000000000e+02,1.388160408715667371e-01
2.040000000000000000e+02,1.388103501056167366e-01
2.050000000000000000e+02,1.388045184813167521e-01
2.060000000000000000e+02,1.387985432355167414e-01
2.070000000000000000e+02,1.387924222119667483e-01
2.080000000000000000e+02,1.387861560966167640e-01
2.090000000000000000e+02,1.387797420951667471e-01
2.100000000000000000e+02,1.387731780926667602e-01
2.110000000000000000e+02,1.387664651738667598e-01
2.120000000000000000e+02,1.387596005041167591e-01
2.130000000000000000e+02,1.387525820039167412e-01
2.140000000000000000e+02,1.387454111727667583e-01
2.150000000000000000e+02,1.387380851223667388e-01
2.160000000000000000e+02,1.387306017991167539e-01
2.170000000000000000e+02,1.387229631302667465e-01
2.180000000000000000e+02,1.387151661615667608e-01
2.190000000000000000e+02,1.387072088555667548e-01
2.200000000000000000e+02,1.386990935757667631e-01
2.210000000000000000e+02,1.386908172873667633e-01
2.220000000000000000e+02,1.386823779572167459e-01
2.230000000000000000e+02,1.386737783907167620e-01
2.240000000000000000e+02,1.386650154573167426e-01
2.250000000000000000e+02,1.386560871152167640e-01
2.260000000000000000e+02,1.386469966145667532e-01
2.270000000000000000e+02,1.386377407145167606e-01
2.280000000000000000e+02,1.386283173517667555e-01
2.290000000000000000e+02,1.386187302214667572e-01
2.300000000000000000e+02,1.386089759564167467e-01
2.310000000000000000e+02,1.385990524575167471e-01
2.320000000000000000e+02,1.385889638640167565e-01
2.330000000000000000e+02,1.385787066705167492e-01
2.340000000000000000e+02,1.385682787310167641e-01
2.350000000000000000e+02,1.385576846250167471e-01
2.360000000000000000e+02,1.385469206970167400e-01
2.370000000000000000e+02,1.385359847425167434e-01
2.380000000000000000e+02,1.385248817760167395e-01
2.390000000000000000e+02,1.385136079810167509e-01
2.400000000000000000e+02,1.385021610840167505e-01
2.410000000000000000e+02,1.384905465295167559e-01
2.420000000000000000e+02,1.384787603320167537e-01
2.430000000000000000e+02,1.384668001395167602e-01
2.440000000000000000e+02,1.384546718200167503e-01
2.450000000000000000e+02,1.384423712100167625e-01
2.460000000000000000e+02,1.384298958700167503e-01
2.470000000000000000e+02,1.384172520850167620e-01
2.480000000000000000e+02,1.384044355105167601e-01
2.490000000000000000e+02,1.383914436145167459e-01
2.500000000000000000e+02,1.383782830895167459e-01
2.510000000000000000e+02,1.383649494070167407e-01
2.520000000000000000e+02,1.383514399380167403e-01
2.530000000000000000e+02,1.383377617755167377e-01
2.540000000000000000e+02,1.383239102055167369e-01
2.550000000000000000e+02,1.383098824970167562e-01
2.560000000000000000e+02,1.382956861345167598e-01
2.570000000000000000e+02,1.382813162200167423e-01
2.580000000000000000e+02,1.382667699190167632e-01
2.590000000000000000e+02,1.382520550985167629e-01
2.600000000000000000e+02,1.382371666765167539e-01
2.610000000000000000e+02,1.382221017125167539e-01
2.620000000000000000e+02,1.382068684475167564e-01
2.630000000000000000e+02,1.381914616200167478e-01
2.640000000000000000e+02,1.381758781850167539e-01
2.650000000000000000e+02,1.381601267485167428e-01
2.660000000000000000e+02,1.381442018755167367e-01
2.670000000000000000e+02,1.381281004175167471e-01
2.680000000000000000e+02,1.381118313350167548e-01
2.690000000000000000e+02,1.380953890250167515e-01
2.700000000000000000e+02,1.380787702370167569e-01
2.710000000000000000e+02,1.380619842770167416e-01
2.720000000000000000e+02,1.380450253830167451e-01
2.730000000000000000e+02,1.380278902060167456e-01
2.740000000000000000e+02,1.380105883860167637e-01
2.750000000000000000e+02,1.379931140065167594e-01
2.760000000000000000e+02,1.379754636220167641e-01
2.770000000000000000e+02,1.379576471985167474e-01
2.780000000000000000e+02,1.379396586770167410e-01
2.790000000000000000e+02,1.379214945215167520e-01
2.800000000000000000e+02,1.379031650125167596e-01
2.810000000000000000e+02,1.378846639580167399e-01
2.820000000000000000e+02,1.378659877355167540e-01
2.830000000000000000e+02,1.378471469295167451e-01
2.840000000000000000e+02,1.378281352255167624e-01
2.850000000000000000e+02,1.378089489200167439e-01
2.860000000000000000e+02,1.377895988905167568e-01
2.870000000000000000e+02,1.377700787110167635e-01
2.880000000000000000e+02,1.377503846025167622e-01
2.890000000000000000e+02,1.377305277235167380e-01
2.900000000000000000e+02,1.377105015460167448e-01
2.910000000000000000e+02,1.376903022205167582e-01
2.920000000000000000e+02,1.376699411760167469e-01
2.930000000000000000e+02,1.376494117945167572e-01
2.940000000000000000e+02,1.376287101635167431e-01
2.950000000000000000e+02,1.376078479710167446e-01
2.960000000000000000e+02,1.375868185215167461e-01
2.970000000000000000e+02,1.375656178455167411e-01
2.980000000000000000e+02,1.375442578770167401e-01
2.990000000000000000e+02,1.375227318545167443e-01
3.000000000000000000e+02,1.375010357570167485e-01
3.010000000000000000e+02,1.374791817515167436e-01
3.020000000000000000e+02,1.374571630235167374e-01
3.030000000000000000e+02,1.374349755075167379e-01
3.040000000000000000e+02,1.374126315905167539e-01
3.050000000000000000e+02,1.373901244125167453e-01
3.060000000000000000e+02,1.373674498675167555e-01
3.070000000000000000e+02,1.373446205505167439e-01
3.080000000000000000e+02,1.373216295695167399e-01
3.090000000000000000e+02,1.372984727860167564e-01
3.100000000000000000e+02,1.372751629890167635e-01
3.110000000000000000e+02,1.372516932665167610e-01
3.120000000000000000e+02,1.372280594530167486e-01
3.130000000000000000e+02,1.372042745160167443e-01
3.140000000000000000e+02,1.371803315335167472e-01
3.150000000000000000e+02,1.371562263185167607e-01
3.160000000000000000e+02,1.371319720025167554e-01
3.170000000000000000e+02,1.371075616645167639e-01
3.180000000000000000e+02,1.370829911020167435e-01
3.190000000000000000e+02,1.370582735955167553e-01
3.200000000000000000e+02,1.370334022310167599e-01
3.210000000000000000e+02,1.370083727925167638e-01
3.220000000000000000e+02,1.369831986955167558e-01
3.230000000000000000e+02,1.369578730460167537e-01
3.240000000000000000e+02,1.369323916215167414e-01
3.250000000000000000e+02,1.369067679555167616e-01
3.260000000000000000e+02,1.368809951825167570e-01
3.270000000000000000e+02,1.368550690785167445e-01
3.280000000000000000e+02,1.368290032790167587e-01
3.290000000000000000e+02,1.368027909545167509e-01
3.300000000000000000e+02,1.367764278820167434e-01
3.310000000000000000e+02,1.367499277825167392e-01
3.320000000000000000e+02,1.367232838730167432e-01
3.330000000000000000e+02,1.366964919360167396e-01
3.340000000000000000e+02,1.366695657595167479e-01
3.350000000000000000e+02,1.366424986095167438e-01
3.360000000000000000e+02,1.366152862755167507e-01
3.370000000000000000e+02,1.365879425980167372e-01
3.380000000000000000e+02,1.365604609025167504e-01
3.390000000000000000e+02,1.365328369900167538e-01
3.400000000000000000e+02,1.365050847355167574e-01
3.410000000000000000e+02,1.364771975320167585e-01
3.420000000000000000e+02,1.364491711950167607e-01
3.430000000000000000e+02,1.364210196150167642e-01
3.440000000000000000e+02,1.363927362570167556e-01
3.450000000000000000e+02,1.363643169540167399e-01
3.460000000000000000e+02,1.363357755955167394e-01
3.470000000000000000e+02,1.363071057255167418e-01
3.480000000000000000e+02,1.362783031975167425e-01
3.490000000000000000e+02,1.362493818820167402e-01
3.500000000000000000e+02,1.362203354035167457e-01
3.510000000000000000e+02,1.361911596350167397e-01
3.520000000000000000e+02,1.361618684115167566e-01
3.530000000000000000e+02,1.361324554475167592e-01
3.540000000000000000e+02,1.361029166415167468e-01
3.550000000000000000e+02,1.360732657745167551e-01
3.560000000000000000e+02,1.360434966560167547e-01
3.570000000000000000e+02,1.360136052120167471e-01
3.580000000000000000e+02,1.359836051520167399e-01
3.590000000000000000e+02,1.359534903850167509e-01
3.600000000000000000e+02,1.359232568665167395e-01
3.610000000000000000e+02,1.358929182180167450e-01
3.620000000000000000e+02,1.358624684535167382e-01
3.630000000000000000e+02,1.358319035610167369e-01
3.640000000000000000e+02,1.358012370565167548e-01
3.650000000000000000e+02,1.357704630590167438e-01
3.660000000000000000e+02,1.357395775885167633e-01
3.670000000000000000e+02,1.357085940415167502e-01
3.680000000000000000e+02,1.356775066505167548e-01
3.690000000000000000e+02,1.356463114730167563e-01
3.700000000000000000e+02,1.356150217685167525e-01
3.710000000000000000e+02,1.355836318875167368e-01
3.720000000000000000e+02,1.355521379285167527e-01
3.730000000000000000e+02,1.355205529985167578e-01
3.740000000000000000e+02,1.354888715700167390e-01
3.750000000000000000e+02,1.354570897840167432e-01
3.760000000000000000e+02,1.354252205800167419e-01
3.770000000000000000e+02,1.353932585580167602e-01
3.780000000000000000e+02,1.353611999055167603e-01
3.790000000000000000e+02,1.353290573795167540e-01
3.800000000000000000e+02,1.352968257065167434e-01
3.810000000000000000e+02,1.352645011210167614e-01
3.820000000000000000e+02,1.352320961850167480e-01
3.830000000000000000e+02,1.351996057600167445e-01
3.840000000000000000e+02,1.351670261340167378e-01
3.850000000000000000e+02,1.351343696600167399e-01
3.860000000000000000e+02,1.351016313390167589e-01
3.870000000000000000e+02,1.350688075160167423e-01
3.880000000000000000e+02,1.350359103220167556e-01
3.890000000000000000e+02,1.350029349005167634e-01
3.900000000000000000e+02,1.349698776565167457e-01
3.910000000000000000e+02,1.349367504870167545e-01
3.920000000000000000e+02,1.349035486830167385e-01
3.930000000000000000e+02,1.348702687145167389e-01
3.940000000000000000e+02,1.348369222320167371e-01
3.950000000000000000e+02,1.348035046725167552e-01
3.960000000000000000e+02,1.347700125710167562e-01
3.970000000000000000e+02,1.347364573225167395e-01
3.980000000000000000e+02,1.347028345185167508e-01
3.990000000000000000e+02,1.346691407670167484e-01
