# Time [s], Temperature [C]
1.000000000000000000e+00,2.499997099999999861e+01
2.000000000000000000e+00,7.517175299999999538e+01
3.000000000000000000e+00,1.035233599999999967e+02
4.000000000000000000e+00,1.265322599999999937e+02
5.000000000000000000e+00,1.456291999999999973e+02
6.000000000000000000e+00,1.623194000000000017e+02
7.000000000000000000e+00,1.771788599999999860e+02
8.000000000000000000e+00,1.906419999999999959e+02
9.000000000000000000e+00,2.029737700000000018e+02
1.000000000000000000e+01,2.143721299999999985e+02
1.100000000000000000e+01,2.249847000000000037e+02
1.200000000000000000e+01,2.349293399999999963e+02
1.300000000000000000e+01,2.443116499999999860e+02
1.400000000000000000e+01,2.532326400000000035e+02
1.500000000000000000e+01,2.617949800000000096e+02
1.600000000000000000e+01,2.700854800000000182e+02
1.700000000000000000e+01,2.781473399999999856e+02
1.800000000000000000e+01,2.859400899999999979e+02
1.900000000000000000e+01,2.933810700000000224e+02
2.000000000000000000e+01,3.004079600000000028e+02
2.100000000000000000e+01,3.070145899999999983e+02
2.200000000000000000e+01,3.132370000000000232e+02
2.300000000000000000e+01,3.191246600000000058e+02
2.400000000000000000e+01,3.247091100000000097e+02
2.500000000000000000e+01,3.300187099999999987e+02
2.600000000000000000e+01,3.350717500000000086e+02
2.700000000000000000e+01,3.398809499999999844e+02
2.800000000000000000e+01,3.444514500000000226e+02
2.900000000000000000e+01,3.487856400000000008e+02
3.000000000000000000e+01,3.528926700000000096e+02
3.100000000000000000e+01,3.567740499999999884e+02
3.200000000000000000e+01,3.604210199999999986e+02
3.300000000000000000e+01,3.638560499999999820e+02
3.400000000000000000e+01,3.670774499999999989e+02
3.500000000000000000e+01,3.700761400000000094e+02
3.600000000000000000e+01,3.728979499999999803e+02
3.700000000000000000e+01,3.755466299999999933e+02
3.800000000000000000e+01,3.777817400000000134e+02
3.900000000000000000e+01,3.785419600000000173e+02
4.000000000000000000e+01,3.809200700000000097e+02
4.100000000000000000e+01,3.829040200000000027e+02
4.200000000000000000e+01,3.849772899999999822e+02
4.300000000000000000e+01,3.869581000000000017e+02
4.400000000000000000e+01,3.888461599999999976e+02
4.500000000000000000e+01,3.907536600000000249e+02
4.600000000000000000e+01,3.926398300000000177e+02
4.700000000000000000e+01,3.944416499999999814e+02
4.800000000000000000e+01,3.963154000000000110e+02
4.900000000000000000e+01,3.981951000000000249e+02
5.000000000000000000e+01,4.000017100000000028e+02
5.100000000000000000e+01,4.019144299999999816e+02
5.200000000000000000e+01,4.038374900000000025e+02
5.300000000000000000e+01,4.057013900000000035e+02
5.400000000000000000e+01,4.076746499999999855e+02
5.500000000000000000e+01,4.096595500000000243e+02
5.600000000000000000e+01,4.115819399999999746e+02
5.700000000000000000e+01,4.135960999999999785e+02
5.800000000000000000e+01,4.156082200000000171e+02
5.900000000000000000e+01,4.175488000000000284e+02
6.000000000000000000e+01,4.195430900000000065e+02
6.100000000000000000e+01,4.215120200000000068e+02
6.200000000000000000e+01,4.234020100000000184e+02
6.300000000000000000e+01,4.253052400000000262e+02
6.400000000000000000e+01,4.271585699999999974e+02
6.500000000000000000e+01,4.289357299999999782e+02
6.600000000000000000e+01,4.307035200000000259e+02
6.700000000000000000e+01,4.324180000000000064e+02
6.800000000000000000e+01,4.340838299999999776e+02
6.900000000000000000e+01,4.357252500000000168e+02
7.000000000000000000e+01,4.373425899999999729e+02
7.100000000000000000e+01,4.389263000000000261e+02
7.200000000000000000e+01,4.404978899999999840e+02
7.300000000000000000e+01,4.420612800000000107e+02
7.400000000000000000e+01,4.436068999999999960e+02
7.500000000000000000e+01,4.451543599999999969e+02
7.600000000000000000e+01,4.466970499999999902e+02
7.700000000000000000e+01,4.482285800000000222e+02
7.800000000000000000e+01,4.497600100000000225e+02
7.900000000000000000e+01,4.512840899999999920e+02
8.000000000000000000e+01,4.527982200000000148e+02
8.100000000000000000e+01,4.542974199999999882e+02
8.200000000000000000e+01,4.557819799999999759e+02
8.300000000000000000e+01,4.572430400000000077e+02
8.400000000000000000e+01,4.586920799999999758e+02
8.500000000000000000e+01,4.601110499999999774e+02
8.600000000000000000e+01,4.615111099999999738e+02
8.700000000000000000e+01,4.628886699999999905e+02
8.800000000000000000e+01,4.642376699999999801e+02
8.900000000000000000e+01,4.655724200000000224e+02
9.000000000000000000e+01,4.668829299999999876e+02
9.100000000000000000e+01,4.681780400000000100e+02
9.200000000000000000e+01,4.694588899999999967e+02
9.300000000000000000e+01,4.707235400000000141e+02
9.400000000000000000e+01,4.719826400000000035e+02
9.500000000000000000e+01,4.732286100000000033e+02
9.600000000000000000e+01,4.744613299999999754e+02
9.700000000000000000e+01,4.756964699999999766e+02
9.800000000000000000e+01,4.769183300000000258e+02
9.900000000000000000e+01,4.781376599999999826e+02
1.000000000000000000e+02,4.793429600000000050e+02
1.010000000000000000e+02,4.805470000000000255e+02
1.020000000000000000e+02,4.817336399999999799e+02
1.030000000000000000e+02,4.829163800000000037e+02
1.040000000000000000e+02,4.840881299999999783e+02
1.050000000000000000e+02,4.852401100000000156e+02
1.060000000000000000e+02,4.863841899999999896e+02
1.070000000000000000e+02,4.875161400000000071e+02
1.080000000000000000e+02,4.886292100000000005e+02
1.090000000000000000e+02,4.897357799999999770e+02
1.100000000000000000e+02,4.908268100000000231e+02
1.110000000000000000e+02,4.919065899999999942e+02
1.120000000000000000e+02,4.929743300000000090e+02
1.130000000000000000e+02,4.940382399999999734e+02
1.140000000000000000e+02,4.950847200000000043e+02
1.150000000000000000e+02,4.961279299999999921e+02
1.160000000000000000e+02,4.971651299999999765e+02
1.170000000000000000e+02,4.981890000000000214e+02
1.180000000000000000e+02,4.992117299999999886e+02
1.190000000000000000e+02,5.002230799999999817e+02
1.200000000000000000e+02,5.012344100000000253e+02
1.210000000000000000e+02,5.022318099999999959e+02
1.220000000000000000e+02,5.032295799999999986e+02
1.230000000000000000e+02,5.042109699999999748e+02
1.240000000000000000e+02,5.051935399999999845e+02
1.250000000000000000e+02,5.061625399999999786e+02
1.260000000000000000e+02,5.071318400000000111e+02
1.270000000000000000e+02,5.079542500000000018e+02
1.280000000000000000e+02,5.058825100000000248e+02
1.290000000000000000e+02,5.068198899999999867e+02
1.300000000000000000e+02,5.072466400000000135e+02
1.310000000000000000e+02,5.080631700000000137e+02
1.320000000000000000e+02,5.088303199999999720e+02
1.330000000000000000e+02,5.096884499999999889e+02
1.340000000000000000e+02,5.105565199999999777e+02
1.350000000000000000e+02,5.114463499999999954e+02
1.360000000000000000e+02,5.123502200000000357e+02
1.370000000000000000e+02,5.132587300000000141e+02
1.380000000000000000e+02,5.141685800000000199e+02
1.390000000000000000e+02,5.150747099999999818e+02
1.400000000000000000e+02,5.159869999999999663e+02
1.410000000000000000e+02,5.168913599999999633e+02
1.420000000000000000e+02,5.177884500000000116e+02
1.430000000000000000e+02,5.186882299999999759e+02
1.440000000000000000e+02,5.195755000000000337e+02
1.450000000000000000e+02,5.204558700000000044e+02
1.460000000000000000e+02,5.213302599999999529e+02
1.470000000000000000e+02,5.221964100000000144e+02
1.480000000000000000e+02,5.230565199999999777e+02
1.490000000000000000e+02,5.239069799999999759e+02
1.500000000000000000e+02,5.247490199999999732e+02
1.510000000000000000e+02,5.255869099999999889e+02
1.520000000000000000e+02,5.264147900000000391e+02
1.530000000000000000e+02,5.272388899999999694e+02
1.540000000000000000e+02,5.280544999999999618e+02
1.550000000000000000e+02,5.288663900000000240e+02
1.560000000000000000e+02,5.296731600000000526e+02
1.570000000000000000e+02,5.304701499999999896e+02
1.580000000000000000e+02,5.312662400000000389e+02
1.590000000000000000e+02,5.320566400000000158e+02
1.600000000000000000e+02,5.328385600000000295e+02
1.610000000000000000e+02,5.336181000000000267e+02
1.620000000000000000e+02,5.343913000000000011e+02
1.630000000000000000e+02,5.351564899999999625e+02
1.640000000000000000e+02,5.359230300000000398e+02
1.650000000000000000e+02,5.366792000000000371e+02
1.660000000000000000e+02,5.374286499999999478e+02
1.670000000000000000e+02,5.381746200000000044e+02
1.680000000000000000e+02,5.389155299999999897e+02
1.690000000000000000e+02,5.396513099999999667e+02
1.700000000000000000e+02,5.403831199999999626e+02
1.710000000000000000e+02,5.411057100000000446e+02
1.720000000000000000e+02,5.418279400000000123e+02
1.730000000000000000e+02,5.425433299999999690e+02
1.740000000000000000e+02,5.432547600000000330e+02
1.750000000000000000e+02,5.439610599999999749e+02
1.760000000000000000e+02,5.446633900000000494e+02
1.770000000000000000e+02,5.453624300000000176e+02
1.780000000000000000e+02,5.460531600000000481e+02
1.790000000000000000e+02,5.467434700000000021e+02
1.800000000000000000e+02,5.474265100000000075e+02
1.810000000000000000e+02,5.481072400000000471e+02
1.820000000000000000e+02,5.487820400000000518e+02
1.830000000000000000e+02,5.494519000000000233e+02
1.840000000000000000e+02,5.501183499999999640e+02
1.850000000000000000e+02,5.507795999999999594e+02
1.860000000000000000e+02,5.514359100000000353e+02
1.870000000000000000e+02,5.520892300000000432e+02
1.880000000000000000e+02,5.527367600000000039e+02
1.890000000000000000e+02,5.533803100000000086e+02
1.900000000000000000e+02,5.540206299999999828e+02
1.910000000000000000e+02,5.546541099999999460e+02
1.920000000000000000e+02,5.552848500000000058e+02
1.930000000000000000e+02,5.559126599999999598e+02
1.940000000000000000e+02,5.564747899999999845e+02
1.950000000000000000e+02,5.569610000000000127e+02
1.960000000000000000e+02,5.574783899999999903e+02
1.970000000000000000e+02,5.580279500000000326e+02
1.980000000000000000e+02,5.585672600000000330e+02
1.990000000000000000e+02,5.591138899999999694e+02
2.000000000000000000e+02,5.596634500000000116e+02
2.010000000000000000e+02,5.602176500000000487e+02
2.020000000000000000e+02,5.607731899999999996e+02
2.030000000000000000e+02,5.613338599999999587e+02
2.040000000000000000e+02,5.618936200000000554e+02
2.050000000000000000e+02,5.624556900000000041e+02
2.060000000000000000e+02,5.630187399999999798e+02
2.070000000000000000e+02,5.635774499999999989e+02
2.080000000000000000e+02,5.641415399999999636e+02
2.090000000000000000e+02,5.647011700000000474e+02
2.100000000000000000e+02,5.652569600000000491e+02
2.110000000000000000e+02,5.658121899999999869e+02
2.120000000000000000e+02,5.663651099999999587e+02
2.130000000000000000e+02,5.669153400000000147e+02
2.140000000000000000e+02,5.674632599999999911e+02
2.150000000000000000e+02,5.680043899999999439e+02
2.160000000000000000e+02,5.685440700000000334e+02
2.170000000000000000e+02,5.690812399999999798e+02
2.180000000000000000e+02,5.696117600000000039e+02
2.190000000000000000e+02,5.701440999999999804e+02
2.200000000000000000e+02,5.706685199999999440e+02
2.210000000000000000e+02,5.711878100000000131e+02
2.220000000000000000e+02,5.717078199999999697e+02
2.230000000000000000e+02,5.722196699999999510e+02
2.240000000000000000e+02,5.727306499999999687e+02
2.250000000000000000e+02,5.732373700000000554e+02
2.260000000000000000e+02,5.737403600000000097e+02
2.270000000000000000e+02,5.742363900000000285e+02
2.280000000000000000e+02,5.747340699999999742e+02
2.290000000000000000e+02,5.752241800000000467e+02
2.300000000000000000e+02,5.757136199999999917e+02
2.310000000000000000e+02,5.761964699999999766e+02
2.320000000000000000e+02,5.766765100000000075e+02
2.330000000000000000e+02,5.771535000000000082e+02
2.340000000000000000e+02,5.776279299999999921e+02
2.350000000000000000e+02,5.780992999999999711e+02
2.360000000000000000e+02,5.785648800000000165e+02
2.370000000000000000e+02,5.790283200000000079e+02
2.380000000000000000e+02,5.794886500000000069e+02
2.390000000000000000e+02,5.799469599999999900e+02
2.400000000000000000e+02,5.804020400000000564e+02
2.410000000000000000e+02,5.808505199999999604e+02
2.420000000000000000e+02,5.812999899999999798e+02
2.430000000000000000e+02,5.817433499999999640e+02
2.440000000000000000e+02,5.821792599999999993e+02
2.450000000000000000e+02,5.826050400000000309e+02
2.460000000000000000e+02,5.830214799999999968e+02
2.470000000000000000e+02,5.834340200000000323e+02
2.480000000000000000e+02,5.838424099999999726e+02
2.490000000000000000e+02,5.842504300000000512e+02
2.500000000000000000e+02,5.846553999999999860e+02
2.510000000000000000e+02,5.850598800000000210e+02
2.520000000000000000e+02,5.854622799999999643e+02
2.530000000000000000e+02,5.858610800000000154e+02
2.540000000000000000e+02,5.862631800000000339e+02
2.550000000000000000e+02,5.866628399999999601e+02
2.560000000000000000e+02,5.870618299999999863e+02
2.570000000000000000e+02,5.874605099999999993e+02
2.580000000000000000e+02,5.878552899999999681e+02
2.590000000000000000e+02,5.882528099999999540e+02
2.600000000000000000e+02,5.886493500000000267e+02
2.610000000000000000e+02,5.890444300000000339e+02
2.620000000000000000e+02,5.894392699999999650e+02
2.630000000000000000e+02,5.898311800000000176e+02
2.640000000000000000e+02,5.902233899999999949e+02
2.650000000000000000e+02,5.906142599999999447e+02
2.660000000000000000e+02,5.910048799999999574e+02
2.670000000000000000e+02,5.913947799999999688e+02
2.680000000000000000e+02,5.917830800000000409e+02
2.690000000000000000e+02,5.921690700000000334e+02
2.700000000000000000e+02,5.925562700000000405e+02
2.710000000000000000e+02,5.929418299999999817e+02
2.720000000000000000e+02,5.933272100000000364e+02
2.730000000000000000e+02,5.937120400000000018e+02
2.740000000000000000e+02,5.940953399999999647e+02
2.750000000000000000e+02,5.944785200000000032e+02
2.760000000000000000e+02,5.948590100000000120e+02
2.770000000000000000e+02,5.952403000000000475e+02
2.780000000000000000e+02,5.956215200000000323e+02
2.790000000000000000e+02,5.960028099999999540e+02
2.800000000000000000e+02,5.963844599999999900e+02
2.810000000000000000e+02,5.967637300000000096e+02
2.820000000000000000e+02,5.971446499999999560e+02
2.830000000000000000e+02,5.975223999999999478e+02
2.840000000000000000e+02,5.979031400000000076e+02
2.850000000000000000e+02,5.982839400000000296e+02
2.860000000000000000e+02,5.986647900000000391e+02
2.870000000000000000e+02,5.990465699999999742e+02
2.880000000000000000e+02,5.994292599999999993e+02
2.890000000000000000e+02,5.998120099999999866e+02
2.900000000000000000e+02,6.001947000000000116e+02
2.910000000000000000e+02,6.005803799999999910e+02
2.920000000000000000e+02,6.009663699999999835e+02
2.930000000000000000e+02,6.013543700000000172e+02
2.940000000000000000e+02,6.017443799999999783e+02
2.950000000000000000e+02,6.021355600000000550e+02
2.960000000000000000e+02,6.025276499999999942e+02
2.970000000000000000e+02,6.029231600000000526e+02
2.980000000000000000e+02,6.033207400000000007e+02
2.990000000000000000e+02,6.037229599999999436e+02
3.000000000000000000e+02,6.041270799999999781e+02
3.010000000000000000e+02,6.045328399999999647e+02
3.020000000000000000e+02,6.049446400000000494e+02
3.030000000000000000e+02,6.053593100000000504e+02
3.040000000000000000e+02,6.057788100000000213e+02
3.050000000000000000e+02,6.062031200000000126e+02
3.060000000000000000e+02,6.066301300000000083e+02
3.070000000000000000e+02,6.070639599999999518e+02
3.080000000000000000e+02,6.075043899999999439e+02
3.090000000000000000e+02,6.079480600000000550e+02
3.100000000000000000e+02,6.083986200000000508e+02
3.110000000000000000e+02,6.088584600000000364e+02
3.120000000000000000e+02,6.093215900000000147e+02
3.130000000000000000e+02,6.097933299999999690e+02
3.140000000000000000e+02,6.102714799999999968e+02
3.150000000000000000e+02,6.107583600000000388e+02
3.160000000000000000e+02,6.112490800000000490e+02
3.170000000000000000e+02,6.117524399999999787e+02
3.180000000000000000e+02,6.122612299999999550e+02
3.190000000000000000e+02,6.127764899999999670e+02
3.200000000000000000e+02,6.132977300000000014e+02
3.210000000000000000e+02,6.138294100000000526e+02
3.220000000000000000e+02,6.143641999999999825e+02
3.230000000000000000e+02,6.149071699999999510e+02
3.240000000000000000e+02,6.154550799999999526e+02
3.250000000000000000e+02,6.160070799999999736e+02
3.260000000000000000e+02,6.165661000000000058e+02
3.270000000000000000e+02,6.171291499999999814e+02
3.280000000000000000e+02,6.176927500000000464e+02
3.290000000000000000e+02,6.182647100000000364e+02
3.300000000000000000e+02,6.188351400000000240e+02
3.310000000000000000e+02,6.194074100000000271e+02
3.320000000000000000e+02,6.199838300000000118e+02
3.330000000000000000e+02,6.205599999999999454e+02
3.340000000000000000e+02,6.211380599999999959e+02
3.350000000000000000e+02,6.217149699999999939e+02
3.360000000000000000e+02,6.222949800000000096e+02
3.370000000000000000e+02,6.228698699999999917e+02
3.380000000000000000e+02,6.234484899999999925e+02
3.390000000000000000e+02,6.240230099999999993e+02
3.400000000000000000e+02,6.245976000000000568e+02
3.410000000000000000e+02,6.251715100000000120e+02
3.420000000000000000e+02,6.257407200000000103e+02
3.430000000000000000e+02,6.263104899999999589e+02
3.440000000000000000e+02,6.268775600000000168e+02
3.450000000000000000e+02,6.274429900000000089e+02
3.460000000000000000e+02,6.280031699999999546e+02
3.470000000000000000e+02,6.285651199999999790e+02
3.480000000000000000e+02,6.291198699999999917e+02
3.490000000000000000e+02,6.296714500000000498e+02
3.500000000000000000e+02,6.302238200000000461e+02
3.510000000000000000e+02,6.307694099999999935e+02
3.520000000000000000e+02,6.313114000000000487e+02
3.530000000000000000e+02,6.318539399999999659e+02
3.540000000000000000e+02,6.323882399999999961e+02
3.550000000000000000e+02,6.329226099999999633e+02
3.560000000000000000e+02,6.334515999999999849e+02
3.570000000000000000e+02,6.339761999999999489e+02
3.580000000000000000e+02,6.344991499999999860e+02
3.590000000000000000e+02,6.350168499999999767e+02
3.600000000000000000e+02,6.355307000000000244e+02
3.610000000000000000e+02,6.360415600000000040e+02
3.620000000000000000e+02,6.365491299999999910e+02
3.630000000000000000e+02,6.370507800000000316e+02
3.640000000000000000e+02,6.375488900000000285e+02
3.650000000000000000e+02,6.380453499999999849e+02
3.660000000000000000e+02,6.385364399999999705e+02
3.670000000000000000e+02,6.390224600000000237e+02
3.680000000000000000e+02,6.395061600000000226e+02
3.690000000000000000e+02,6.399858400000000529e+02
3.700000000000000000e+02,6.404608799999999746e+02
3.710000000000000000e+02,6.409338999999999942e+02
3.720000000000000000e+02,6.414006299999999783e+02
3.730000000000000000e+02,6.418636500000000069e+02
3.740000000000000000e+02,6.423246500000000196e+02
3.750000000000000000e+02,6.427804599999999482e+02
3.760000000000000000e+02,6.432327900000000227e+02
3.770000000000000000e+02,6.436810299999999643e+02
3.780000000000000000e+02,6.441252399999999625e+02
3.790000000000000000e+02,6.445657300000000305e+02
3.800000000000000000e+02,6.450021400000000540e+02
3.810000000000000000e+02,6.454365199999999732e+02
3.820000000000000000e+02,6.458655400000000100e+02
3.830000000000000000e+02,6.462913200000000415e+02
3.840000000000000000e+02,6.467133800000000292e+02
3.850000000000000000e+02,6.471314700000000357e+02
3.860000000000000000e+02,6.475472399999999880e+02
3.870000000000000000e+02,6.479572799999999688e+02
3.880000000000000000e+02,6.483645000000000209e+02
3.890000000000000000e+02,6.487688600000000179e+02
3.900000000000000000e+02,6.491688799999999446e+02
3.910000000000000000e+02,6.495645799999999781e+02
3.920000000000000000e+02,6.499580700000000206e+02
3.930000000000000000e+02,6.503477199999999812e+02
3.940000000000000000e+02,6.507336400000000367e+02
3.950000000000000000e+02,6.511170700000000124e+02
3.960000000000000000e+02,6.514963400000000320e+02
3.970000000000000000e+02,6.518720100000000457e+02
3.980000000000000000e+02,6.522442600000000539e+02
3.990000000000000000e+02,6.526133999999999560e+02
