# Time [s], Thickness [m]
1.000000000000000000e+00,8.000000400000000303e-03
2.000000000000000000e+00,8.000000400000000303e-03
3.000000000000000000e+00,8.000000400000000303e-03
4.000000000000000000e+00,8.000000400000000303e-03
5.000000000000000000e+00,8.000000400000000303e-03
6.000000000000000000e+00,7.999999400000000829e-03
7.000000000000000000e+00,7.999999400000000829e-03
8.000000000000000000e+00,7.999993900000000255e-03
9.000000000000000000e+00,7.999968700000000335e-03
1.000000000000000000e+01,7.999879300000000207e-03
1.100000000000000000e+01,7.999604599999999774e-03
1.200000000000000000e+01,7.998896800000000404e-03
1.300000000000000000e+01,7.997334899999999913e-03
1.400000000000000000e+01,7.994374300000000808e-03
1.500000000000000000e+01,7.989563999999999347e-03
1.600000000000000000e+01,7.982997199999999557e-03
1.700000000000000000e+01,7.975160099999999835e-03
1.800000000000000000e+01,7.966096500000000372e-03
1.900000000000000000e+01,7.956991899999999937e-03
2.000000000000000000e+01,7.947666600000000137e-03
2.100000000000000000e+01,7.937641800000000761e-03
2.200000000000000000e+01,7.928765399999999214e-03
2.300000000000000000e+01,7.919205400000000478e-03
2.400000000000000000e+01,7.909274699999999797e-03
2.500000000000000000e+01,7.899059899999999815e-03
2.600000000000000000e+01,7.888456800000000560e-03
2.700000000000000000e+01,7.877271599999999263e-03
2.800000000000000000e+01,7.866584700000000055e-03
2.900000000000000000e+01,7.856191099999999816e-03
3.000000000000000000e+01,7.845966100000000693e-03
3.100000000000000000e+01,7.836201200000000172e-03
3.200000000000000000e+01,7.826265900000000525e-03
3.300000000000000000e+01,7.816301700000000130e-03
3.400000000000000000e+01,7.806100399999999981e-03
3.500000000000000000e+01,7.795975499999999864e-03
3.600000000000000000e+01,7.785946099999999787e-03
3.700000000000000000e+01,7.776157900000000428e-03
3.800000000000000000e+01,7.766690599999999910e-03
3.900000000000000000e+01,7.757355500000000237e-03
4.000000000000000000e+01,7.748209399999999962e-03
4.100000000000000000e+01,7.738996799999999995e-03
4.200000000000000000e+01,7.729810200000000221e-03
4.300000000000000000e+01,7.720541699999999841e-03
4.400000000000000000e+01,7.711361199999999978e-03
4.500000000000000000e+01,7.702258400000000158e-03
4.600000000000000000e+01,7.693326999999999805e-03
4.700000000000000000e+01,7.684564700000000304e-03
4.800000000000000000e+01,7.675936000000000391e-03
4.900000000000000000e+01,7.667420900000000185e-03
5.000000000000000000e+01,7.658933300000000249e-03
5.100000000000000000e+01,7.650481500000000379e-03
5.200000000000000000e+01,7.642010200000000364e-03
5.300000000000000000e+01,7.630586600000000171e-03
5.400000000000000000e+01,7.620967000000000192e-03
5.500000000000000000e+01,7.612578099999999653e-03
5.600000000000000000e+01,7.604244199999999655e-03
5.700000000000000000e+01,7.595788200000000087e-03
5.800000000000000000e+01,7.587878499999999894e-03
5.900000000000000000e+01,7.579538000000000247e-03
6.000000000000000000e+01,7.571653900000000111e-03
6.100000000000000000e+01,7.563453200000000431e-03
6.200000000000000000e+01,7.555489900000000175e-03
6.300000000000000000e+01,7.547458200000000013e-03
6.400000000000000000e+01,7.539484200000000011e-03
6.500000000000000000e+01,7.531651299999999986e-03
6.600000000000000000e+01,7.523755099999999627e-03
6.700000000000000000e+01,7.516095900000000288e-03
6.800000000000000000e+01,7.508296499999999978e-03
6.900000000000000000e+01,7.500732799999999811e-03
7.000000000000000000e+01,7.493013500000000361e-03
7.100000000000000000e+01,7.485616999999999965e-03
7.200000000000000000e+01,7.477499099999999899e-03
7.300000000000000000e+01,7.469567499999999610e-03
7.400000000000000000e+01,7.462148600000000249e-03
7.500000000000000000e+01,7.454400400000000051e-03
7.600000000000000000e+01,7.446893500000000173e-03
7.700000000000000000e+01,7.439390300000000254e-03
7.800000000000000000e+01,7.431817200000000352e-03
7.900000000000000000e+01,7.424444399999999798e-03
8.000000000000000000e+01,7.416864399999999712e-03
8.100000000000000000e+01,7.409509699999999692e-03
8.200000000000000000e+01,7.401951599999999701e-03
8.300000000000000000e+01,7.394554099999999831e-03
8.400000000000000000e+01,7.387026700000000334e-03
8.500000000000000000e+01,7.379573799999999788e-03
8.600000000000000000e+01,7.372082700000000093e-03
8.700000000000000000e+01,7.364585100000000349e-03
8.800000000000000000e+01,7.357123800000000408e-03
8.900000000000000000e+01,7.349595900000000306e-03
9.000000000000000000e+01,7.342139299999999799e-03
9.100000000000000000e+01,7.334575099999999896e-03
9.200000000000000000e+01,7.327087700000000162e-03
9.300000000000000000e+01,7.319475500000000370e-03
9.400000000000000000e+01,7.311925300000000037e-03
9.500000000000000000e+01,7.304253499999999871e-03
9.600000000000000000e+01,7.296618099999999975e-03
9.700000000000000000e+01,7.288877899999999903e-03
9.800000000000000000e+01,7.281140900000000055e-03
9.900000000000000000e+01,7.273455600000000056e-03
1.000000000000000000e+02,7.265802000000000024e-03
1.010000000000000000e+02,7.258240099999999605e-03
1.020000000000000000e+02,7.250501300000000010e-03
1.030000000000000000e+02,7.242712200000000176e-03
1.040000000000000000e+02,7.234876000000000328e-03
1.050000000000000000e+02,7.226312999999999834e-03
1.060000000000000000e+02,7.217998599999999980e-03
1.070000000000000000e+02,7.209777399999999815e-03
1.080000000000000000e+02,7.201541700000000344e-03
1.090000000000000000e+02,7.193259900000000331e-03
1.100000000000000000e+02,7.184946400000000351e-03
1.110000000000000000e+02,7.176680000000000385e-03
1.120000000000000000e+02,7.168279500000000228e-03
1.130000000000000000e+02,7.159591199999999940e-03
1.140000000000000000e+02,7.150924300000000011e-03
1.150000000000000000e+02,7.142361699999999654e-03
1.160000000000000000e+02,7.133607800000000415e-03
1.170000000000000000e+02,7.124863599999999714e-03
1.180000000000000000e+02,7.115988099999999775e-03
1.190000000000000000e+02,7.107000300000000138e-03
1.200000000000000000e+02,7.097937599999999680e-03
1.210000000000000000e+02,7.088779899999999787e-03
1.220000000000000000e+02,7.079524499999999970e-03
1.230000000000000000e+02,7.070162300000000163e-03
1.240000000000000000e+02,7.060737800000000362e-03
1.250000000000000000e+02,7.051180599999999979e-03
1.260000000000000000e+02,7.041512500000000375e-03
1.270000000000000000e+02,7.031707100000000356e-03
1.280000000000000000e+02,7.021759600000000018e-03
1.290000000000000000e+02,7.011700899999999924e-03
1.300000000000000000e+02,7.001473999999999719e-03
1.310000000000000000e+02,6.990963600000000416e-03
1.320000000000000000e+02,6.980262200000000167e-03
1.330000000000000000e+02,6.969516200000000321e-03
1.340000000000000000e+02,6.958598699999999672e-03
1.350000000000000000e+02,6.947515999999999935e-03
1.360000000000000000e+02,6.936277700000000046e-03
1.370000000000000000e+02,6.924830800000000147e-03
1.380000000000000000e+02,6.913211199999999904e-03
1.390000000000000000e+02,6.901408500000000106e-03
1.400000000000000000e+02,6.889478800000000368e-03
1.410000000000000000e+02,6.877389700000000050e-03
1.420000000000000000e+02,6.865156800000000135e-03
1.430000000000000000e+02,6.852778599999999679e-03
1.440000000000000000e+02,6.840262100000000199e-03
1.450000000000000000e+02,6.827631500000000409e-03
1.460000000000000000e+02,6.814205099999999862e-03
1.470000000000000000e+02,6.800958400000000313e-03
1.480000000000000000e+02,6.787701999999999625e-03
1.490000000000000000e+02,6.774486500000000307e-03
1.500000000000000000e+02,6.761282199999999604e-03
1.510000000000000000e+02,6.748055999999999673e-03
1.520000000000000000e+02,6.734832199999999693e-03
1.530000000000000000e+02,6.721596199999999889e-03
1.540000000000000000e+02,6.708361200000000427e-03
1.550000000000000000e+02,6.695137399999999579e-03
1.560000000000000000e+02,6.681973600000000110e-03
1.570000000000000000e+02,6.668877299999999807e-03
1.580000000000000000e+02,6.655834099999999830e-03
1.590000000000000000e+02,6.642849699999999954e-03
1.600000000000000000e+02,6.629931300000000034e-03
1.610000000000000000e+02,6.617090200000000019e-03
1.620000000000000000e+02,6.604327400000000250e-03
1.630000000000000000e+02,6.591616199999999863e-03
1.640000000000000000e+02,6.578935799999999570e-03
1.650000000000000000e+02,6.566347999999999629e-03
1.660000000000000000e+02,6.553886000000000087e-03
1.670000000000000000e+02,6.541533399999999686e-03
1.680000000000000000e+02,6.529299500000000298e-03
1.690000000000000000e+02,6.517184900000000392e-03
1.700000000000000000e+02,6.505226299999999906e-03
1.710000000000000000e+02,6.493446899999999813e-03
1.720000000000000000e+02,6.481831399999999667e-03
1.730000000000000000e+02,6.470375700000000237e-03
1.740000000000000000e+02,6.459090899999999670e-03
1.750000000000000000e+02,6.447972700000000404e-03
1.760000000000000000e+02,6.437014799999999856e-03
1.770000000000000000e+02,6.426255700000000314e-03
1.780000000000000000e+02,6.415437900000000269e-03
1.790000000000000000e+02,6.405054099999999903e-03
1.800000000000000000e+02,6.395048500000000136e-03
1.810000000000000000e+02,6.385424199999999856e-03
1.820000000000000000e+02,6.376210600000000416e-03
1.830000000000000000e+02,6.367443100000000009e-03
1.840000000000000000e+02,6.359161799999999733e-03
1.850000000000000000e+02,6.351444900000000233e-03
1.860000000000000000e+02,6.344394300000000264e-03
1.870000000000000000e+02,6.338072000000000150e-03
1.880000000000000000e+02,6.332527800000000394e-03
1.890000000000000000e+02,6.327820900000000366e-03
1.900000000000000000e+02,6.323984799999999781e-03
1.910000000000000000e+02,6.320972499999999959e-03
1.920000000000000000e+02,6.318666500000000297e-03
1.930000000000000000e+02,6.316945000000000025e-03
1.940000000000000000e+02,6.315667199999999704e-03
1.950000000000000000e+02,6.314727000000000014e-03
1.960000000000000000e+02,6.314035499999999697e-03
1.970000000000000000e+02,6.313521899999999763e-03
1.980000000000000000e+02,6.313139100000000198e-03
1.990000000000000000e+02,6.312848099999999844e-03
2.000000000000000000e+02,6.312621800000000304e-03
2.010000000000000000e+02,6.312442500000000310e-03
2.020000000000000000e+02,6.312298600000000245e-03
2.030000000000000000e+02,6.312180799999999974e-03
2.040000000000000000e+02,6.312084400000000060e-03
2.050000000000000000e+02,6.312004799999999805e-03
2.060000000000000000e+02,6.311939100000000386e-03
2.070000000000000000e+02,6.311883699999999708e-03
2.080000000000000000e+02,6.311836700000000161e-03
2.090000000000000000e+02,6.311797499999999804e-03
2.100000000000000000e+02,6.311764000000000090e-03
2.110000000000000000e+02,6.311734700000000073e-03
2.120000000000000000e+02,6.311709999999999890e-03
2.130000000000000000e+02,6.311688600000000399e-03
2.140000000000000000e+02,6.311670400000000264e-03
2.150000000000000000e+02,6.311654600000000080e-03
2.160000000000000000e+02,6.311640099999999906e-03
2.170000000000000000e+02,6.311627600000000414e-03
2.180000000000000000e+02,6.311616400000000064e-03
2.190000000000000000e+02,6.311606600000000192e-03
2.200000000000000000e+02,6.311597300000000056e-03
2.210000000000000000e+02,6.311589400000000398e-03
2.220000000000000000e+02,6.311581900000000009e-03
2.230000000000000000e+02,6.311575399999999961e-03
2.240000000000000000e+02,6.311569799999999786e-03
2.250000000000000000e+02,6.311564199999999611e-03
2.260000000000000000e+02,6.311559599999999777e-03
2.270000000000000000e+02,6.311554900000000343e-03
2.280000000000000000e+02,6.311550699999999778e-03
2.290000000000000000e+02,6.311546999999999817e-03
2.300000000000000000e+02,6.311543799999999593e-03
2.310000000000000000e+02,6.311540499999999769e-03
2.320000000000000000e+02,6.311537699999999682e-03
2.330000000000000000e+02,6.311534899999999594e-03
2.340000000000000000e+02,6.311532600000000111e-03
2.350000000000000000e+02,6.311530200000000160e-03
2.360000000000000000e+02,6.311527899999999809e-03
2.370000000000000000e+02,6.311526100000000063e-03
2.380000000000000000e+02,6.311524199999999848e-03
2.390000000000000000e+02,6.311522299999999634e-03
2.400000000000000000e+02,6.311520499999999888e-03
2.410000000000000000e+02,6.311519100000000278e-03
2.420000000000000000e+02,6.311517200000000063e-03
2.430000000000000000e+02,6.311515799999999586e-03
2.440000000000000000e+02,6.311514399999999976e-03
2.450000000000000000e+02,6.311513500000000103e-03
2.460000000000000000e+02,6.311512099999999625e-03
2.470000000000000000e+02,6.311510700000000015e-03
2.480000000000000000e+02,6.311509800000000142e-03
2.490000000000000000e+02,6.311508799999999801e-03
2.500000000000000000e+02,6.311507899999999928e-03
2.510000000000000000e+02,6.311507000000000055e-03
2.520000000000000000e+02,6.311505999999999714e-03
2.530000000000000000e+02,6.311505099999999840e-03
2.540000000000000000e+02,6.311504600000000104e-03
2.550000000000000000e+02,6.311503700000000230e-03
2.560000000000000000e+02,6.311502800000000357e-03
2.570000000000000000e+02,6.311502299999999753e-03
2.580000000000000000e+02,6.311501800000000016e-03
2.590000000000000000e+02,6.311500900000000143e-03
2.600000000000000000e+02,6.311500400000000406e-03
2.610000000000000000e+02,6.311500000000000270e-03
2.620000000000000000e+02,6.311499499999999666e-03
2.630000000000000000e+02,6.311498599999999792e-03
2.640000000000000000e+02,6.311498100000000055e-03
2.650000000000000000e+02,6.311497699999999919e-03
2.660000000000000000e+02,6.311497200000000182e-03
2.670000000000000000e+02,6.311496699999999578e-03
2.680000000000000000e+02,6.311496300000000309e-03
2.690000000000000000e+02,6.311496300000000309e-03
2.700000000000000000e+02,6.311495799999999705e-03
2.710000000000000000e+02,6.311495299999999968e-03
2.720000000000000000e+02,6.311494899999999832e-03
2.730000000000000000e+02,6.311494400000000095e-03
2.740000000000000000e+02,6.311494400000000095e-03
2.750000000000000000e+02,6.311493900000000358e-03
2.760000000000000000e+02,6.311493500000000222e-03
2.770000000000000000e+02,6.311492999999999617e-03
2.780000000000000000e+02,6.311492999999999617e-03
2.790000000000000000e+02,6.311492499999999881e-03
2.800000000000000000e+02,6.311492499999999881e-03
2.810000000000000000e+02,6.311492099999999744e-03
2.820000000000000000e+02,6.311491600000000007e-03
2.830000000000000000e+02,6.311491600000000007e-03
2.840000000000000000e+02,6.311491100000000271e-03
2.850000000000000000e+02,6.311491100000000271e-03
2.860000000000000000e+02,6.311490700000000134e-03
2.870000000000000000e+02,6.311490700000000134e-03
2.880000000000000000e+02,6.311490200000000397e-03
2.890000000000000000e+02,6.311490200000000397e-03
2.900000000000000000e+02,6.311489699999999793e-03
2.910000000000000000e+02,6.311489699999999793e-03
2.920000000000000000e+02,6.311489299999999657e-03
2.930000000000000000e+02,6.311489299999999657e-03
2.940000000000000000e+02,6.311489299999999657e-03
2.950000000000000000e+02,6.311488799999999920e-03
2.960000000000000000e+02,6.311488799999999920e-03
2.970000000000000000e+02,6.311488300000000183e-03
2.980000000000000000e+02,6.311488300000000183e-03
2.990000000000000000e+02,6.311488300000000183e-03
3.000000000000000000e+02,6.311487900000000047e-03
3.010000000000000000e+02,6.311487900000000047e-03
3.020000000000000000e+02,6.311487900000000047e-03
3.030000000000000000e+02,6.311487400000000310e-03
3.040000000000000000e+02,6.311487400000000310e-03
3.050000000000000000e+02,6.311487400000000310e-03
3.060000000000000000e+02,6.311486899999999706e-03
3.070000000000000000e+02,6.311486899999999706e-03
3.080000000000000000e+02,6.311486899999999706e-03
3.090000000000000000e+02,6.311486499999999569e-03
3.100000000000000000e+02,6.311486499999999569e-03
3.110000000000000000e+02,6.311486499999999569e-03
3.120000000000000000e+02,6.311485999999999832e-03
3.130000000000000000e+02,6.311485999999999832e-03
3.140000000000000000e+02,6.311485999999999832e-03
3.150000000000000000e+02,6.311485999999999832e-03
3.160000000000000000e+02,6.311485500000000096e-03
3.170000000000000000e+02,6.311485500000000096e-03
3.180000000000000000e+02,6.311485500000000096e-03
3.190000000000000000e+02,6.311485500000000096e-03
3.200000000000000000e+02,6.311485099999999959e-03
3.210000000000000000e+02,6.311485099999999959e-03
3.220000000000000000e+02,6.311485099999999959e-03
3.230000000000000000e+02,6.311485099999999959e-03
3.240000000000000000e+02,6.311485099999999959e-03
3.250000000000000000e+02,6.311484600000000222e-03
3.260000000000000000e+02,6.311484600000000222e-03
3.270000000000000000e+02,6.311484600000000222e-03
3.280000000000000000e+02,6.311484600000000222e-03
3.290000000000000000e+02,6.311484099999999618e-03
3.300000000000000000e+02,6.311484099999999618e-03
3.310000000000000000e+02,6.311484099999999618e-03
3.320000000000000000e+02,6.311484099999999618e-03
3.330000000000000000e+02,6.311484099999999618e-03
3.340000000000000000e+02,6.311484099999999618e-03
3.350000000000000000e+02,6.311483700000000349e-03
3.360000000000000000e+02,6.311483700000000349e-03
3.370000000000000000e+02,6.311483700000000349e-03
3.380000000000000000e+02,6.311483700000000349e-03
3.390000000000000000e+02,6.311483700000000349e-03
3.400000000000000000e+02,6.311483199999999745e-03
3.410000000000000000e+02,6.311483199999999745e-03
3.420000000000000000e+02,6.311483199999999745e-03
3.430000000000000000e+02,6.311483199999999745e-03
3.440000000000000000e+02,6.311483199999999745e-03
3.450000000000000000e+02,6.311483199999999745e-03
3.460000000000000000e+02,6.311483199999999745e-03
3.470000000000000000e+02,6.311482700000000008e-03
3.480000000000000000e+02,6.311482700000000008e-03
3.490000000000000000e+02,6.311482700000000008e-03
3.500000000000000000e+02,6.311482700000000008e-03
3.510000000000000000e+02,6.311482700000000008e-03
3.520000000000000000e+02,6.311482700000000008e-03
3.530000000000000000e+02,6.311482299999999872e-03
3.540000000000000000e+02,6.311482299999999872e-03
3.550000000000000000e+02,6.311482299999999872e-03
3.560000000000000000e+02,6.311482299999999872e-03
3.570000000000000000e+02,6.311482299999999872e-03
3.580000000000000000e+02,6.311482299999999872e-03
3.590000000000000000e+02,6.311482299999999872e-03
3.600000000000000000e+02,6.311482299999999872e-03
3.610000000000000000e+02,6.311481800000000135e-03
3.620000000000000000e+02,6.311481800000000135e-03
3.630000000000000000e+02,6.311481800000000135e-03
3.640000000000000000e+02,6.311481800000000135e-03
3.650000000000000000e+02,6.311481800000000135e-03
3.660000000000000000e+02,6.311481800000000135e-03
3.670000000000000000e+02,6.311481800000000135e-03
3.680000000000000000e+02,6.311481800000000135e-03
3.690000000000000000e+02,6.311481399999999999e-03
3.700000000000000000e+02,6.311481399999999999e-03
3.710000000000000000e+02,6.311481399999999999e-03
3.720000000000000000e+02,6.311481399999999999e-03
3.730000000000000000e+02,6.311481399999999999e-03
3.740000000000000000e+02,6.311481399999999999e-03
3.750000000000000000e+02,6.311481399999999999e-03
3.760000000000000000e+02,6.311481399999999999e-03
3.770000000000000000e+02,6.311481399999999999e-03
3.780000000000000000e+02,6.311481399999999999e-03
3.790000000000000000e+02,6.311480900000000262e-03
3.800000000000000000e+02,6.311480900000000262e-03
3.810000000000000000e+02,6.311480900000000262e-03
3.820000000000000000e+02,6.311480900000000262e-03
3.830000000000000000e+02,6.311480900000000262e-03
3.840000000000000000e+02,6.311480900000000262e-03
3.850000000000000000e+02,6.311480900000000262e-03
3.860000000000000000e+02,6.311480900000000262e-03
3.870000000000000000e+02,6.311480900000000262e-03
3.880000000000000000e+02,6.311480900000000262e-03
3.890000000000000000e+02,6.311480399999999658e-03
3.900000000000000000e+02,6.311480399999999658e-03
3.910000000000000000e+02,6.311480399999999658e-03
3.920000000000000000e+02,6.311480399999999658e-03
3.930000000000000000e+02,6.311480399999999658e-03
3.940000000000000000e+02,6.311480399999999658e-03
3.950000000000000000e+02,6.311480399999999658e-03
3.960000000000000000e+02,6.311480399999999658e-03
3.970000000000000000e+02,6.311480399999999658e-03
3.980000000000000000e+02,6.311480399999999658e-03
3.990000000000000000e+02,6.311480399999999658e-03
