# Time [s], Mass [Kg]
1.000000000000000000e+00,1.000000000000000000e+00
2.000000000000000000e+00,1.000000000000000000e+00
3.000000000000000000e+00,1.000000000000000000e+00
4.000000000000000000e+00,1.000000000000000000e+00
5.000000000000000000e+00,1.000000000000000000e+00
6.000000000000000000e+00,1.000000000000000000e+00
7.000000000000000000e+00,9.999997600000000153e-01
8.000000000000000000e+00,9.999982699999999669e-01
9.000000000000000000e+00,9.999911200000000111e-01
1.000000000000000000e+01,9.999623899999999788e-01
1.100000000000000000e+01,9.998711900000000208e-01
1.200000000000000000e+01,9.996339699999999828e-01
1.300000000000000000e+01,9.991130200000000183e-01
1.400000000000000000e+01,9.981437899999999752e-01
1.500000000000000000e+01,9.966287000000000340e-01
1.600000000000000000e+01,9.946076299999999648e-01
1.700000000000000000e+01,9.918323799999999579e-01
1.800000000000000000e+01,9.894344800000000051e-01
1.900000000000000000e+01,9.865583799999999570e-01
2.000000000000000000e+01,9.838826699999999592e-01
2.100000000000000000e+01,9.812030800000000053e-01
2.200000000000000000e+01,9.787840799999999453e-01
2.300000000000000000e+01,9.765700099999999884e-01
2.400000000000000000e+01,9.745994799999999625e-01
2.500000000000000000e+01,9.726780099999999818e-01
2.600000000000000000e+01,9.706076399999999937e-01
2.700000000000000000e+01,9.682969500000000451e-01
2.800000000000000000e+01,9.657781699999999914e-01
2.900000000000000000e+01,9.631705900000000486e-01
3.000000000000000000e+01,9.605818400000000201e-01
3.100000000000000000e+01,9.581000200000000522e-01
3.200000000000000000e+01,9.557738300000000464e-01
3.300000000000000000e+01,9.536172699999999613e-01
3.400000000000000000e+01,9.515934600000000021e-01
3.500000000000000000e+01,9.496231699999999609e-01
3.600000000000000000e+01,9.476101999999999581e-01
3.700000000000000000e+01,9.454885699999999726e-01
3.800000000000000000e+01,9.432504200000000338e-01
3.900000000000000000e+01,9.409359699999999549e-01
4.000000000000000000e+01,9.386061399999999777e-01
4.100000000000000000e+01,9.363190500000000416e-01
4.200000000000000000e+01,9.341175600000000134e-01
4.300000000000000000e+01,9.320220399999999961e-01
4.400000000000000000e+01,9.300273700000000199e-01
4.500000000000000000e+01,9.281044600000000200e-01
4.600000000000000000e+01,9.262075400000000514e-01
4.700000000000000000e+01,9.242905399999999938e-01
4.800000000000000000e+01,9.223222100000000312e-01
4.900000000000000000e+01,9.202962500000000379e-01
5.000000000000000000e+01,9.182272000000000212e-01
5.100000000000000000e+01,9.161431799999999459e-01
5.200000000000000000e+01,9.140750199999999603e-01
5.300000000000000000e+01,9.120485799999999976e-01
5.400000000000000000e+01,9.100802500000000350e-01
5.500000000000000000e+01,9.081738599999999995e-01
5.600000000000000000e+01,9.063209899999999930e-01
5.700000000000000000e+01,9.045024499999999579e-01
5.800000000000000000e+01,9.026946399999999926e-01
5.900000000000000000e+01,9.008753900000000536e-01
6.000000000000000000e+01,8.990304500000000365e-01
6.100000000000000000e+01,8.971562400000000492e-01
6.200000000000000000e+01,8.952592000000000327e-01
6.300000000000000000e+01,8.933523300000000278e-01
6.400000000000000000e+01,8.914505799999999924e-01
6.500000000000000000e+01,8.895687500000000192e-01
6.600000000000000000e+01,8.873395899999999559e-01
6.700000000000000000e+01,8.853672700000000395e-01
6.800000000000000000e+01,8.834756000000000276e-01
6.900000000000000000e+01,8.816611199999999648e-01
7.000000000000000000e+01,8.798815599999999515e-01
7.100000000000000000e+01,8.781021199999999860e-01
7.200000000000000000e+01,8.763079000000000285e-01
7.300000000000000000e+01,8.744904399999999800e-01
7.400000000000000000e+01,8.726526500000000297e-01
7.500000000000000000e+01,8.708032399999999784e-01
7.600000000000000000e+01,8.689522100000000027e-01
7.700000000000000000e+01,8.671104899999999560e-01
7.800000000000000000e+01,8.652852800000000455e-01
7.900000000000000000e+01,8.634805100000000344e-01
8.000000000000000000e+01,8.616955899999999557e-01
8.100000000000000000e+01,8.599261000000000266e-01
8.200000000000000000e+01,8.581649099999999475e-01
8.300000000000000000e+01,8.564034700000000555e-01
8.400000000000000000e+01,8.546338700000000177e-01
8.500000000000000000e+01,8.528507400000000516e-01
8.600000000000000000e+01,8.510515100000000110e-01
8.700000000000000000e+01,8.492374999999999785e-01
8.800000000000000000e+01,8.474119300000000354e-01
8.900000000000000000e+01,8.455797400000000241e-01
9.000000000000000000e+01,8.437459499999999668e-01
9.100000000000000000e+01,8.419147099999999551e-01
9.200000000000000000e+01,8.400883099999999493e-01
9.300000000000000000e+01,8.382672700000000088e-01
9.400000000000000000e+01,8.364494399999999885e-01
9.500000000000000000e+01,8.346311499999999883e-01
9.600000000000000000e+01,8.328083200000000463e-01
9.700000000000000000e+01,8.309763100000000513e-01
9.800000000000000000e+01,8.291315400000000002e-01
9.900000000000000000e+01,8.272722399999999920e-01
1.000000000000000000e+02,8.253980300000000048e-01
1.010000000000000000e+02,8.235105299999999628e-01
1.020000000000000000e+02,8.216116999999999448e-01
1.030000000000000000e+02,8.197039999999999882e-01
1.040000000000000000e+02,8.177896700000000241e-01
1.050000000000000000e+02,8.158696899999999808e-01
1.060000000000000000e+02,8.139442199999999961e-01
1.070000000000000000e+02,8.120119599999999771e-01
1.080000000000000000e+02,8.100706899999999822e-01
1.090000000000000000e+02,8.081174500000000149e-01
1.100000000000000000e+02,8.061495400000000533e-01
1.110000000000000000e+02,8.041645899999999569e-01
1.120000000000000000e+02,8.021612799999999766e-01
1.130000000000000000e+02,8.001391900000000001e-01
1.140000000000000000e+02,7.980986199999999808e-01
1.150000000000000000e+02,7.960405299999999684e-01
1.160000000000000000e+02,7.939657599999999649e-01
1.170000000000000000e+02,7.918749999999999956e-01
1.180000000000000000e+02,7.897683399999999576e-01
1.190000000000000000e+02,7.876448000000000338e-01
1.200000000000000000e+02,7.855031500000000388e-01
1.210000000000000000e+02,7.830776000000000403e-01
1.220000000000000000e+02,7.807682200000000128e-01
1.230000000000000000e+02,7.784839300000000462e-01
1.240000000000000000e+02,7.762033299999999691e-01
1.250000000000000000e+02,7.739121300000000314e-01
1.260000000000000000e+02,7.716040600000000360e-01
1.270000000000000000e+02,7.692755500000000302e-01
1.280000000000000000e+02,7.669242600000000243e-01
1.290000000000000000e+02,7.645481200000000532e-01
1.300000000000000000e+02,7.621448600000000351e-01
1.310000000000000000e+02,7.597121599999999697e-01
1.320000000000000000e+02,7.572474500000000441e-01
1.330000000000000000e+02,7.547481700000000515e-01
1.340000000000000000e+02,7.522123499999999741e-01
1.350000000000000000e+02,7.496385599999999538e-01
1.360000000000000000e+02,7.470260899999999760e-01
1.370000000000000000e+02,7.443748100000000534e-01
1.380000000000000000e+02,7.416852099999999837e-01
1.390000000000000000e+02,7.389580000000000037e-01
1.400000000000000000e+02,7.361939499999999859e-01
1.410000000000000000e+02,7.333939699999999506e-01
1.420000000000000000e+02,7.305586899999999551e-01
1.430000000000000000e+02,7.276891500000000068e-01
1.440000000000000000e+02,7.247864000000000528e-01
1.450000000000000000e+02,7.218518900000000516e-01
1.460000000000000000e+02,7.188873300000000466e-01
1.470000000000000000e+02,7.158950600000000275e-01
1.480000000000000000e+02,7.128778700000000246e-01
1.490000000000000000e+02,7.098386899999999944e-01
1.500000000000000000e+02,7.067809099999999844e-01
1.510000000000000000e+02,7.037077499999999652e-01
1.520000000000000000e+02,7.006225600000000053e-01
1.530000000000000000e+02,6.975284800000000063e-01
1.540000000000000000e+02,6.944286800000000204e-01
1.550000000000000000e+02,6.913260199999999855e-01
1.560000000000000000e+02,6.882232999999999823e-01
1.570000000000000000e+02,6.851233799999999485e-01
1.580000000000000000e+02,6.820290700000000150e-01
1.590000000000000000e+02,6.789427999999999574e-01
1.600000000000000000e+02,6.756521500000000069e-01
1.610000000000000000e+02,6.724673500000000193e-01
1.620000000000000000e+02,6.693449599999999888e-01
1.630000000000000000e+02,6.662670400000000326e-01
1.640000000000000000e+02,6.632246400000000319e-01
1.650000000000000000e+02,6.602128099999999833e-01
1.660000000000000000e+02,6.572292400000000478e-01
1.670000000000000000e+02,6.542726800000000509e-01
1.680000000000000000e+02,6.513427499999999704e-01
1.690000000000000000e+02,6.484398200000000001e-01
1.700000000000000000e+02,6.455641399999999530e-01
1.710000000000000000e+02,6.427162899999999679e-01
1.720000000000000000e+02,6.398970499999999673e-01
1.730000000000000000e+02,6.371074300000000301e-01
1.740000000000000000e+02,6.343484499999999526e-01
1.750000000000000000e+02,6.316214199999999890e-01
1.760000000000000000e+02,6.289277699999999971e-01
1.770000000000000000e+02,6.262691599999999914e-01
1.780000000000000000e+02,6.236474499999999921e-01
1.790000000000000000e+02,6.210645999999999667e-01
1.800000000000000000e+02,6.185228799999999971e-01
1.810000000000000000e+02,6.160247300000000203e-01
1.820000000000000000e+02,6.135728400000000082e-01
1.830000000000000000e+02,6.111702900000000049e-01
1.840000000000000000e+02,6.088203800000000498e-01
1.850000000000000000e+02,6.065270299999999670e-01
1.860000000000000000e+02,6.042944199999999988e-01
1.870000000000000000e+02,6.021274300000000190e-01
1.880000000000000000e+02,6.000313800000000031e-01
1.890000000000000000e+02,5.980125699999999656e-01
1.900000000000000000e+02,5.960777400000000226e-01
1.910000000000000000e+02,5.942345300000000385e-01
1.920000000000000000e+02,5.924915699999999674e-01
1.930000000000000000e+02,5.908583400000000374e-01
1.940000000000000000e+02,5.893450999999999551e-01
1.950000000000000000e+02,5.879627499999999785e-01
1.960000000000000000e+02,5.867223099999999691e-01
1.970000000000000000e+02,5.856344100000000497e-01
1.980000000000000000e+02,5.847075000000000466e-01
1.990000000000000000e+02,5.839465900000000431e-01
2.000000000000000000e+02,5.833507199999999893e-01
2.010000000000000000e+02,5.829107199999999933e-01
2.020000000000000000e+02,5.826083399999999468e-01
2.030000000000000000e+02,5.824174899999999822e-01
2.040000000000000000e+02,5.823084099999999985e-01
2.050000000000000000e+02,5.822528000000000148e-01
2.060000000000000000e+02,5.822283600000000003e-01
2.070000000000000000e+02,5.822197199999999961e-01
2.080000000000000000e+02,5.822176900000000099e-01
2.090000000000000000e+02,5.822175099999999937e-01
2.100000000000000000e+02,5.822175099999999937e-01
2.110000000000000000e+02,5.822175099999999937e-01
2.120000000000000000e+02,5.822175099999999937e-01
2.130000000000000000e+02,5.822175099999999937e-01
2.140000000000000000e+02,5.822175099999999937e-01
2.150000000000000000e+02,5.822175099999999937e-01
2.160000000000000000e+02,5.822175099999999937e-01
2.170000000000000000e+02,5.822175099999999937e-01
2.180000000000000000e+02,5.822175099999999937e-01
2.190000000000000000e+02,5.822175099999999937e-01
2.200000000000000000e+02,5.822175099999999937e-01
2.210000000000000000e+02,5.822175099999999937e-01
2.220000000000000000e+02,5.822175099999999937e-01
2.230000000000000000e+02,5.822175099999999937e-01
2.240000000000000000e+02,5.822175099999999937e-01
2.250000000000000000e+02,5.822175099999999937e-01
2.260000000000000000e+02,5.822175099999999937e-01
2.270000000000000000e+02,5.822175099999999937e-01
2.280000000000000000e+02,5.822175099999999937e-01
2.290000000000000000e+02,5.822175099999999937e-01
2.300000000000000000e+02,5.822175099999999937e-01
2.310000000000000000e+02,5.822175099999999937e-01
2.320000000000000000e+02,5.822175099999999937e-01
2.330000000000000000e+02,5.822175099999999937e-01
2.340000000000000000e+02,5.822175099999999937e-01
2.350000000000000000e+02,5.822175099999999937e-01
2.360000000000000000e+02,5.822175099999999937e-01
2.370000000000000000e+02,5.822175099999999937e-01
2.380000000000000000e+02,5.822175099999999937e-01
2.390000000000000000e+02,5.822175099999999937e-01
2.400000000000000000e+02,5.822175099999999937e-01
2.410000000000000000e+02,5.822175099999999937e-01
2.420000000000000000e+02,5.822175099999999937e-01
2.430000000000000000e+02,5.822175099999999937e-01
2.440000000000000000e+02,5.822175099999999937e-01
2.450000000000000000e+02,5.822175099999999937e-01
2.460000000000000000e+02,5.822175099999999937e-01
2.470000000000000000e+02,5.822175099999999937e-01
2.480000000000000000e+02,5.822175099999999937e-01
2.490000000000000000e+02,5.822175099999999937e-01
2.500000000000000000e+02,5.822175099999999937e-01
2.510000000000000000e+02,5.822175099999999937e-01
2.520000000000000000e+02,5.822175099999999937e-01
2.530000000000000000e+02,5.822175099999999937e-01
2.540000000000000000e+02,5.822175099999999937e-01
2.550000000000000000e+02,5.822175099999999937e-01
2.560000000000000000e+02,5.822175099999999937e-01
2.570000000000000000e+02,5.822175099999999937e-01
2.580000000000000000e+02,5.822175099999999937e-01
2.590000000000000000e+02,5.822175099999999937e-01
2.600000000000000000e+02,5.822175099999999937e-01
2.610000000000000000e+02,5.822175099999999937e-01
2.620000000000000000e+02,5.822175099999999937e-01
2.630000000000000000e+02,5.822175099999999937e-01
2.640000000000000000e+02,5.822175099999999937e-01
2.650000000000000000e+02,5.822175099999999937e-01
2.660000000000000000e+02,5.822175099999999937e-01
2.670000000000000000e+02,5.822175099999999937e-01
2.680000000000000000e+02,5.822175099999999937e-01
2.690000000000000000e+02,5.822175099999999937e-01
2.700000000000000000e+02,5.822175099999999937e-01
2.710000000000000000e+02,5.822175099999999937e-01
2.720000000000000000e+02,5.822175099999999937e-01
2.730000000000000000e+02,5.822175099999999937e-01
2.740000000000000000e+02,5.822175099999999937e-01
2.750000000000000000e+02,5.822175099999999937e-01
2.760000000000000000e+02,5.822175099999999937e-01
2.770000000000000000e+02,5.822175099999999937e-01
2.780000000000000000e+02,5.822175099999999937e-01
2.790000000000000000e+02,5.822175099999999937e-01
2.800000000000000000e+02,5.822175099999999937e-01
2.810000000000000000e+02,5.822175099999999937e-01
2.820000000000000000e+02,5.822175099999999937e-01
2.830000000000000000e+02,5.822175099999999937e-01
2.840000000000000000e+02,5.822175099999999937e-01
2.850000000000000000e+02,5.822175099999999937e-01
2.860000000000000000e+02,5.822175099999999937e-01
2.870000000000000000e+02,5.822175099999999937e-01
2.880000000000000000e+02,5.822175099999999937e-01
2.890000000000000000e+02,5.822175099999999937e-01
2.900000000000000000e+02,5.822175099999999937e-01
2.910000000000000000e+02,5.822175099999999937e-01
2.920000000000000000e+02,5.822175099999999937e-01
2.930000000000000000e+02,5.822175099999999937e-01
2.940000000000000000e+02,5.822175099999999937e-01
2.950000000000000000e+02,5.822175099999999937e-01
2.960000000000000000e+02,5.822175099999999937e-01
2.970000000000000000e+02,5.822175099999999937e-01
2.980000000000000000e+02,5.822175099999999937e-01
2.990000000000000000e+02,5.822175099999999937e-01
3.000000000000000000e+02,5.822175099999999937e-01
3.010000000000000000e+02,5.822175099999999937e-01
3.020000000000000000e+02,5.822175099999999937e-01
3.030000000000000000e+02,5.822175099999999937e-01
3.040000000000000000e+02,5.822175099999999937e-01
3.050000000000000000e+02,5.822175099999999937e-01
3.060000000000000000e+02,5.822175099999999937e-01
3.070000000000000000e+02,5.822175099999999937e-01
3.080000000000000000e+02,5.822175099999999937e-01
3.090000000000000000e+02,5.822175099999999937e-01
3.100000000000000000e+02,5.822175099999999937e-01
3.110000000000000000e+02,5.822175099999999937e-01
3.120000000000000000e+02,5.822175099999999937e-01
3.130000000000000000e+02,5.822175099999999937e-01
3.140000000000000000e+02,5.822175099999999937e-01
3.150000000000000000e+02,5.822175099999999937e-01
3.160000000000000000e+02,5.822175099999999937e-01
3.170000000000000000e+02,5.822175099999999937e-01
3.180000000000000000e+02,5.822175099999999937e-01
3.190000000000000000e+02,5.822175099999999937e-01
3.200000000000000000e+02,5.822175099999999937e-01
3.210000000000000000e+02,5.822175099999999937e-01
3.220000000000000000e+02,5.822175099999999937e-01
3.230000000000000000e+02,5.822175099999999937e-01
3.240000000000000000e+02,5.822175099999999937e-01
3.250000000000000000e+02,5.822175099999999937e-01
3.260000000000000000e+02,5.822175099999999937e-01
3.270000000000000000e+02,5.822175099999999937e-01
3.280000000000000000e+02,5.822175099999999937e-01
3.290000000000000000e+02,5.822175099999999937e-01
3.300000000000000000e+02,5.822175099999999937e-01
3.310000000000000000e+02,5.822175099999999937e-01
3.320000000000000000e+02,5.822175099999999937e-01
3.330000000000000000e+02,5.822175099999999937e-01
3.340000000000000000e+02,5.822175099999999937e-01
3.350000000000000000e+02,5.822175099999999937e-01
3.360000000000000000e+02,5.822175099999999937e-01
3.370000000000000000e+02,5.822175099999999937e-01
3.380000000000000000e+02,5.822175099999999937e-01
3.390000000000000000e+02,5.822175099999999937e-01
3.400000000000000000e+02,5.822175099999999937e-01
3.410000000000000000e+02,5.822175099999999937e-01
3.420000000000000000e+02,5.822175099999999937e-01
3.430000000000000000e+02,5.822175099999999937e-01
3.440000000000000000e+02,5.822175099999999937e-01
3.450000000000000000e+02,5.822175099999999937e-01
3.460000000000000000e+02,5.822175099999999937e-01
3.470000000000000000e+02,5.822175099999999937e-01
3.480000000000000000e+02,5.822175099999999937e-01
3.490000000000000000e+02,5.822175099999999937e-01
3.500000000000000000e+02,5.822175099999999937e-01
3.510000000000000000e+02,5.822175099999999937e-01
3.520000000000000000e+02,5.822175099999999937e-01
3.530000000000000000e+02,5.822175099999999937e-01
3.540000000000000000e+02,5.822175099999999937e-01
3.550000000000000000e+02,5.822175099999999937e-01
3.560000000000000000e+02,5.822175099999999937e-01
3.570000000000000000e+02,5.822175099999999937e-01
3.580000000000000000e+02,5.822175099999999937e-01
3.590000000000000000e+02,5.822175099999999937e-01
3.600000000000000000e+02,5.822175099999999937e-01
3.610000000000000000e+02,5.822175099999999937e-01
3.620000000000000000e+02,5.822175099999999937e-01
3.630000000000000000e+02,5.822175099999999937e-01
3.640000000000000000e+02,5.822175099999999937e-01
3.650000000000000000e+02,5.822175099999999937e-01
3.660000000000000000e+02,5.822175099999999937e-01
3.670000000000000000e+02,5.822175099999999937e-01
3.680000000000000000e+02,5.822175099999999937e-01
3.690000000000000000e+02,5.822175099999999937e-01
3.700000000000000000e+02,5.822175099999999937e-01
3.710000000000000000e+02,5.822175099999999937e-01
3.720000000000000000e+02,5.822175099999999937e-01
3.730000000000000000e+02,5.822175099999999937e-01
3.740000000000000000e+02,5.822175099999999937e-01
3.750000000000000000e+02,5.822175099999999937e-01
3.760000000000000000e+02,5.822175099999999937e-01
3.770000000000000000e+02,5.822175099999999937e-01
3.780000000000000000e+02,5.822175099999999937e-01
3.790000000000000000e+02,5.822175099999999937e-01
3.800000000000000000e+02,5.822175099999999937e-01
3.810000000000000000e+02,5.822175099999999937e-01
3.820000000000000000e+02,5.822175099999999937e-01
3.830000000000000000e+02,5.822175099999999937e-01
3.840000000000000000e+02,5.822175099999999937e-01
3.850000000000000000e+02,5.822175099999999937e-01
3.860000000000000000e+02,5.822175099999999937e-01
3.870000000000000000e+02,5.822175099999999937e-01
3.880000000000000000e+02,5.822175099999999937e-01
3.890000000000000000e+02,5.822175099999999937e-01
3.900000000000000000e+02,5.822175099999999937e-01
3.910000000000000000e+02,5.822175099999999937e-01
3.920000000000000000e+02,5.822175099999999937e-01
3.930000000000000000e+02,5.822175099999999937e-01
3.940000000000000000e+02,5.822175099999999937e-01
3.950000000000000000e+02,5.822175099999999937e-01
3.960000000000000000e+02,5.822175099999999937e-01
3.970000000000000000e+02,5.822175099999999937e-01
3.980000000000000000e+02,5.822175099999999937e-01
3.990000000000000000e+02,5.822175099999999937e-01
