# Time [s], Mass [Kg]
1.000000000000000000e+00,1.000000000000000000e+00
2.000000000000000000e+00,1.000000000000000000e+00
3.000000000000000000e+00,1.000000000000000000e+00
4.000000000000000000e+00,1.000000000000000000e+00
5.000000000000000000e+00,1.000000000000000000e+00
6.000000000000000000e+00,1.000000000000000000e+00
7.000000000000000000e+00,1.000000000000000000e+00
8.000000000000000000e+00,1.000000000000000000e+00
9.000000000000000000e+00,1.000000000000000000e+00
1.000000000000000000e+01,1.000000000000000000e+00
1.100000000000000000e+01,1.000000000000000000e+00
1.200000000000000000e+01,1.000000000000000000e+00
1.300000000000000000e+01,9.999999400000000316e-01
1.400000000000000000e+01,9.999998199999999837e-01
1.500000000000000000e+01,9.999996399999999674e-01
1.600000000000000000e+01,9.999992300000000167e-01
1.700000000000000000e+01,9.999984499999999832e-01
1.800000000000000000e+01,9.999970200000000142e-01
1.900000000000000000e+01,9.999944600000000294e-01
2.000000000000000000e+01,9.999899300000000268e-01
2.100000000000000000e+01,9.999825399999999753e-01
2.200000000000000000e+01,9.999707899999999983e-01
2.300000000000000000e+01,9.999528500000000042e-01
2.400000000000000000e+01,9.999262700000000059e-01
2.500000000000000000e+01,9.998878799999999512e-01
2.600000000000000000e+01,9.998340599999999689e-01
2.700000000000000000e+01,9.997600899999999902e-01
2.800000000000000000e+01,9.996606099999999495e-01
2.900000000000000000e+01,9.995296599999999865e-01
3.000000000000000000e+01,9.993606200000000328e-01
3.100000000000000000e+01,9.991465800000000064e-01
3.200000000000000000e+01,9.988806799999999653e-01
3.300000000000000000e+01,9.985563800000000212e-01
3.400000000000000000e+01,9.981681700000000212e-01
3.500000000000000000e+01,9.977115399999999523e-01
3.600000000000000000e+01,9.971836200000000483e-01
3.700000000000000000e+01,9.965831000000000550e-01
3.800000000000000000e+01,9.958644500000000122e-01
3.900000000000000000e+01,9.951260699999999737e-01
4.000000000000000000e+01,9.943156800000000350e-01
4.100000000000000000e+01,9.934443200000000473e-01
4.200000000000000000e+01,9.925119300000000422e-01
4.300000000000000000e+01,9.915249299999999710e-01
4.400000000000000000e+01,9.904882299999999695e-01
4.500000000000000000e+01,9.894077199999999905e-01
4.600000000000000000e+01,9.882893600000000056e-01
4.700000000000000000e+01,9.871388700000000016e-01
4.800000000000000000e+01,9.859616799999999515e-01
4.900000000000000000e+01,9.847630899999999521e-01
5.000000000000000000e+01,9.835481000000000362e-01
5.100000000000000000e+01,9.823209600000000208e-01
5.200000000000000000e+01,9.810856599999999705e-01
5.300000000000000000e+01,9.798457600000000101e-01
5.400000000000000000e+01,9.786040799999999873e-01
5.500000000000000000e+01,9.773627499999999468e-01
5.600000000000000000e+01,9.761234500000000036e-01
5.700000000000000000e+01,9.748868299999999820e-01
5.800000000000000000e+01,9.736533200000000443e-01
5.900000000000000000e+01,9.724226000000000258e-01
6.000000000000000000e+01,9.711936700000000089e-01
6.100000000000000000e+01,9.699655799999999939e-01
6.200000000000000000e+01,9.687369500000000411e-01
6.300000000000000000e+01,9.675065299999999757e-01
6.400000000000000000e+01,9.662731300000000356e-01
6.500000000000000000e+01,9.650360300000000446e-01
6.600000000000000000e+01,9.637947100000000544e-01
6.700000000000000000e+01,9.625493899999999492e-01
6.800000000000000000e+01,9.613003100000000467e-01
6.900000000000000000e+01,9.600484999999999713e-01
7.000000000000000000e+01,9.587948299999999868e-01
7.100000000000000000e+01,9.575404499999999874e-01
7.200000000000000000e+01,9.562866700000000053e-01
7.300000000000000000e+01,9.550344299999999897e-01
7.400000000000000000e+01,9.537847600000000092e-01
7.500000000000000000e+01,9.525381299999999829e-01
7.600000000000000000e+01,9.512950199999999912e-01
7.700000000000000000e+01,9.500552399999999675e-01
7.800000000000000000e+01,9.488187999999999622e-01
7.900000000000000000e+01,9.475850500000000398e-01
8.000000000000000000e+01,9.463531400000000371e-01
8.100000000000000000e+01,9.451224799999999870e-01
8.200000000000000000e+01,9.438922400000000490e-01
8.300000000000000000e+01,9.426614599999999511e-01
8.400000000000000000e+01,9.414296699999999962e-01
8.500000000000000000e+01,9.401963899999999930e-01
8.600000000000000000e+01,9.389613900000000069e-01
8.700000000000000000e+01,9.377244700000000321e-01
8.800000000000000000e+01,9.364858900000000430e-01
8.900000000000000000e+01,9.352459300000000031e-01
9.000000000000000000e+01,9.340049000000000268e-01
9.100000000000000000e+01,9.327632799999999724e-01
9.200000000000000000e+01,9.315217099999999473e-01
9.300000000000000000e+01,9.302803899999999571e-01
9.400000000000000000e+01,9.290395399999999970e-01
9.500000000000000000e+01,9.277994600000000203e-01
9.600000000000000000e+01,9.265600999999999976e-01
9.700000000000000000e+01,9.253213999999999606e-01
9.800000000000000000e+01,9.240829299999999691e-01
9.900000000000000000e+01,9.228442900000000115e-01
1.000000000000000000e+02,9.216052300000000530e-01
1.010000000000000000e+02,9.203651000000000471e-01
1.020000000000000000e+02,9.191234700000000535e-01
1.030000000000000000e+02,9.178800000000000292e-01
1.040000000000000000e+02,9.166341399999999862e-01
1.050000000000000000e+02,9.153857800000000378e-01
1.060000000000000000e+02,9.141345600000000404e-01
1.070000000000000000e+02,9.128804200000000257e-01
1.080000000000000000e+02,9.116235400000000100e-01
1.090000000000000000e+02,9.103638499999999745e-01
1.100000000000000000e+02,9.091014299999999881e-01
1.110000000000000000e+02,9.078365000000000462e-01
1.120000000000000000e+02,9.065689999999999582e-01
1.130000000000000000e+02,9.052994300000000161e-01
1.140000000000000000e+02,9.040275800000000528e-01
1.150000000000000000e+02,9.027533500000000100e-01
1.160000000000000000e+02,9.014769200000000149e-01
1.170000000000000000e+02,9.001979199999999848e-01
1.180000000000000000e+02,8.989161799999999536e-01
1.190000000000000000e+02,8.976315900000000347e-01
1.200000000000000000e+02,8.963435899999999679e-01
1.210000000000000000e+02,8.950520199999999482e-01
1.220000000000000000e+02,8.937567499999999887e-01
1.230000000000000000e+02,8.923079400000000216e-01
1.240000000000000000e+02,8.908851100000000356e-01
1.250000000000000000e+02,8.894727199999999945e-01
1.260000000000000000e+02,8.880767800000000101e-01
1.270000000000000000e+02,8.866924000000000472e-01
1.280000000000000000e+02,8.853153000000000272e-01
1.290000000000000000e+02,8.839433799999999453e-01
1.300000000000000000e+02,8.825740199999999591e-01
1.310000000000000000e+02,8.812059199999999759e-01
1.320000000000000000e+02,8.798373900000000525e-01
1.330000000000000000e+02,8.784675600000000362e-01
1.340000000000000000e+02,8.770953999999999695e-01
1.350000000000000000e+02,8.757201399999999802e-01
1.360000000000000000e+02,8.743410700000000535e-01
1.370000000000000000e+02,8.729574700000000131e-01
1.380000000000000000e+02,8.715687399999999529e-01
1.390000000000000000e+02,8.701744700000000332e-01
1.400000000000000000e+02,8.687740600000000146e-01
1.410000000000000000e+02,8.673671499999999757e-01
1.420000000000000000e+02,8.659533299999999656e-01
1.430000000000000000e+02,8.645324699999999973e-01
1.440000000000000000e+02,8.631042199999999776e-01
1.450000000000000000e+02,8.616685299999999881e-01
1.460000000000000000e+02,8.602252599999999916e-01
1.470000000000000000e+02,8.587742999999999904e-01
1.480000000000000000e+02,8.573156600000000349e-01
1.490000000000000000e+02,8.558492100000000269e-01
1.500000000000000000e+02,8.543747699999999501e-01
1.510000000000000000e+02,8.528923999999999950e-01
1.520000000000000000e+02,8.514019299999999735e-01
1.530000000000000000e+02,8.499031099999999617e-01
1.540000000000000000e+02,8.483957600000000543e-01
1.550000000000000000e+02,8.468798400000000504e-01
1.560000000000000000e+02,8.453548600000000413e-01
1.570000000000000000e+02,8.438208699999999451e-01
1.580000000000000000e+02,8.422773500000000357e-01
1.590000000000000000e+02,8.407241699999999929e-01
1.600000000000000000e+02,8.391610999999999931e-01
1.610000000000000000e+02,8.375878300000000332e-01
1.620000000000000000e+02,8.360041999999999751e-01
1.630000000000000000e+02,8.344100100000000353e-01
1.640000000000000000e+02,8.328049800000000280e-01
1.650000000000000000e+02,8.311888600000000293e-01
1.660000000000000000e+02,8.295615899999999598e-01
1.670000000000000000e+02,8.279228199999999482e-01
1.680000000000000000e+02,8.262723100000000098e-01
1.690000000000000000e+02,8.246098800000000173e-01
1.700000000000000000e+02,8.229352199999999673e-01
1.710000000000000000e+02,8.212481099999999756e-01
1.720000000000000000e+02,8.195482499999999781e-01
1.730000000000000000e+02,8.178353299999999715e-01
1.740000000000000000e+02,8.161089999999999733e-01
1.750000000000000000e+02,8.143690799999999674e-01
1.760000000000000000e+02,8.126152800000000509e-01
1.770000000000000000e+02,8.108473400000000275e-01
1.780000000000000000e+02,8.090649199999999652e-01
1.790000000000000000e+02,8.072679000000000382e-01
1.800000000000000000e+02,8.054559199999999919e-01
1.810000000000000000e+02,8.036288600000000004e-01
1.820000000000000000e+02,8.017864799999999681e-01
1.830000000000000000e+02,7.999286100000000399e-01
1.840000000000000000e+02,7.980551099999999565e-01
1.850000000000000000e+02,7.961658200000000241e-01
1.860000000000000000e+02,7.942606800000000522e-01
1.870000000000000000e+02,7.923394400000000060e-01
1.880000000000000000e+02,7.904022299999999834e-01
1.890000000000000000e+02,7.883313899999999652e-01
1.900000000000000000e+02,7.862771200000000515e-01
1.910000000000000000e+02,7.842275499999999955e-01
1.920000000000000000e+02,7.821769100000000030e-01
1.930000000000000000e+02,7.801216199999999601e-01
1.940000000000000000e+02,7.780592400000000408e-01
1.950000000000000000e+02,7.759880999999999585e-01
1.960000000000000000e+02,7.739070099999999508e-01
1.970000000000000000e+02,7.718151199999999656e-01
1.980000000000000000e+02,7.697120299999999915e-01
1.990000000000000000e+02,7.675973799999999958e-01
2.000000000000000000e+02,7.654710999999999599e-01
2.010000000000000000e+02,7.633332600000000134e-01
2.020000000000000000e+02,7.611840399999999507e-01
2.030000000000000000e+02,7.590236700000000392e-01
2.040000000000000000e+02,7.568525099999999783e-01
2.050000000000000000e+02,7.546711600000000075e-01
2.060000000000000000e+02,7.524800299999999664e-01
2.070000000000000000e+02,7.502798400000000312e-01
2.080000000000000000e+02,7.480712499999999654e-01
2.090000000000000000e+02,7.458549700000000060e-01
2.100000000000000000e+02,7.436315999999999482e-01
2.110000000000000000e+02,7.414019699999999657e-01
2.120000000000000000e+02,7.391668000000000127e-01
2.130000000000000000e+02,7.369269699999999590e-01
2.140000000000000000e+02,7.346832199999999702e-01
2.150000000000000000e+02,7.324363600000000085e-01
2.160000000000000000e+02,7.301871199999999673e-01
2.170000000000000000e+02,7.279363300000000203e-01
2.180000000000000000e+02,7.256846999999999603e-01
2.190000000000000000e+02,7.234330199999999822e-01
2.200000000000000000e+02,7.211819900000000505e-01
2.210000000000000000e+02,7.189323300000000083e-01
2.220000000000000000e+02,7.166846399999999839e-01
2.230000000000000000e+02,7.144396299999999922e-01
2.240000000000000000e+02,7.121980199999999872e-01
2.250000000000000000e+02,7.099603399999999676e-01
2.260000000000000000e+02,7.077270700000000136e-01
2.270000000000000000e+02,7.054988100000000317e-01
2.280000000000000000e+02,7.032760399999999912e-01
2.290000000000000000e+02,7.010593400000000308e-01
2.300000000000000000e+02,6.988490800000000114e-01
2.310000000000000000e+02,6.966457400000000133e-01
2.320000000000000000e+02,6.944497200000000481e-01
2.330000000000000000e+02,6.922613399999999473e-01
2.340000000000000000e+02,6.900810000000000555e-01
2.350000000000000000e+02,6.879090700000000114e-01
2.360000000000000000e+02,6.857458899999999691e-01
2.370000000000000000e+02,6.835182300000000044e-01
2.380000000000000000e+02,6.813148900000000063e-01
2.390000000000000000e+02,6.791322199999999532e-01
2.400000000000000000e+02,6.769679800000000247e-01
2.410000000000000000e+02,6.748205400000000242e-01
2.420000000000000000e+02,6.726889000000000340e-01
2.430000000000000000e+02,6.705722200000000521e-01
2.440000000000000000e+02,6.684700799999999665e-01
2.450000000000000000e+02,6.663819600000000509e-01
2.460000000000000000e+02,6.643076500000000273e-01
2.470000000000000000e+02,6.622468799999999822e-01
2.480000000000000000e+02,6.601996399999999765e-01
2.490000000000000000e+02,6.581658700000000417e-01
2.500000000000000000e+02,6.561453900000000505e-01
2.510000000000000000e+02,6.541383299999999901e-01
2.520000000000000000e+02,6.521447900000000297e-01
2.530000000000000000e+02,6.501647799999999977e-01
2.540000000000000000e+02,6.481984899999999605e-01
2.550000000000000000e+02,6.462460199999999766e-01
2.560000000000000000e+02,6.443076100000000306e-01
2.570000000000000000e+02,6.423834000000000488e-01
2.580000000000000000e+02,6.404735999999999763e-01
2.590000000000000000e+02,6.385785299999999776e-01
2.600000000000000000e+02,6.366983699999999580e-01
2.610000000000000000e+02,6.348335699999999582e-01
2.620000000000000000e+02,6.329843400000000342e-01
2.630000000000000000e+02,6.311510200000000070e-01
2.640000000000000000e+02,6.293340299999999887e-01
2.650000000000000000e+02,6.275337899999999802e-01
2.660000000000000000e+02,6.257507799999999509e-01
2.670000000000000000e+02,6.239852900000000258e-01
2.680000000000000000e+02,6.222379799999999683e-01
2.690000000000000000e+02,6.205092700000000017e-01
2.700000000000000000e+02,6.187998099999999502e-01
2.710000000000000000e+02,6.171100699999999550e-01
2.720000000000000000e+02,6.154408500000000393e-01
2.730000000000000000e+02,6.137927199999999583e-01
2.740000000000000000e+02,6.121664599999999679e-01
2.750000000000000000e+02,6.105627999999999611e-01
2.760000000000000000e+02,6.089824999999999822e-01
2.770000000000000000e+02,6.074265199999999698e-01
2.780000000000000000e+02,6.058957600000000054e-01
2.790000000000000000e+02,6.043912799999999752e-01
2.800000000000000000e+02,6.029140400000000399e-01
2.810000000000000000e+02,6.014652299999999618e-01
2.820000000000000000e+02,6.000459799999999788e-01
2.830000000000000000e+02,5.986575499999999828e-01
2.840000000000000000e+02,5.973013600000000034e-01
2.850000000000000000e+02,5.959788000000000308e-01
2.860000000000000000e+02,5.946913999999999811e-01
2.870000000000000000e+02,5.934407099999999824e-01
2.880000000000000000e+02,5.922284700000000068e-01
2.890000000000000000e+02,5.910564099999999765e-01
2.900000000000000000e+02,5.899263000000000146e-01
2.910000000000000000e+02,5.888401899999999856e-01
2.920000000000000000e+02,5.878000300000000289e-01
2.930000000000000000e+02,5.868077299999999719e-01
2.940000000000000000e+02,5.858653200000000227e-01
2.950000000000000000e+02,5.849748299999999457e-01
2.960000000000000000e+02,5.841382099999999911e-01
2.970000000000000000e+02,5.833571600000000412e-01
2.980000000000000000e+02,5.826333799999999785e-01
2.990000000000000000e+02,5.819681300000000279e-01
3.000000000000000000e+02,5.813623700000000172e-01
3.010000000000000000e+02,5.808165100000000081e-01
3.020000000000000000e+02,5.803303699999999843e-01
3.030000000000000000e+02,5.799031900000000128e-01
3.040000000000000000e+02,5.795332800000000395e-01
3.050000000000000000e+02,5.792180900000000188e-01
3.060000000000000000e+02,5.789525500000000102e-01
3.070000000000000000e+02,5.787354700000000296e-01
3.080000000000000000e+02,5.785617800000000255e-01
3.090000000000000000e+02,5.784259400000000273e-01
3.100000000000000000e+02,5.783223499999999850e-01
3.110000000000000000e+02,5.782454599999999889e-01
3.120000000000000000e+02,5.781899099999999736e-01
3.130000000000000000e+02,5.781511099999999681e-01
3.140000000000000000e+02,5.781249400000000316e-01
3.150000000000000000e+02,5.781079500000000371e-01
3.160000000000000000e+02,5.780974599999999519e-01
3.170000000000000000e+02,5.780912599999999957e-01
3.180000000000000000e+02,5.780879300000000276e-01
3.190000000000000000e+02,5.780861999999999945e-01
3.200000000000000000e+02,5.780854199999999610e-01
3.210000000000000000e+02,5.780850600000000394e-01
3.220000000000000000e+02,5.780849500000000418e-01
3.230000000000000000e+02,5.780849500000000418e-01
3.240000000000000000e+02,5.780849500000000418e-01
3.250000000000000000e+02,5.780849500000000418e-01
3.260000000000000000e+02,5.780849500000000418e-01
3.270000000000000000e+02,5.780849500000000418e-01
3.280000000000000000e+02,5.780849500000000418e-01
3.290000000000000000e+02,5.780849500000000418e-01
3.300000000000000000e+02,5.780849500000000418e-01
3.310000000000000000e+02,5.780849500000000418e-01
3.320000000000000000e+02,5.780849500000000418e-01
3.330000000000000000e+02,5.780849500000000418e-01
3.340000000000000000e+02,5.780849500000000418e-01
3.350000000000000000e+02,5.780849500000000418e-01
3.360000000000000000e+02,5.780849500000000418e-01
3.370000000000000000e+02,5.780849500000000418e-01
3.380000000000000000e+02,5.780849500000000418e-01
3.390000000000000000e+02,5.780849500000000418e-01
3.400000000000000000e+02,5.780849500000000418e-01
3.410000000000000000e+02,5.780849500000000418e-01
3.420000000000000000e+02,5.780849500000000418e-01
3.430000000000000000e+02,5.780849500000000418e-01
3.440000000000000000e+02,5.780849500000000418e-01
3.450000000000000000e+02,5.780849500000000418e-01
3.460000000000000000e+02,5.780849500000000418e-01
3.470000000000000000e+02,5.780849500000000418e-01
3.480000000000000000e+02,5.780849500000000418e-01
3.490000000000000000e+02,5.780849500000000418e-01
3.500000000000000000e+02,5.780849500000000418e-01
3.510000000000000000e+02,5.780849500000000418e-01
3.520000000000000000e+02,5.780849500000000418e-01
3.530000000000000000e+02,5.780849500000000418e-01
3.540000000000000000e+02,5.780849500000000418e-01
3.550000000000000000e+02,5.780849500000000418e-01
3.560000000000000000e+02,5.780849500000000418e-01
3.570000000000000000e+02,5.780849500000000418e-01
3.580000000000000000e+02,5.780849500000000418e-01
3.590000000000000000e+02,5.780849500000000418e-01
3.600000000000000000e+02,5.780849500000000418e-01
3.610000000000000000e+02,5.780849500000000418e-01
3.620000000000000000e+02,5.780849500000000418e-01
3.630000000000000000e+02,5.780849500000000418e-01
3.640000000000000000e+02,5.780849500000000418e-01
3.650000000000000000e+02,5.780849500000000418e-01
3.660000000000000000e+02,5.780849500000000418e-01
3.670000000000000000e+02,5.780849500000000418e-01
3.680000000000000000e+02,5.780849500000000418e-01
3.690000000000000000e+02,5.780849500000000418e-01
3.700000000000000000e+02,5.780849500000000418e-01
3.710000000000000000e+02,5.780849500000000418e-01
3.720000000000000000e+02,5.780849500000000418e-01
3.730000000000000000e+02,5.780849500000000418e-01
3.740000000000000000e+02,5.780849500000000418e-01
3.750000000000000000e+02,5.780849500000000418e-01
3.760000000000000000e+02,5.780849500000000418e-01
3.770000000000000000e+02,5.780849500000000418e-01
3.780000000000000000e+02,5.780849500000000418e-01
3.790000000000000000e+02,5.780849500000000418e-01
3.800000000000000000e+02,5.780849500000000418e-01
3.810000000000000000e+02,5.780849500000000418e-01
3.820000000000000000e+02,5.780849500000000418e-01
3.830000000000000000e+02,5.780849500000000418e-01
3.840000000000000000e+02,5.780849500000000418e-01
3.850000000000000000e+02,5.780849500000000418e-01
3.860000000000000000e+02,5.780849500000000418e-01
3.870000000000000000e+02,5.780849500000000418e-01
3.880000000000000000e+02,5.780849500000000418e-01
3.890000000000000000e+02,5.780849500000000418e-01
3.900000000000000000e+02,5.780849500000000418e-01
3.910000000000000000e+02,5.780849500000000418e-01
3.920000000000000000e+02,5.780849500000000418e-01
3.930000000000000000e+02,5.780849500000000418e-01
3.940000000000000000e+02,5.780849500000000418e-01
3.950000000000000000e+02,5.780849500000000418e-01
3.960000000000000000e+02,5.780849500000000418e-01
3.970000000000000000e+02,5.780849500000000418e-01
3.980000000000000000e+02,5.780849500000000418e-01
3.990000000000000000e+02,5.780849500000000418e-01
