# Time [s], Mass [Kg]
1.000000000000000000e+00,1.000000000000000000e+00
2.000000000000000000e+00,1.000000000000000000e+00
3.000000000000000000e+00,1.000000000000000000e+00
4.000000000000000000e+00,1.000000000000000000e+00
5.000000000000000000e+00,1.000000000000000000e+00
6.000000000000000000e+00,1.000000000000000000e+00
7.000000000000000000e+00,9.999997600000000153e-01
8.000000000000000000e+00,9.999982099999999985e-01
9.000000000000000000e+00,9.999910600000000427e-01
1.000000000000000000e+01,9.999637000000000109e-01
1.100000000000000000e+01,9.998784699999999637e-01
1.200000000000000000e+01,9.996596599999999500e-01
1.300000000000000000e+01,9.991839500000000429e-01
1.400000000000000000e+01,9.983092500000000369e-01
1.500000000000000000e+01,9.969544399999999973e-01
1.600000000000000000e+01,9.951616500000000087e-01
1.700000000000000000e+01,9.930481300000000289e-01
1.800000000000000000e+01,9.907303499999999818e-01
1.900000000000000000e+01,9.883153999999999550e-01
2.000000000000000000e+01,9.858828800000000170e-01
2.100000000000000000e+01,9.834904700000000055e-01
2.200000000000000000e+01,9.811829899999999771e-01
2.300000000000000000e+01,9.789666500000000493e-01
2.400000000000000000e+01,9.768115299999999834e-01
2.500000000000000000e+01,9.746654000000000151e-01
2.600000000000000000e+01,9.724631299999999534e-01
2.700000000000000000e+01,9.701597100000000085e-01
2.800000000000000000e+01,9.677558499999999730e-01
2.900000000000000000e+01,9.652952599999999883e-01
3.000000000000000000e+01,9.628371599999999697e-01
3.100000000000000000e+01,9.604336599999999668e-01
3.200000000000000000e+01,9.581136099999999489e-01
3.300000000000000000e+01,9.558734899999999923e-01
3.400000000000000000e+01,9.536850999999999523e-01
3.500000000000000000e+01,9.505472799999999944e-01
3.600000000000000000e+01,9.479781999999999931e-01
3.700000000000000000e+01,9.456899800000000411e-01
3.800000000000000000e+01,9.435254899999999667e-01
3.900000000000000000e+01,9.414407000000000192e-01
4.000000000000000000e+01,9.393785000000000052e-01
4.100000000000000000e+01,9.372969300000000281e-01
4.200000000000000000e+01,9.351729199999999631e-01
4.300000000000000000e+01,9.330040800000000134e-01
4.400000000000000000e+01,9.308078300000000027e-01
4.500000000000000000e+01,9.286094299999999579e-01
4.600000000000000000e+01,9.264330899999999591e-01
4.700000000000000000e+01,9.242939900000000097e-01
4.800000000000000000e+01,9.221939999999999582e-01
4.900000000000000000e+01,9.201236999999999888e-01
5.000000000000000000e+01,9.180651899999999754e-01
5.100000000000000000e+01,9.160010800000000231e-01
5.200000000000000000e+01,9.139196299999999829e-01
5.300000000000000000e+01,9.118180299999999461e-01
5.400000000000000000e+01,9.097029599999999494e-01
5.500000000000000000e+01,9.075866900000000292e-01
5.600000000000000000e+01,9.054833700000000096e-01
5.700000000000000000e+01,9.034036399999999523e-01
5.800000000000000000e+01,9.013527599999999751e-01
5.900000000000000000e+01,8.993287100000000311e-01
6.000000000000000000e+01,8.973240300000000502e-01
6.100000000000000000e+01,8.953290000000000415e-01
6.200000000000000000e+01,8.933333199999999863e-01
6.300000000000000000e+01,8.913303599999999882e-01
6.400000000000000000e+01,8.893188199999999544e-01
6.500000000000000000e+01,8.873013899999999676e-01
6.600000000000000000e+01,8.852844199999999608e-01
6.700000000000000000e+01,8.832750900000000405e-01
6.800000000000000000e+01,8.812796499999999700e-01
6.900000000000000000e+01,8.793007699999999538e-01
7.000000000000000000e+01,8.773382299999999967e-01
7.100000000000000000e+01,8.753886199999999507e-01
7.200000000000000000e+01,8.734458699999999576e-01
7.300000000000000000e+01,8.715042499999999803e-01
7.400000000000000000e+01,8.695588699999999838e-01
7.500000000000000000e+01,8.676073600000000496e-01
7.600000000000000000e+01,8.656504799999999999e-01
7.700000000000000000e+01,8.636903799999999798e-01
7.800000000000000000e+01,8.617308700000000377e-01
7.900000000000000000e+01,8.597759000000000373e-01
8.000000000000000000e+01,8.578278999999999765e-01
8.100000000000000000e+01,8.558878300000000161e-01
8.200000000000000000e+01,8.539542599999999650e-01
8.300000000000000000e+01,8.520245600000000419e-01
8.400000000000000000e+01,8.498811699999999636e-01
8.500000000000000000e+01,8.478529999999999678e-01
8.600000000000000000e+01,8.458644199999999502e-01
8.700000000000000000e+01,8.438939500000000038e-01
8.800000000000000000e+01,8.419309299999999663e-01
8.900000000000000000e+01,8.399720800000000098e-01
9.000000000000000000e+01,8.380157900000000382e-01
9.100000000000000000e+01,8.360621299999999589e-01
9.200000000000000000e+01,8.341109799999999463e-01
9.300000000000000000e+01,8.321607100000000257e-01
9.400000000000000000e+01,8.302095499999999628e-01
9.500000000000000000e+01,8.282545799999999625e-01
9.600000000000000000e+01,8.262927500000000203e-01
9.700000000000000000e+01,8.243215099999999795e-01
9.800000000000000000e+01,8.223397099999999460e-01
9.900000000000000000e+01,8.203470699999999560e-01
1.000000000000000000e+02,8.183437000000000072e-01
1.010000000000000000e+02,8.163305499999999881e-01
1.020000000000000000e+02,8.143089399999999811e-01
1.030000000000000000e+02,8.122795200000000326e-01
1.040000000000000000e+02,8.102424099999999685e-01
1.050000000000000000e+02,8.081971399999999806e-01
1.060000000000000000e+02,8.061426900000000506e-01
1.070000000000000000e+02,8.040774499999999714e-01
1.080000000000000000e+02,8.019999300000000275e-01
1.090000000000000000e+02,7.999089400000000127e-01
1.100000000000000000e+02,7.978031599999999557e-01
1.110000000000000000e+02,7.956824900000000200e-01
1.120000000000000000e+02,7.935467400000000282e-01
1.130000000000000000e+02,7.913960799999999463e-01
1.140000000000000000e+02,7.892302300000000326e-01
1.150000000000000000e+02,7.870491699999999646e-01
1.160000000000000000e+02,7.848523899999999554e-01
1.170000000000000000e+02,7.826388499999999970e-01
1.180000000000000000e+02,7.804071299999999489e-01
1.190000000000000000e+02,7.781559799999999694e-01
1.200000000000000000e+02,7.758839100000000100e-01
1.210000000000000000e+02,7.735898500000000233e-01
1.220000000000000000e+02,7.712725999999999749e-01
1.230000000000000000e+02,7.689315700000000087e-01
1.240000000000000000e+02,7.665660399999999486e-01
1.250000000000000000e+02,7.641751799999999539e-01
1.260000000000000000e+02,7.617579700000000065e-01
1.270000000000000000e+02,7.593132299999999502e-01
1.280000000000000000e+02,7.568398100000000017e-01
1.290000000000000000e+02,7.543360599999999749e-01
1.300000000000000000e+02,7.518007799999999463e-01
1.310000000000000000e+02,7.492324099999999598e-01
1.320000000000000000e+02,7.464532299999999676e-01
1.330000000000000000e+02,7.437192799999999826e-01
1.340000000000000000e+02,7.409899800000000480e-01
1.350000000000000000e+02,7.382479299999999967e-01
1.360000000000000000e+02,7.354833499999999802e-01
1.370000000000000000e+02,7.326904499999999931e-01
1.380000000000000000e+02,7.298653699999999578e-01
1.390000000000000000e+02,7.270056599999999980e-01
1.400000000000000000e+02,7.241103100000000348e-01
1.410000000000000000e+02,7.211790700000000331e-01
1.420000000000000000e+02,7.182125400000000104e-01
1.430000000000000000e+02,7.152119300000000512e-01
1.440000000000000000e+02,7.121791800000000228e-01
1.450000000000000000e+02,7.091165200000000279e-01
1.460000000000000000e+02,7.060266699999999673e-01
1.470000000000000000e+02,7.029128100000000545e-01
1.480000000000000000e+02,6.997783800000000332e-01
1.490000000000000000e+02,6.966267200000000326e-01
1.500000000000000000e+02,6.934613600000000266e-01
1.510000000000000000e+02,6.902861000000000136e-01
1.520000000000000000e+02,6.871044600000000280e-01
1.530000000000000000e+02,6.839200300000000121e-01
1.540000000000000000e+02,6.807362399999999925e-01
1.550000000000000000e+02,6.775565700000000247e-01
1.560000000000000000e+02,6.743839999999999835e-01
1.570000000000000000e+02,6.712214899999999762e-01
1.580000000000000000e+02,6.680718100000000437e-01
1.590000000000000000e+02,6.649374399999999907e-01
1.600000000000000000e+02,6.618206500000000103e-01
1.610000000000000000e+02,6.587236499999999939e-01
1.620000000000000000e+02,6.556484700000000387e-01
1.630000000000000000e+02,6.525968300000000166e-01
1.640000000000000000e+02,6.495706399999999769e-01
1.650000000000000000e+02,6.464430700000000085e-01
1.660000000000000000e+02,6.433890500000000179e-01
1.670000000000000000e+02,6.403935600000000283e-01
1.680000000000000000e+02,6.374489700000000036e-01
1.690000000000000000e+02,6.345512899999999901e-01
1.700000000000000000e+02,6.316985499999999698e-01
1.710000000000000000e+02,6.288898600000000227e-01
1.720000000000000000e+02,6.261251599999999584e-01
1.730000000000000000e+02,6.234049799999999975e-01
1.740000000000000000e+02,6.207305800000000318e-01
1.750000000000000000e+02,6.181035000000000279e-01
1.760000000000000000e+02,6.155256599999999745e-01
1.770000000000000000e+02,6.129995000000000305e-01
1.780000000000000000e+02,6.105277500000000357e-01
1.790000000000000000e+02,6.081135300000000132e-01
1.800000000000000000e+02,6.057601599999999920e-01
1.810000000000000000e+02,6.034715800000000074e-01
1.820000000000000000e+02,6.012518399999999819e-01
1.830000000000000000e+02,5.991054199999999996e-01
1.840000000000000000e+02,5.970370799999999978e-01
1.850000000000000000e+02,5.950520000000000254e-01
1.860000000000000000e+02,5.931554999999999467e-01
1.870000000000000000e+02,5.913532999999999706e-01
1.880000000000000000e+02,5.896509899999999860e-01
1.890000000000000000e+02,5.880541799999999819e-01
1.900000000000000000e+02,5.865684700000000085e-01
1.910000000000000000e+02,5.851989399999999453e-01
1.920000000000000000e+02,5.839499799999999796e-01
1.930000000000000000e+02,5.828250600000000059e-01
1.940000000000000000e+02,5.818261500000000419e-01
1.950000000000000000e+02,5.809534200000000537e-01
1.960000000000000000e+02,5.802047799999999755e-01
1.970000000000000000e+02,5.795759000000000327e-01
1.980000000000000000e+02,5.790596000000000076e-01
1.990000000000000000e+02,5.786464199999999947e-01
2.000000000000000000e+02,5.783247900000000330e-01
2.010000000000000000e+02,5.780817900000000398e-01
2.020000000000000000e+02,5.779038100000000178e-01
2.030000000000000000e+02,5.777778000000000080e-01
2.040000000000000000e+02,5.776915599999999928e-01
2.050000000000000000e+02,5.776347499999999746e-01
2.060000000000000000e+02,5.775988100000000181e-01
2.070000000000000000e+02,5.775770500000000363e-01
2.080000000000000000e+02,5.775646599999999520e-01
2.090000000000000000e+02,5.775579199999999469e-01
2.100000000000000000e+02,5.775546400000000080e-01
2.110000000000000000e+02,5.775531499999999596e-01
2.120000000000000000e+02,5.775525599999999926e-01
2.130000000000000000e+02,5.775523200000000079e-01
2.140000000000000000e+02,5.775522600000000395e-01
2.150000000000000000e+02,5.775522600000000395e-01
2.160000000000000000e+02,5.775522600000000395e-01
2.170000000000000000e+02,5.775522600000000395e-01
2.180000000000000000e+02,5.775522600000000395e-01
2.190000000000000000e+02,5.775522600000000395e-01
2.200000000000000000e+02,5.775522600000000395e-01
2.210000000000000000e+02,5.775522600000000395e-01
2.220000000000000000e+02,5.775522600000000395e-01
2.230000000000000000e+02,5.775522600000000395e-01
2.240000000000000000e+02,5.775522600000000395e-01
2.250000000000000000e+02,5.775522600000000395e-01
2.260000000000000000e+02,5.775522600000000395e-01
2.270000000000000000e+02,5.775522600000000395e-01
2.280000000000000000e+02,5.775522600000000395e-01
2.290000000000000000e+02,5.775522600000000395e-01
2.300000000000000000e+02,5.775522600000000395e-01
2.310000000000000000e+02,5.775522600000000395e-01
2.320000000000000000e+02,5.775522600000000395e-01
2.330000000000000000e+02,5.775522600000000395e-01
2.340000000000000000e+02,5.775522600000000395e-01
2.350000000000000000e+02,5.775522600000000395e-01
2.360000000000000000e+02,5.775522600000000395e-01
2.370000000000000000e+02,5.775522600000000395e-01
2.380000000000000000e+02,5.775522600000000395e-01
2.390000000000000000e+02,5.775522600000000395e-01
2.400000000000000000e+02,5.775522600000000395e-01
2.410000000000000000e+02,5.775522600000000395e-01
2.420000000000000000e+02,5.775522600000000395e-01
2.430000000000000000e+02,5.775522600000000395e-01
2.440000000000000000e+02,5.775522600000000395e-01
2.450000000000000000e+02,5.775522600000000395e-01
2.460000000000000000e+02,5.775522600000000395e-01
2.470000000000000000e+02,5.775522600000000395e-01
2.480000000000000000e+02,5.775522600000000395e-01
2.490000000000000000e+02,5.775522600000000395e-01
2.500000000000000000e+02,5.775522600000000395e-01
2.510000000000000000e+02,5.775522600000000395e-01
2.520000000000000000e+02,5.775522600000000395e-01
2.530000000000000000e+02,5.775522600000000395e-01
2.540000000000000000e+02,5.775522600000000395e-01
2.550000000000000000e+02,5.775522600000000395e-01
2.560000000000000000e+02,5.775522600000000395e-01
2.570000000000000000e+02,5.775522600000000395e-01
2.580000000000000000e+02,5.775522600000000395e-01
2.590000000000000000e+02,5.775522600000000395e-01
2.600000000000000000e+02,5.775522600000000395e-01
2.610000000000000000e+02,5.775522600000000395e-01
2.620000000000000000e+02,5.775522600000000395e-01
2.630000000000000000e+02,5.775522600000000395e-01
2.640000000000000000e+02,5.775522600000000395e-01
2.650000000000000000e+02,5.775522600000000395e-01
2.660000000000000000e+02,5.775522600000000395e-01
2.670000000000000000e+02,5.775522600000000395e-01
2.680000000000000000e+02,5.775522600000000395e-01
2.690000000000000000e+02,5.775522600000000395e-01
2.700000000000000000e+02,5.775522600000000395e-01
2.710000000000000000e+02,5.775522600000000395e-01
2.720000000000000000e+02,5.775522600000000395e-01
2.730000000000000000e+02,5.775522600000000395e-01
2.740000000000000000e+02,5.775522600000000395e-01
2.750000000000000000e+02,5.775522600000000395e-01
2.760000000000000000e+02,5.775522600000000395e-01
2.770000000000000000e+02,5.775522600000000395e-01
2.780000000000000000e+02,5.775522600000000395e-01
2.790000000000000000e+02,5.775522600000000395e-01
2.800000000000000000e+02,5.775522600000000395e-01
2.810000000000000000e+02,5.775522600000000395e-01
2.820000000000000000e+02,5.775522600000000395e-01
2.830000000000000000e+02,5.775522600000000395e-01
2.840000000000000000e+02,5.775522600000000395e-01
2.850000000000000000e+02,5.775522600000000395e-01
2.860000000000000000e+02,5.775522600000000395e-01
2.870000000000000000e+02,5.775522600000000395e-01
2.880000000000000000e+02,5.775522600000000395e-01
2.890000000000000000e+02,5.775522600000000395e-01
2.900000000000000000e+02,5.775522600000000395e-01
2.910000000000000000e+02,5.775522600000000395e-01
2.920000000000000000e+02,5.775522600000000395e-01
2.930000000000000000e+02,5.775522600000000395e-01
2.940000000000000000e+02,5.775522600000000395e-01
2.950000000000000000e+02,5.775522600000000395e-01
2.960000000000000000e+02,5.775522600000000395e-01
2.970000000000000000e+02,5.775522600000000395e-01
2.980000000000000000e+02,5.775522600000000395e-01
2.990000000000000000e+02,5.775522600000000395e-01
3.000000000000000000e+02,5.775522600000000395e-01
3.010000000000000000e+02,5.775522600000000395e-01
3.020000000000000000e+02,5.775522600000000395e-01
3.030000000000000000e+02,5.775522600000000395e-01
3.040000000000000000e+02,5.775522600000000395e-01
3.050000000000000000e+02,5.775522600000000395e-01
3.060000000000000000e+02,5.775522600000000395e-01
3.070000000000000000e+02,5.775522600000000395e-01
3.080000000000000000e+02,5.775522600000000395e-01
3.090000000000000000e+02,5.775522600000000395e-01
3.100000000000000000e+02,5.775522600000000395e-01
3.110000000000000000e+02,5.775522600000000395e-01
3.120000000000000000e+02,5.775522600000000395e-01
3.130000000000000000e+02,5.775522600000000395e-01
3.140000000000000000e+02,5.775522600000000395e-01
3.150000000000000000e+02,5.775522600000000395e-01
3.160000000000000000e+02,5.775522600000000395e-01
3.170000000000000000e+02,5.775522600000000395e-01
3.180000000000000000e+02,5.775522600000000395e-01
3.190000000000000000e+02,5.775522600000000395e-01
3.200000000000000000e+02,5.775522600000000395e-01
3.210000000000000000e+02,5.775522600000000395e-01
3.220000000000000000e+02,5.775522600000000395e-01
3.230000000000000000e+02,5.775522600000000395e-01
3.240000000000000000e+02,5.775522600000000395e-01
3.250000000000000000e+02,5.775522600000000395e-01
3.260000000000000000e+02,5.775522600000000395e-01
3.270000000000000000e+02,5.775522600000000395e-01
3.280000000000000000e+02,5.775522600000000395e-01
3.290000000000000000e+02,5.775522600000000395e-01
3.300000000000000000e+02,5.775522600000000395e-01
3.310000000000000000e+02,5.775522600000000395e-01
3.320000000000000000e+02,5.775522600000000395e-01
3.330000000000000000e+02,5.775522600000000395e-01
3.340000000000000000e+02,5.775522600000000395e-01
3.350000000000000000e+02,5.775522600000000395e-01
3.360000000000000000e+02,5.775522600000000395e-01
3.370000000000000000e+02,5.775522600000000395e-01
3.380000000000000000e+02,5.775522600000000395e-01
3.390000000000000000e+02,5.775522600000000395e-01
3.400000000000000000e+02,5.775522600000000395e-01
3.410000000000000000e+02,5.775522600000000395e-01
3.420000000000000000e+02,5.775522600000000395e-01
3.430000000000000000e+02,5.775522600000000395e-01
3.440000000000000000e+02,5.775522600000000395e-01
3.450000000000000000e+02,5.775522600000000395e-01
3.460000000000000000e+02,5.775522600000000395e-01
3.470000000000000000e+02,5.775522600000000395e-01
3.480000000000000000e+02,5.775522600000000395e-01
3.490000000000000000e+02,5.775522600000000395e-01
3.500000000000000000e+02,5.775522600000000395e-01
3.510000000000000000e+02,5.775522600000000395e-01
3.520000000000000000e+02,5.775522600000000395e-01
3.530000000000000000e+02,5.775522600000000395e-01
3.540000000000000000e+02,5.775522600000000395e-01
3.550000000000000000e+02,5.775522600000000395e-01
3.560000000000000000e+02,5.775522600000000395e-01
3.570000000000000000e+02,5.775522600000000395e-01
3.580000000000000000e+02,5.775522600000000395e-01
3.590000000000000000e+02,5.775522600000000395e-01
3.600000000000000000e+02,5.775522600000000395e-01
3.610000000000000000e+02,5.775522600000000395e-01
3.620000000000000000e+02,5.775522600000000395e-01
3.630000000000000000e+02,5.775522600000000395e-01
3.640000000000000000e+02,5.775522600000000395e-01
3.650000000000000000e+02,5.775522600000000395e-01
3.660000000000000000e+02,5.775522600000000395e-01
3.670000000000000000e+02,5.775522600000000395e-01
3.680000000000000000e+02,5.775522600000000395e-01
3.690000000000000000e+02,5.775522600000000395e-01
3.700000000000000000e+02,5.775522600000000395e-01
3.710000000000000000e+02,5.775522600000000395e-01
3.720000000000000000e+02,5.775522600000000395e-01
3.730000000000000000e+02,5.775522600000000395e-01
3.740000000000000000e+02,5.775522600000000395e-01
3.750000000000000000e+02,5.775522600000000395e-01
3.760000000000000000e+02,5.775522600000000395e-01
3.770000000000000000e+02,5.775522600000000395e-01
3.780000000000000000e+02,5.775522600000000395e-01
3.790000000000000000e+02,5.775522600000000395e-01
3.800000000000000000e+02,5.775522600000000395e-01
3.810000000000000000e+02,5.775522600000000395e-01
3.820000000000000000e+02,5.775522600000000395e-01
3.830000000000000000e+02,5.775522600000000395e-01
3.840000000000000000e+02,5.775522600000000395e-01
3.850000000000000000e+02,5.775522600000000395e-01
3.860000000000000000e+02,5.775522600000000395e-01
3.870000000000000000e+02,5.775522600000000395e-01
3.880000000000000000e+02,5.775522600000000395e-01
3.890000000000000000e+02,5.775522600000000395e-01
3.900000000000000000e+02,5.775522600000000395e-01
3.910000000000000000e+02,5.775522600000000395e-01
3.920000000000000000e+02,5.775522600000000395e-01
3.930000000000000000e+02,5.775522600000000395e-01
3.940000000000000000e+02,5.775522600000000395e-01
3.950000000000000000e+02,5.775522600000000395e-01
3.960000000000000000e+02,5.775522600000000395e-01
3.970000000000000000e+02,5.775522600000000395e-01
3.980000000000000000e+02,5.775522600000000395e-01
3.990000000000000000e+02,5.775522600000000395e-01
