# Time [s], Convective Heat Transfer Coefficient [W/m2K]
1.000000000000000000e+00,0.000000000000000000e+00
2.000000000000000000e+00,0.000000000000000000e+00
3.000000000000000000e+00,0.000000000000000000e+00
4.000000000000000000e+00,0.000000000000000000e+00
5.000000000000000000e+00,0.000000000000000000e+00
6.000000000000000000e+00,2.762023300960968902e-02
7.000000000000000000e+00,4.193564748117330210e-02
8.000000000000000000e+00,6.381471409830800912e-02
9.000000000000000000e+00,9.189834265936315527e-02
1.000000000000000000e+01,1.258808595825459120e-01
1.100000000000000000e+01,1.660192292041837159e-01
1.200000000000000000e+01,2.117348130749326651e-01
1.300000000000000000e+01,2.624219642530357666e-01
1.400000000000000000e+01,3.175137073711035152e-01
1.500000000000000000e+01,3.762998748531533044e-01
1.600000000000000000e+01,4.381513783797979511e-01
1.700000000000000000e+01,5.024638923704887183e-01
1.800000000000000000e+01,5.687058520932631867e-01
1.900000000000000000e+01,6.364148462603039791e-01
2.000000000000000000e+01,7.051944595026978790e-01
2.100000000000000000e+01,7.747009988638627886e-01
2.200000000000000000e+01,8.446434184755997610e-01
2.300000000000000000e+01,9.147767960772167362e-01
2.400000000000000000e+01,9.848962957325503309e-01
2.500000000000000000e+01,1.054831203162089892e+00
2.600000000000000000e+01,1.124439962683676963e+00
2.700000000000000000e+01,1.193602233654270872e+00
2.800000000000000000e+01,1.262221167955505763e+00
2.900000000000000000e+01,1.330222399815498724e+00
3.000000000000000000e+01,1.397541060423052484e+00
3.100000000000000000e+01,1.464126864656785987e+00
3.200000000000000000e+01,1.529939002361222711e+00
3.300000000000000000e+01,1.594946449052215831e+00
3.400000000000000000e+01,1.659130261936093254e+00
3.500000000000000000e+01,1.722469529151833489e+00
3.600000000000000000e+01,1.784955550485804121e+00
3.700000000000000000e+01,1.846583275442480243e+00
3.800000000000000000e+01,1.907347642579789726e+00
3.900000000000000000e+01,1.967251454011789358e+00
4.000000000000000000e+01,2.026294852902054355e+00
4.100000000000000000e+01,2.084486501583048046e+00
4.200000000000000000e+01,2.141830837529986376e+00
4.300000000000000000e+01,2.198339484896547180e+00
4.400000000000000000e+01,2.254023242623585332e+00
4.500000000000000000e+01,2.308888265447724741e+00
4.600000000000000000e+01,2.362951120287323903e+00
4.700000000000000000e+01,2.416222068209674667e+00
4.800000000000000000e+01,2.468715192632550792e+00
4.900000000000000000e+01,2.520443750809024053e+00
5.000000000000000000e+01,2.571422635728737305e+00
5.100000000000000000e+01,2.621662625778875988e+00
5.200000000000000000e+01,2.671178867551645020e+00
5.300000000000000000e+01,2.719984908197694118e+00
5.400000000000000000e+01,2.768095752175637969e+00
5.500000000000000000e+01,2.815523079679698615e+00
5.600000000000000000e+01,2.862283544867565865e+00
5.700000000000000000e+01,2.908388911134009991e+00
5.800000000000000000e+01,2.953851277771649908e+00
5.900000000000000000e+01,2.998685562271115934e+00
6.000000000000000000e+01,3.042902201801876760e+00
6.100000000000000000e+01,3.086516446621185406e+00
6.200000000000000000e+01,3.129540120016805371e+00
6.300000000000000000e+01,3.171985748425669716e+00
6.400000000000000000e+01,3.213864500231032206e+00
6.500000000000000000e+01,3.255188085323247549e+00
6.600000000000000000e+01,3.295968114059836473e+00
6.700000000000000000e+01,3.336216287364515143e+00
6.800000000000000000e+01,3.375942508263777064e+00
6.900000000000000000e+01,3.415157068308986688e+00
7.000000000000000000e+01,3.453872052090949829e+00
7.100000000000000000e+01,3.492097184663804033e+00
7.200000000000000000e+01,3.529842036559946550e+00
7.300000000000000000e+01,3.567116298042695810e+00
7.400000000000000000e+01,3.603930291584749757e+00
7.500000000000000000e+01,3.640293304520640039e+00
7.600000000000000000e+01,3.676212984041610010e+00
7.700000000000000000e+01,3.711698625316744771e+00
7.800000000000000000e+01,3.746759255509430009e+00
7.900000000000000000e+01,3.781403321268125062e+00
8.000000000000000000e+01,3.815638410384845081e+00
8.100000000000000000e+01,3.849473056949853422e+00
8.200000000000000000e+01,3.882914478745940201e+00
8.300000000000000000e+01,3.915970742735856991e+00
8.400000000000000000e+01,3.948649112259095428e+00
8.500000000000000000e+01,3.980956550082896062e+00
8.600000000000000000e+01,4.012900246194780252e+00
8.700000000000000000e+01,4.044486593769653027e+00
8.800000000000000000e+01,4.075723994448129162e+00
8.900000000000000000e+01,4.106617706274854562e+00
9.000000000000000000e+01,4.137173697437594555e+00
9.100000000000000000e+01,4.167398524008198102e+00
9.200000000000000000e+01,4.197298421602796203e+00
9.300000000000000000e+01,4.226878735883248694e+00
9.400000000000000000e+01,4.256145661681335568e+00
9.500000000000000000e+01,4.285104526102822220e+00
9.600000000000000000e+01,4.313762864018607424e+00
9.700000000000000000e+01,4.342124063900540953e+00
9.800000000000000000e+01,4.370193394440568646e+00
9.900000000000000000e+01,4.397975947317663170e+00
1.000000000000000000e+02,4.425476647104638062e+00
1.010000000000000000e+02,4.452700732829157459e+00
1.020000000000000000e+02,4.479652921563914703e+00
1.030000000000000000e+02,4.506339859765824407e+00
1.040000000000000000e+02,4.532763686248975077e+00
1.050000000000000000e+02,4.558928767625719303e+00
1.060000000000000000e+02,4.584839622093835665e+00
1.070000000000000000e+02,4.610500580151520644e+00
1.080000000000000000e+02,4.635916393726497553e+00
1.090000000000000000e+02,4.661091512764862443e+00
1.100000000000000000e+02,4.686030314509498140e+00
1.110000000000000000e+02,4.710734416961489757e+00
1.120000000000000000e+02,4.735208407325089297e+00
1.130000000000000000e+02,4.759456434414900627e+00
1.140000000000000000e+02,4.783482077389599851e+00
1.150000000000000000e+02,4.807289893623412524e+00
1.160000000000000000e+02,4.830882762689629573e+00
1.170000000000000000e+02,4.854262513837162452e+00
1.180000000000000000e+02,4.877433518458611950e+00
1.190000000000000000e+02,4.900399060886734048e+00
1.200000000000000000e+02,4.923162741327095304e+00
1.210000000000000000e+02,4.945727935136785547e+00
1.220000000000000000e+02,4.968097708318312655e+00
1.230000000000000000e+02,4.990273233204866266e+00
1.240000000000000000e+02,5.012258391209977404e+00
1.250000000000000000e+02,5.034056190788621876e+00
1.260000000000000000e+02,5.055670041718228980e+00
1.270000000000000000e+02,5.077103193433503137e+00
1.280000000000000000e+02,5.098356940660291770e+00
1.290000000000000000e+02,5.119433562602964116e+00
1.300000000000000000e+02,5.140336194069329068e+00
1.310000000000000000e+02,5.161067516748731876e+00
1.320000000000000000e+02,5.181630954682061585e+00
1.330000000000000000e+02,5.202028482541508403e+00
1.340000000000000000e+02,5.222261411847311408e+00
1.350000000000000000e+02,5.242332290523207483e+00
1.360000000000000000e+02,5.262243503287157509e+00
1.370000000000000000e+02,5.281997865396027336e+00
1.380000000000000000e+02,5.301597898945004772e+00
1.390000000000000000e+02,5.321045843910808593e+00
1.400000000000000000e+02,5.340342355124998441e+00
1.410000000000000000e+02,5.359489860019358787e+00
1.420000000000000000e+02,5.378490998623956187e+00
1.430000000000000000e+02,5.397347491287866283e+00
1.440000000000000000e+02,5.416061846813764014e+00
1.450000000000000000e+02,5.434636622236369341e+00
1.460000000000000000e+02,5.453071429659170910e+00
1.470000000000000000e+02,5.471369017778535238e+00
1.480000000000000000e+02,5.489531710591123215e+00
1.490000000000000000e+02,5.507560572667263621e+00
1.500000000000000000e+02,5.525458670888515833e+00
1.510000000000000000e+02,5.543227962626922967e+00
1.520000000000000000e+02,5.560867855031824014e+00
1.530000000000000000e+02,5.578380739761301221e+00
1.540000000000000000e+02,5.595768684909196544e+00
1.550000000000000000e+02,5.613033631050303285e+00
1.560000000000000000e+02,5.630176693725941206e+00
1.570000000000000000e+02,5.647200868080350489e+00
1.580000000000000000e+02,5.664105718647683751e+00
1.590000000000000000e+02,5.680892849378892606e+00
1.600000000000000000e+02,5.697564040713624323e+00
1.610000000000000000e+02,5.714120706861025134e+00
1.620000000000000000e+02,5.730564583780539678e+00
1.630000000000000000e+02,5.746897294849521387e+00
1.640000000000000000e+02,5.763120530452304102e+00
1.650000000000000000e+02,5.779234434063400982e+00
1.660000000000000000e+02,5.795240398662881098e+00
1.670000000000000000e+02,5.811140200508240206e+00
1.680000000000000000e+02,5.826934506385530455e+00
1.690000000000000000e+02,5.842625063982489486e+00
1.700000000000000000e+02,5.858213342872652163e+00
1.710000000000000000e+02,5.873701220656355915e+00
1.720000000000000000e+02,5.889088272225875720e+00
1.730000000000000000e+02,5.904376127603105928e+00
1.740000000000000000e+02,5.919566114015062830e+00
1.750000000000000000e+02,5.934659297016389168e+00
1.760000000000000000e+02,5.949656884045680272e+00
1.770000000000000000e+02,5.964559661599006191e+00
1.780000000000000000e+02,5.979369610092729381e+00
1.790000000000000000e+02,5.994087170406530163e+00
1.800000000000000000e+02,6.008713032388186548e+00
1.810000000000000000e+02,6.023248548291830318e+00
1.820000000000000000e+02,6.037694689390693092e+00
1.830000000000000000e+02,6.052052246910329281e+00
1.840000000000000000e+02,6.066322377102332020e+00
1.850000000000000000e+02,6.080505864576851494e+00
1.860000000000000000e+02,6.094604486152205070e+00
1.870000000000000000e+02,6.108618102069648614e+00
1.880000000000000000e+02,6.122548134856746316e+00
1.890000000000000000e+02,6.136395171377444058e+00
1.900000000000000000e+02,6.150160405296105637e+00
1.910000000000000000e+02,6.163844298769888930e+00
1.920000000000000000e+02,6.177448285813643913e+00
1.930000000000000000e+02,6.190972552102889104e+00
1.940000000000000000e+02,6.204418525317171529e+00
1.950000000000000000e+02,6.217786365573292784e+00
1.960000000000000000e+02,6.231077886965761259e+00
1.970000000000000000e+02,6.244293039984919247e+00
1.980000000000000000e+02,6.257432850765085597e+00
1.990000000000000000e+02,6.270498148214419309e+00
2.000000000000000000e+02,6.283489360644147759e+00
2.010000000000000000e+02,6.296407468921362494e+00
2.020000000000000000e+02,6.309253024803332721e+00
2.030000000000000000e+02,6.322027067633210429e+00
2.040000000000000000e+02,6.334730093612533253e+00
2.050000000000000000e+02,6.347362880243502481e+00
2.060000000000000000e+02,6.359926365039114238e+00
2.070000000000000000e+02,6.372420374060384418e+00
2.080000000000000000e+02,6.384846543824611587e+00
2.090000000000000000e+02,6.397205340070731161e+00
2.100000000000000000e+02,6.409496992194797294e+00
2.110000000000000000e+02,6.421722377737518528e+00
2.120000000000000000e+02,6.433882105211060853e+00
2.130000000000000000e+02,6.445976603738046151e+00
2.140000000000000000e+02,6.458007080746509310e+00
2.150000000000000000e+02,6.469973326389304447e+00
2.160000000000000000e+02,6.481876525837994230e+00
2.170000000000000000e+02,6.493717012992147986e+00
2.180000000000000000e+02,6.505495115786559701e+00
2.190000000000000000e+02,6.517211983120096974e+00
2.200000000000000000e+02,6.528867922495360077e+00
2.210000000000000000e+02,6.540463783272215892e+00
2.220000000000000000e+02,6.551999583716577646e+00
2.230000000000000000e+02,6.563476155987550520e+00
2.240000000000000000e+02,6.574894048831472659e+00
2.250000000000000000e+02,6.586253802392329604e+00
2.260000000000000000e+02,6.597555679463475542e+00
2.270000000000000000e+02,6.608800474293323290e+00
2.280000000000000000e+02,6.619988435163848273e+00
2.290000000000000000e+02,6.631120338481063747e+00
2.300000000000000000e+02,6.642196683990047035e+00
2.310000000000000000e+02,6.653217699416766884e+00
2.320000000000000000e+02,6.664183872136526077e+00
2.330000000000000000e+02,6.675095682214672976e+00
2.340000000000000000e+02,6.685953602556330644e+00
2.350000000000000000e+02,6.696758360076134231e+00
2.360000000000000000e+02,6.707510151096330198e+00
2.370000000000000000e+02,6.718209427925627253e+00
2.380000000000000000e+02,6.728856636273227387e+00
2.390000000000000000e+02,6.739452473107517605e+00
2.400000000000000000e+02,6.749997111993350174e+00
2.410000000000000000e+02,6.760490979639808273e+00
2.420000000000000000e+02,6.770934496662335711e+00
2.430000000000000000e+02,6.781328077701502366e+00
2.440000000000000000e+02,6.791671877759585030e+00
2.450000000000000000e+02,6.801966808198155690e+00
2.460000000000000000e+02,6.812213011862867873e+00
2.470000000000000000e+02,6.822410629127534598e+00
2.480000000000000000e+02,6.832560800932819589e+00
2.490000000000000000e+02,6.842663153912987184e+00
2.500000000000000000e+02,6.852718315471483024e+00
2.510000000000000000e+02,6.862726904941997219e+00
2.520000000000000000e+02,6.872689038087206548e+00
2.530000000000000000e+02,6.882605075745190426e+00
2.540000000000000000e+02,6.892475620319598484e+00
2.550000000000000000e+02,6.902300775235106656e+00
2.560000000000000000e+02,6.912081132092374958e+00
2.570000000000000000e+02,6.921816542174457965e+00
2.580000000000000000e+02,6.931507832332074237e+00
2.590000000000000000e+02,6.941155333611344957e+00
2.600000000000000000e+02,6.950759130455388402e+00
2.610000000000000000e+02,6.960319547366860427e+00
2.620000000000000000e+02,6.969837145628280162e+00
2.630000000000000000e+02,6.979311999155985546e+00
2.640000000000000000e+02,6.988744420116318246e+00
2.650000000000000000e+02,6.998134716700763924e+00
2.660000000000000000e+02,7.007483669971928286e+00
2.670000000000000000e+02,7.016790863315316429e+00
2.680000000000000000e+02,7.026057306706643857e+00
2.690000000000000000e+02,7.035282816382174786e+00
2.700000000000000000e+02,7.044467681709398299e+00
2.710000000000000000e+02,7.053612423752431582e+00
2.720000000000000000e+02,7.062717088277837618e+00
2.730000000000000000e+02,7.071782422242123722e+00
2.740000000000000000e+02,7.080808230516502100e+00
2.750000000000000000e+02,7.089795250953480732e+00
2.760000000000000000e+02,7.098743516520485741e+00
2.770000000000000000e+02,7.107653291045197719e+00
2.780000000000000000e+02,7.116524604055707748e+00
2.790000000000000000e+02,7.125358175961489238e+00
2.800000000000000000e+02,7.134154029545876519e+00
2.810000000000000000e+02,7.142911957430436054e+00
2.820000000000000000e+02,7.151632898126549343e+00
2.830000000000000000e+02,7.160317095559873835e+00
2.840000000000000000e+02,7.168964335275371802e+00
2.850000000000000000e+02,7.177575313287445802e+00
2.860000000000000000e+02,7.186150038426639242e+00
2.870000000000000000e+02,7.194689423543263018e+00
2.880000000000000000e+02,7.203192567509092648e+00
2.890000000000000000e+02,7.211660152778667232e+00
2.900000000000000000e+02,7.220092854946155825e+00
2.910000000000000000e+02,7.228490670764119663e+00
2.920000000000000000e+02,7.236853820091287304e+00
2.930000000000000000e+02,7.245182520320265773e+00
2.940000000000000000e+02,7.253476763921698378e+00
2.950000000000000000e+02,7.261736764985450066e+00
2.960000000000000000e+02,7.269963178193747488e+00
2.970000000000000000e+02,7.278155546964197420e+00
2.980000000000000000e+02,7.286314741341539225e+00
2.990000000000000000e+02,7.294440963179151360e+00
3.000000000000000000e+02,7.302534192620434794e+00
3.010000000000000000e+02,7.310594628610686208e+00
3.020000000000000000e+02,7.318622686492189722e+00
3.030000000000000000e+02,7.326618123359049939e+00
3.040000000000000000e+02,7.334581568421801201e+00
3.050000000000000000e+02,7.342513210791123512e+00
3.060000000000000000e+02,7.350413237567770430e+00
3.070000000000000000e+02,7.358281833871506805e+00
3.080000000000000000e+02,7.366118535647417254e+00
3.090000000000000000e+02,7.373924389383320843e+00
3.100000000000000000e+02,7.381699358204350858e+00
3.110000000000000000e+02,7.389443833946765849e+00
3.120000000000000000e+02,7.397157349079521715e+00
3.130000000000000000e+02,7.404840720538818033e+00
3.140000000000000000e+02,7.412493692895240294e+00
3.150000000000000000e+02,7.420116650307078565e+00
3.160000000000000000e+02,7.427709973433445967e+00
3.170000000000000000e+02,7.435273615996484509e+00
3.180000000000000000e+02,7.442807743072807902e+00
3.190000000000000000e+02,7.450312939851500005e+00
3.200000000000000000e+02,7.457788734143855791e+00
3.210000000000000000e+02,7.465235917505068208e+00
3.220000000000000000e+02,7.472653807435003515e+00
3.230000000000000000e+02,7.480043191041939821e+00
3.240000000000000000e+02,7.487404431288680939e+00
3.250000000000000000e+02,7.494737471181429633e+00
3.260000000000000000e+02,7.502042253861826104e+00
3.270000000000000000e+02,7.509319345372173160e+00
3.280000000000000000e+02,7.516568478309801904e+00
3.290000000000000000e+02,7.523790007403175828e+00
3.300000000000000000e+02,7.530983871562849430e+00
3.310000000000000000e+02,7.538150627879343091e+00
3.320000000000000000e+02,7.545290417688754303e+00
3.330000000000000000e+02,7.552403586201134722e+00
3.340000000000000000e+02,7.559489451527404036e+00
3.350000000000000000e+02,7.566548767823910282e+00
3.360000000000000000e+02,7.573581671094673951e+00
3.370000000000000000e+02,7.580588092351001173e+00
3.380000000000000000e+02,7.587568166163643824e+00
3.390000000000000000e+02,7.594522431752761982e+00
3.400000000000000000e+02,7.601451018948686134e+00
3.410000000000000000e+02,7.608353449707716543e+00
3.420000000000000000e+02,7.615230460314572625e+00
3.430000000000000000e+02,7.622081774010339927e+00
3.440000000000000000e+02,7.628907518023247292e+00
3.450000000000000000e+02,7.635708420731583068e+00
3.460000000000000000e+02,7.642484202982875452e+00
3.470000000000000000e+02,7.649235187544609182e+00
3.480000000000000000e+02,7.655961295228937757e+00
3.490000000000000000e+02,7.662662845882359797e+00
3.500000000000000000e+02,7.669339559814522644e+00
3.510000000000000000e+02,7.675991953721591265e+00
3.520000000000000000e+02,7.682619945485329893e+00
3.530000000000000000e+02,7.689224443261180042e+00
3.540000000000000000e+02,7.695804372227143197e+00
3.550000000000000000e+02,7.702360637812411426e+00
3.560000000000000000e+02,7.708892957167084781e+00
3.570000000000000000e+02,7.715401835716177104e+00
3.580000000000000000e+02,7.721887382612177220e+00
3.590000000000000000e+02,7.728349314068769793e+00
3.600000000000000000e+02,7.734788130622432867e+00
3.610000000000000000e+02,7.741203547895354475e+00
3.620000000000000000e+02,7.747596063237399022e+00
3.630000000000000000e+02,7.753965781103788757e+00
3.640000000000000000e+02,7.760312805047534290e+00
3.650000000000000000e+02,7.766637043666523077e+00
3.660000000000000000e+02,7.772938987181631454e+00
3.670000000000000000e+02,7.779218348685205342e+00
3.680000000000000000e+02,7.785475036031042961e+00
3.690000000000000000e+02,7.791710114344296834e+00
3.700000000000000000e+02,7.797923101669637980e+00
3.710000000000000000e+02,7.804113711119748054e+00
3.720000000000000000e+02,7.810282808814916322e+00
3.730000000000000000e+02,7.816429722422769011e+00
3.740000000000000000e+02,7.822555696614570842e+00
3.750000000000000000e+02,7.828659676081011654e+00
3.760000000000000000e+02,7.834742137515731564e+00
3.770000000000000000e+02,7.840803364046118773e+00
3.780000000000000000e+02,7.846843446741534223e+00
3.790000000000000000e+02,7.852862665745473869e+00
3.800000000000000000e+02,7.858860730693960406e+00
3.810000000000000000e+02,7.864837920544543337e+00
3.820000000000000000e+02,7.870794134450727952e+00
3.830000000000000000e+02,7.876729838015293694e+00
3.840000000000000000e+02,7.882644928675829554e+00
3.850000000000000000e+02,7.888539680526004183e+00
3.860000000000000000e+02,7.894413802348239528e+00
3.870000000000000000e+02,7.900267754687532396e+00
3.880000000000000000e+02,7.906101433353683205e+00
3.890000000000000000e+02,7.911915108596748070e+00
3.900000000000000000e+02,7.917708675449111055e+00
3.910000000000000000e+02,7.923482402293881677e+00
3.920000000000000000e+02,7.929236555779595186e+00
3.930000000000000000e+02,7.934970843091520898e+00
3.940000000000000000e+02,7.940685529882174798e+00
3.950000000000000000e+02,7.946380694724311411e+00
3.960000000000000000e+02,7.952056230454966901e+00
3.970000000000000000e+02,7.957712584920280108e+00
3.980000000000000000e+02,7.963349649478104197e+00
