# Time [s], Convective Heat Transfer Coefficient [W/m2K]
1.000000000000000000e+00,0.000000000000000000e+00
2.000000000000000000e+00,0.000000000000000000e+00
3.000000000000000000e+00,0.000000000000000000e+00
4.000000000000000000e+00,0.000000000000000000e+00
5.000000000000000000e+00,1.915079995362458862e-02
6.000000000000000000e+00,3.908348017778424249e-02
7.000000000000000000e+00,6.438451848066449601e-02
8.000000000000000000e+00,9.991170446199730548e-02
9.000000000000000000e+00,1.463729214254058664e-01
1.000000000000000000e+01,2.040432398410201298e-01
1.100000000000000000e+01,2.731300574740750942e-01
1.200000000000000000e+01,3.532304732827454830e-01
1.300000000000000000e+01,4.435778598425230146e-01
1.400000000000000000e+01,5.431868954263159299e-01
1.500000000000000000e+01,6.509891156719275207e-01
1.600000000000000000e+01,7.658643921672469990e-01
1.700000000000000000e+01,8.867405580143463695e-01
1.800000000000000000e+01,1.020170085654215297e+00
1.900000000000000000e+01,1.153363749397175786e+00
2.000000000000000000e+01,1.288636381019986121e+00
2.100000000000000000e+01,1.425855199369167714e+00
2.200000000000000000e+01,1.564505572508855913e+00
2.300000000000000000e+01,1.704124167313183946e+00
2.400000000000000000e+01,1.844283402952952677e+00
2.500000000000000000e+01,1.984578733395461869e+00
2.600000000000000000e+01,2.124669920772803700e+00
2.700000000000000000e+01,2.264257624277108416e+00
2.800000000000000000e+01,2.403064875679923329e+00
2.900000000000000000e+01,2.540877593400054035e+00
3.000000000000000000e+01,2.677505459234074792e+00
3.100000000000000000e+01,2.812777438802128493e+00
3.200000000000000000e+01,2.946570575481813226e+00
3.300000000000000000e+01,3.078768881738061847e+00
3.400000000000000000e+01,3.209298196521767732e+00
3.500000000000000000e+01,3.338110520543609461e+00
3.600000000000000000e+01,3.465148576678481085e+00
3.700000000000000000e+01,3.590378404843617588e+00
3.800000000000000000e+01,3.713794578757382503e+00
3.900000000000000000e+01,3.835386928566011377e+00
4.000000000000000000e+01,3.955136594724252497e+00
4.100000000000000000e+01,4.073060699378576288e+00
4.200000000000000000e+01,4.189177218427216687e+00
4.300000000000000000e+01,4.303483525474311122e+00
4.400000000000000000e+01,4.416001103505640124e+00
4.500000000000000000e+01,4.526751646775270643e+00
4.600000000000000000e+01,4.635768237092571908e+00
4.700000000000000000e+01,4.743058433672136864e+00
4.800000000000000000e+01,4.848657845761856322e+00
4.900000000000000000e+01,4.952607672117605553e+00
5.000000000000000000e+01,5.054912557022073649e+00
5.100000000000000000e+01,5.155611605040762768e+00
5.200000000000000000e+01,5.254731616179191711e+00
5.300000000000000000e+01,5.352287924921889761e+00
5.400000000000000000e+01,5.448322486620682525e+00
5.500000000000000000e+01,5.542860269802695861e+00
5.600000000000000000e+01,5.635938965531395617e+00
5.700000000000000000e+01,5.727571189256091877e+00
5.800000000000000000e+01,5.817786371726536565e+00
5.900000000000000000e+01,5.906624561637760173e+00
6.000000000000000000e+01,5.994091894636823348e+00
6.100000000000000000e+01,6.080235559206876417e+00
6.200000000000000000e+01,6.165101655998024732e+00
6.300000000000000000e+01,6.248665987164167213e+00
6.400000000000000000e+01,6.330973979818573127e+00
6.500000000000000000e+01,6.412049143390618156e+00
6.600000000000000000e+01,6.491914875095276649e+00
6.700000000000000000e+01,6.570598686446468939e+00
6.800000000000000000e+01,6.648132377848869901e+00
6.900000000000000000e+01,6.724542206750022899e+00
7.000000000000000000e+01,6.799852491859044612e+00
7.100000000000000000e+01,6.874080576788870189e+00
7.200000000000000000e+01,6.947259108455589249e+00
7.300000000000000000e+01,7.019394519809457833e+00
7.400000000000000000e+01,7.090522710063996925e+00
7.500000000000000000e+01,7.160646546952058600e+00
7.600000000000000000e+01,7.229796106126987532e+00
7.700000000000000000e+01,7.297987201754931874e+00
7.800000000000000000e+01,7.365223750237200662e+00
7.900000000000000000e+01,7.431534415663047177e+00
8.000000000000000000e+01,7.496930650800382345e+00
8.100000000000000000e+01,7.561424123549004506e+00
8.200000000000000000e+01,7.625028694454094591e+00
8.300000000000000000e+01,7.687763391478597441e+00
8.400000000000000000e+01,7.749638927236918384e+00
8.500000000000000000e+01,7.810669469075755877e+00
8.600000000000000000e+01,7.870869718163858053e+00
8.700000000000000000e+01,7.930249091520837013e+00
8.800000000000000000e+01,7.988820722579670353e+00
8.900000000000000000e+01,8.046593592115078408e+00
9.000000000000000000e+01,8.103584400798206744e+00
9.100000000000000000e+01,8.159797691536875064e+00
9.200000000000000000e+01,8.215250255943027824e+00
9.300000000000000000e+01,8.269947209629746609e+00
9.400000000000000000e+01,8.323899136082809846e+00
9.500000000000000000e+01,8.377119896966078727e+00
9.600000000000000000e+01,8.429619012532183930e+00
9.700000000000000000e+01,8.481404693112763127e+00
9.800000000000000000e+01,8.532484879468954730e+00
9.900000000000000000e+01,8.582867732068937272e+00
1.000000000000000000e+02,8.632559573427409205e+00
1.010000000000000000e+02,8.681563591441699757e+00
1.020000000000000000e+02,8.729898440926890046e+00
1.030000000000000000e+02,8.777565645317874754e+00
1.040000000000000000e+02,8.824570357773554363e+00
1.050000000000000000e+02,8.870915810156244419e+00
1.060000000000000000e+02,8.916614745240446283e+00
1.070000000000000000e+02,8.961673630689327652e+00
1.080000000000000000e+02,9.006095281443114331e+00
1.090000000000000000e+02,9.049883465963471707e+00
1.100000000000000000e+02,9.093047670710889818e+00
1.110000000000000000e+02,9.135592592598214878e+00
1.120000000000000000e+02,9.177523224271931568e+00
1.130000000000000000e+02,9.218842497822373971e+00
1.140000000000000000e+02,9.259559565989727403e+00
1.150000000000000000e+02,9.299675184109586823e+00
1.160000000000000000e+02,9.339203810160816133e+00
1.170000000000000000e+02,9.378166244665161244e+00
1.180000000000000000e+02,9.416569578279837316e+00
1.190000000000000000e+02,9.454404740781249927e+00
1.200000000000000000e+02,9.491657661141788438e+00
1.210000000000000000e+02,9.528310221158550419e+00
1.220000000000000000e+02,9.564349220260831785e+00
1.230000000000000000e+02,9.599765410378626740e+00
1.240000000000000000e+02,9.634547030435864912e+00
1.250000000000000000e+02,9.668684138527249061e+00
1.260000000000000000e+02,9.702162936245823488e+00
1.270000000000000000e+02,9.734968600638318037e+00
1.280000000000000000e+02,9.767089224502365497e+00
1.290000000000000000e+02,9.798506556889019947e+00
1.300000000000000000e+02,9.829204300097568847e+00
1.310000000000000000e+02,9.859162001600672909e+00
1.320000000000000000e+02,9.888356467810059058e+00
1.330000000000000000e+02,9.916767762041319045e+00
1.340000000000000000e+02,9.944376472809695500e+00
1.350000000000000000e+02,9.971163312873146722e+00
1.360000000000000000e+02,9.997105451203831095e+00
1.370000000000000000e+02,1.002219090172273397e+01
1.380000000000000000e+02,1.004640047591119334e+01
1.390000000000000000e+02,1.006972339460939025e+01
1.400000000000000000e+02,1.009215258221930789e+01
1.410000000000000000e+02,1.011368307699813940e+01
1.420000000000000000e+02,1.013431710004618580e+01
1.430000000000000000e+02,1.015405947458786251e+01
1.440000000000000000e+02,1.017292572094564385e+01
1.450000000000000000e+02,1.019093353042545402e+01
1.460000000000000000e+02,1.020811072582928425e+01
1.470000000000000000e+02,1.022448874122742701e+01
1.480000000000000000e+02,1.024010495064960757e+01
1.490000000000000000e+02,1.025500039907118932e+01
1.500000000000000000e+02,1.026922446346786266e+01
1.510000000000000000e+02,1.028282903775913937e+01
1.520000000000000000e+02,1.029646451055740997e+01
1.530000000000000000e+02,1.030946396702103840e+01
1.540000000000000000e+02,1.032196741645665838e+01
1.550000000000000000e+02,1.033396822231766876e+01
1.560000000000000000e+02,1.034548373504053487e+01
1.570000000000000000e+02,1.035661265464206160e+01
1.580000000000000000e+02,1.036746166862729446e+01
1.590000000000000000e+02,1.037812228127416425e+01
1.600000000000000000e+02,1.038865474229525532e+01
1.610000000000000000e+02,1.039911772023119418e+01
1.620000000000000000e+02,1.040954780264286050e+01
1.630000000000000000e+02,1.041998990887503140e+01
1.640000000000000000e+02,1.043047805431440445e+01
1.650000000000000000e+02,1.044104351042311052e+01
1.660000000000000000e+02,1.045171814993349990e+01
1.670000000000000000e+02,1.046252406134513002e+01
1.680000000000000000e+02,1.047349754728293725e+01
1.690000000000000000e+02,1.048465936313474955e+01
1.700000000000000000e+02,1.049603580464436803e+01
1.710000000000000000e+02,1.050764708184828322e+01
1.720000000000000000e+02,1.051952430095035318e+01
1.730000000000000000e+02,1.053169170350245842e+01
1.740000000000000000e+02,1.054417589023180746e+01
1.750000000000000000e+02,1.055700682794515544e+01
1.760000000000000000e+02,1.057020228368232928e+01
1.770000000000000000e+02,1.058379816080071301e+01
1.780000000000000000e+02,1.059783354996524452e+01
1.790000000000000000e+02,1.061233464864602638e+01
1.800000000000000000e+02,1.062733843535543166e+01
1.810000000000000000e+02,1.064289755098531565e+01
1.820000000000000000e+02,1.065904973173161885e+01
1.830000000000000000e+02,1.067584520038187001e+01
1.840000000000000000e+02,1.069335102282147787e+01
1.850000000000000000e+02,1.071161137329244895e+01
1.860000000000000000e+02,1.073070456935881722e+01
1.870000000000000000e+02,1.075071421281457340e+01
1.880000000000000000e+02,1.077787606822987598e+01
1.890000000000000000e+02,1.080091392867944045e+01
1.900000000000000000e+02,1.082379147933447783e+01
1.910000000000000000e+02,1.084823044738621256e+01
1.920000000000000000e+02,1.087430048026691409e+01
1.930000000000000000e+02,1.090213210027753199e+01
1.940000000000000000e+02,1.093182950039884815e+01
1.950000000000000000e+02,1.096350764529521271e+01
1.960000000000000000e+02,1.099734186930832358e+01
1.970000000000000000e+02,1.103344917696015592e+01
1.980000000000000000e+02,1.107199777757314330e+01
1.990000000000000000e+02,1.111302587163872602e+01
2.000000000000000000e+02,1.115657321814789604e+01
2.010000000000000000e+02,1.120247823317709823e+01
2.020000000000000000e+02,1.125045202447397052e+01
2.030000000000000000e+02,1.130000882561432363e+01
2.040000000000000000e+02,1.135043648361546609e+01
2.050000000000000000e+02,1.140093786417426713e+01
2.060000000000000000e+02,1.145075347137926336e+01
2.070000000000000000e+02,1.149925418105872943e+01
2.080000000000000000e+02,1.154605439657184007e+01
2.090000000000000000e+02,1.159097833282288015e+01
2.100000000000000000e+02,1.163400966694016603e+01
2.110000000000000000e+02,1.167519495260999740e+01
2.120000000000000000e+02,1.171468902845373705e+01
2.130000000000000000e+02,1.175279240215140675e+01
2.140000000000000000e+02,1.178964700264709009e+01
2.150000000000000000e+02,1.182539941725541688e+01
2.160000000000000000e+02,1.186014623774820187e+01
2.170000000000000000e+02,1.189395704884338834e+01
2.180000000000000000e+02,1.192691003154664919e+01
2.190000000000000000e+02,1.195906644625680570e+01
2.200000000000000000e+02,1.199047018835943135e+01
2.210000000000000000e+02,1.202117097781317767e+01
2.220000000000000000e+02,1.205120305915547263e+01
2.230000000000000000e+02,1.208060647876268945e+01
2.240000000000000000e+02,1.210941484271778634e+01
2.250000000000000000e+02,1.213765271849814908e+01
2.260000000000000000e+02,1.216534472547075652e+01
2.270000000000000000e+02,1.219251752031286706e+01
2.280000000000000000e+02,1.221918934244443378e+01
2.290000000000000000e+02,1.224537981398976605e+01
2.300000000000000000e+02,1.227111660794500203e+01
2.310000000000000000e+02,1.229640664938844807e+01
2.320000000000000000e+02,1.232127117163079077e+01
2.330000000000000000e+02,1.234572354783897552e+01
2.340000000000000000e+02,1.236977779436949199e+01
2.350000000000000000e+02,1.239344582173236731e+01
2.360000000000000000e+02,1.241673550698756578e+01
2.370000000000000000e+02,1.243966302856627237e+01
2.380000000000000000e+02,1.246223628821379315e+01
2.390000000000000000e+02,1.248447001168595705e+01
2.400000000000000000e+02,1.250637036490332221e+01
2.410000000000000000e+02,1.252794211863103158e+01
2.420000000000000000e+02,1.254919893234760231e+01
2.430000000000000000e+02,1.257014794656088164e+01
2.440000000000000000e+02,1.259079565483322405e+01
2.450000000000000000e+02,1.261114769607380914e+01
2.460000000000000000e+02,1.263121261234170767e+01
2.470000000000000000e+02,1.265099653932403179e+01
2.480000000000000000e+02,1.267050696513948438e+01
2.490000000000000000e+02,1.268974500628864277e+01
2.500000000000000000e+02,1.270872050820809918e+01
2.510000000000000000e+02,1.272743833138827085e+01
2.520000000000000000e+02,1.274590116497114067e+01
2.530000000000000000e+02,1.276411516353296882e+01
2.540000000000000000e+02,1.278208352243768609e+01
2.550000000000000000e+02,1.279981402295411819e+01
2.560000000000000000e+02,1.281730849610370804e+01
2.570000000000000000e+02,1.283457193008196917e+01
2.580000000000000000e+02,1.285160902685319506e+01
2.590000000000000000e+02,1.286842166246614028e+01
2.600000000000000000e+02,1.288501442437497779e+01
2.610000000000000000e+02,1.290139239727198905e+01
2.620000000000000000e+02,1.291755680860619648e+01
2.630000000000000000e+02,1.293351515469256441e+01
2.640000000000000000e+02,1.294926800041735149e+01
2.650000000000000000e+02,1.296481435720164832e+01
2.660000000000000000e+02,1.298016441593282444e+01
2.670000000000000000e+02,1.299531543286011903e+01
2.680000000000000000e+02,1.301027712323432084e+01
2.690000000000000000e+02,1.302504529917162834e+01
2.700000000000000000e+02,1.303962584825325344e+01
2.710000000000000000e+02,1.305402376759614036e+01
2.720000000000000000e+02,1.306823974771791619e+01
2.730000000000000000e+02,1.308227466576430587e+01
2.740000000000000000e+02,1.309613197249318262e+01
2.750000000000000000e+02,1.310981541791508675e+01
2.760000000000000000e+02,1.312332802942438015e+01
2.770000000000000000e+02,1.313666967798827656e+01
2.780000000000000000e+02,1.314984455705354094e+01
2.790000000000000000e+02,1.316285539689576112e+01
2.800000000000000000e+02,1.317570428895971268e+01
2.810000000000000000e+02,1.318839060621069414e+01
2.820000000000000000e+02,1.320091888869082730e+01
2.830000000000000000e+02,1.321329376635423003e+01
2.840000000000000000e+02,1.322551226286763182e+01
2.850000000000000000e+02,1.323758023245636117e+01
2.860000000000000000e+02,1.324949767641200538e+01
2.870000000000000000e+02,1.326126651761768827e+01
2.880000000000000000e+02,1.327289158039847017e+01
2.890000000000000000e+02,1.328437088124062271e+01
2.900000000000000000e+02,1.329570906410466513e+01
2.910000000000000000e+02,1.330690610585886091e+01
2.920000000000000000e+02,1.331796514370700280e+01
2.930000000000000000e+02,1.332888757337982533e+01
2.940000000000000000e+02,1.333967490572357839e+01
2.950000000000000000e+02,1.335032896304930716e+01
2.960000000000000000e+02,1.336085194250711616e+01
2.970000000000000000e+02,1.337124575874393528e+01
2.980000000000000000e+02,1.338151126196185459e+01
2.990000000000000000e+02,1.339165026978781725e+01
3.000000000000000000e+02,1.340166536464200853e+01
3.010000000000000000e+02,1.341155708992840268e+01
3.020000000000000000e+02,1.342132792942644848e+01
3.030000000000000000e+02,1.343097723181210412e+01
3.040000000000000000e+02,1.344050829652633183e+01
3.050000000000000000e+02,1.344992433399844600e+01
3.060000000000000000e+02,1.345922271556535321e+01
3.070000000000000000e+02,1.346840779116555886e+01
3.080000000000000000e+02,1.347748130402045419e+01
3.090000000000000000e+02,1.348644157193809257e+01
3.100000000000000000e+02,1.349529347271307067e+01
3.110000000000000000e+02,1.350403626906957122e+01
3.120000000000000000e+02,1.351267262068327391e+01
3.130000000000000000e+02,1.352120299208199583e+01
3.140000000000000000e+02,1.352962854442157870e+01
3.150000000000000000e+02,1.353795202545223120e+01
3.160000000000000000e+02,1.354617418761210246e+01
3.170000000000000000e+02,1.355429532956472372e+01
3.180000000000000000e+02,1.356231708094214028e+01
3.190000000000000000e+02,1.357024042401637054e+01
3.200000000000000000e+02,1.357806741198377942e+01
3.210000000000000000e+02,1.358579900665086804e+01
3.220000000000000000e+02,1.359343559163274051e+01
3.230000000000000000e+02,1.360097906392841693e+01
3.240000000000000000e+02,1.360843080292186613e+01
3.250000000000000000e+02,1.361579192598546761e+01
3.260000000000000000e+02,1.362306272236559401e+01
3.270000000000000000e+02,1.363024505201619085e+01
3.280000000000000000e+02,1.363733981972166731e+01
3.290000000000000000e+02,1.364434742037280657e+01
3.300000000000000000e+02,1.365127044269865308e+01
3.310000000000000000e+02,1.365810901466914018e+01
3.320000000000000000e+02,1.366486426390927278e+01
3.330000000000000000e+02,1.367153674710654698e+01
3.340000000000000000e+02,1.367812901819590543e+01
3.350000000000000000e+02,1.368464018063084886e+01
3.360000000000000000e+02,1.369107189909957079e+01
3.370000000000000000e+02,1.369742533031553933e+01
3.380000000000000000e+02,1.370370125019126917e+01
3.390000000000000000e+02,1.370990080302653347e+01
3.400000000000000000e+02,1.371602481548573671e+01
3.410000000000000000e+02,1.372207398461920747e+01
3.420000000000000000e+02,1.372804993445249444e+01
3.430000000000000000e+02,1.373395248138890778e+01
3.440000000000000000e+02,1.373978416864471086e+01
3.450000000000000000e+02,1.374554430699539864e+01
3.460000000000000000e+02,1.375123462175678846e+01
3.470000000000000000e+02,1.375685608827168060e+01
3.480000000000000000e+02,1.376240844066200886e+01
3.490000000000000000e+02,1.376789295585246009e+01
3.500000000000000000e+02,1.377331139845955654e+01
3.510000000000000000e+02,1.377866460086074341e+01
3.520000000000000000e+02,1.378395123469824490e+01
3.530000000000000000e+02,1.378917403718589263e+01
3.540000000000000000e+02,1.379433284415682692e+01
3.550000000000000000e+02,1.379942921152266067e+01
3.560000000000000000e+02,1.380446339898473163e+01
3.570000000000000000e+02,1.380943652328542193e+01
3.580000000000000000e+02,1.381434957372977301e+01
3.590000000000000000e+02,1.381920224807043773e+01
3.600000000000000000e+02,1.382399657111719016e+01
3.610000000000000000e+02,1.382873229575558049e+01
3.620000000000000000e+02,1.383341058109739130e+01
3.630000000000000000e+02,1.383803203157421358e+01
3.640000000000000000e+02,1.384259706540039936e+01
3.650000000000000000e+02,1.384710615942828760e+01
3.660000000000000000e+02,1.385156058112913158e+01
3.670000000000000000e+02,1.385596116666183519e+01
3.680000000000000000e+02,1.386030795671244320e+01
3.690000000000000000e+02,1.386460226951056462e+01
3.700000000000000000e+02,1.386884414082160077e+01
3.710000000000000000e+02,1.387303439589062570e+01
3.720000000000000000e+02,1.387717349214474893e+01
3.730000000000000000e+02,1.388126273534886224e+01
3.740000000000000000e+02,1.388530166640710206e+01
3.750000000000000000e+02,1.388929164667236194e+01
3.760000000000000000e+02,1.389323342690607888e+01
3.770000000000000000e+02,1.389712672479526034e+01
3.780000000000000000e+02,1.390097313563154380e+01
3.790000000000000000e+02,1.390477231279658454e+01
3.800000000000000000e+02,1.390852584592478536e+01
3.810000000000000000e+02,1.391223338496480899e+01
3.820000000000000000e+02,1.391589578871836608e+01
3.830000000000000000e+02,1.391951427583330769e+01
3.840000000000000000e+02,1.392308770654969408e+01
3.850000000000000000e+02,1.392661880538686425e+01
3.860000000000000000e+02,1.393010576616091534e+01
3.870000000000000000e+02,1.393355088562428357e+01
3.880000000000000000e+02,1.393695422539033402e+01
3.890000000000000000e+02,1.394031578599361154e+01
3.900000000000000000e+02,1.394363713266597138e+01
3.910000000000000000e+02,1.394691723922789706e+01
3.920000000000000000e+02,1.395015766728143625e+01
3.930000000000000000e+02,1.395335913311606824e+01
3.940000000000000000e+02,1.395652132941747681e+01
3.950000000000000000e+02,1.395964509013171195e+01
3.960000000000000000e+02,1.396273076674143354e+01
3.970000000000000000e+02,1.396577882953955196e+01
3.980000000000000000e+02,1.396879004736663177e+01
