# Time [s], Temperature [C]
1.000000000000000000e+00,2.499997099999999861e+01
2.000000000000000000e+00,7.588646699999999612e+01
3.000000000000000000e+00,1.037937399999999997e+02
4.000000000000000000e+00,1.263819699999999955e+02
5.000000000000000000e+00,1.450032699999999863e+02
6.000000000000000000e+00,1.612344999999999970e+02
7.000000000000000000e+00,1.756416499999999985e+02
8.000000000000000000e+00,1.886708500000000015e+02
9.000000000000000000e+00,2.005828400000000045e+02
1.000000000000000000e+01,2.115808399999999949e+02
1.100000000000000000e+01,2.218113700000000108e+02
1.200000000000000000e+01,2.313884600000000091e+02
1.300000000000000000e+01,2.404111599999999953e+02
1.400000000000000000e+01,2.489684599999999932e+02
1.500000000000000000e+01,2.571354699999999980e+02
1.600000000000000000e+01,2.649656699999999887e+02
1.700000000000000000e+01,2.724794600000000173e+02
1.800000000000000000e+01,2.796707200000000171e+02
1.900000000000000000e+01,2.865128199999999765e+02
2.000000000000000000e+01,2.930126999999999953e+02
2.100000000000000000e+01,2.991768200000000206e+02
2.200000000000000000e+01,3.050352500000000191e+02
2.300000000000000000e+01,3.106131599999999935e+02
2.400000000000000000e+01,3.159289200000000051e+02
2.500000000000000000e+01,3.209979599999999778e+02
2.600000000000000000e+01,3.258415200000000027e+02
2.700000000000000000e+01,3.304520899999999983e+02
2.800000000000000000e+01,3.348399999999999750e+02
2.900000000000000000e+01,3.390361300000000142e+02
3.000000000000000000e+01,3.430015900000000215e+02
3.100000000000000000e+01,3.467559200000000033e+02
3.200000000000000000e+01,3.503564799999999764e+02
3.300000000000000000e+01,3.537247600000000034e+02
3.400000000000000000e+01,3.569015499999999861e+02
3.500000000000000000e+01,3.599896899999999960e+02
3.600000000000000000e+01,3.628457000000000221e+02
3.700000000000000000e+01,3.655543200000000184e+02
3.800000000000000000e+01,3.682667200000000207e+02
3.900000000000000000e+01,3.707524700000000166e+02
4.000000000000000000e+01,3.731437999999999988e+02
4.100000000000000000e+01,3.756491700000000264e+02
4.200000000000000000e+01,3.779108600000000138e+02
4.300000000000000000e+01,3.801402600000000120e+02
4.400000000000000000e+01,3.832401699999999778e+02
4.500000000000000000e+01,3.817183800000000247e+02
4.600000000000000000e+01,3.847482299999999782e+02
4.700000000000000000e+01,3.865744900000000257e+02
4.800000000000000000e+01,3.888874799999999823e+02
4.900000000000000000e+01,3.909263300000000072e+02
5.000000000000000000e+01,3.934266099999999824e+02
5.100000000000000000e+01,3.955205700000000206e+02
5.200000000000000000e+01,3.977442300000000159e+02
5.300000000000000000e+01,4.002161899999999832e+02
5.400000000000000000e+01,4.023591900000000123e+02
5.500000000000000000e+01,4.045788900000000012e+02
5.600000000000000000e+01,4.070681500000000028e+02
5.700000000000000000e+01,4.091819499999999721e+02
5.800000000000000000e+01,4.113922999999999774e+02
5.900000000000000000e+01,4.138174700000000144e+02
6.000000000000000000e+01,4.158911100000000260e+02
6.100000000000000000e+01,4.180468099999999936e+02
6.200000000000000000e+01,4.203798499999999763e+02
6.300000000000000000e+01,4.223903199999999742e+02
6.400000000000000000e+01,4.244779399999999896e+02
6.500000000000000000e+01,4.266961999999999762e+02
6.600000000000000000e+01,4.286565600000000131e+02
6.700000000000000000e+01,4.306662000000000035e+02
6.800000000000000000e+01,4.327900399999999763e+02
6.900000000000000000e+01,4.346911600000000249e+02
7.000000000000000000e+01,4.366388200000000097e+02
7.100000000000000000e+01,4.386615600000000086e+02
7.200000000000000000e+01,4.405178799999999910e+02
7.300000000000000000e+01,4.423905599999999936e+02
7.400000000000000000e+01,4.443267500000000041e+02
7.500000000000000000e+01,4.461195700000000102e+02
7.600000000000000000e+01,4.479284999999999854e+02
7.700000000000000000e+01,4.497646500000000174e+02
7.800000000000000000e+01,4.514984699999999975e+02
7.900000000000000000e+01,4.532207000000000221e+02
8.000000000000000000e+01,4.549884599999999750e+02
8.100000000000000000e+01,4.566361999999999739e+02
8.200000000000000000e+01,4.583043799999999806e+02
8.300000000000000000e+01,4.599707900000000222e+02
8.400000000000000000e+01,4.615780899999999747e+02
8.500000000000000000e+01,4.631644299999999816e+02
8.600000000000000000e+01,4.647758200000000102e+02
8.700000000000000000e+01,4.663109099999999785e+02
8.800000000000000000e+01,4.678524499999999762e+02
8.900000000000000000e+01,4.693885500000000093e+02
9.000000000000000000e+01,4.708780499999999734e+02
9.100000000000000000e+01,4.723555600000000254e+02
9.200000000000000000e+01,4.738413699999999835e+02
9.300000000000000000e+01,4.752720299999999725e+02
9.400000000000000000e+01,4.767011400000000094e+02
9.500000000000000000e+01,4.781237199999999916e+02
9.600000000000000000e+01,4.795103799999999978e+02
9.700000000000000000e+01,4.808835100000000011e+02
9.800000000000000000e+01,4.822519800000000032e+02
9.900000000000000000e+01,4.835917099999999778e+02
1.000000000000000000e+02,4.849111899999999764e+02
1.010000000000000000e+02,4.862384599999999750e+02
1.020000000000000000e+02,4.875265800000000240e+02
1.030000000000000000e+02,4.888090199999999754e+02
1.040000000000000000e+02,4.900836499999999774e+02
1.050000000000000000e+02,4.913351099999999860e+02
1.060000000000000000e+02,4.925766300000000228e+02
1.070000000000000000e+02,4.938106999999999971e+02
1.080000000000000000e+02,4.950269799999999805e+02
1.090000000000000000e+02,4.962241200000000276e+02
1.100000000000000000e+02,4.974261200000000258e+02
1.110000000000000000e+02,4.985949100000000271e+02
1.120000000000000000e+02,4.997653500000000122e+02
1.130000000000000000e+02,5.009208100000000172e+02
1.140000000000000000e+02,5.020667700000000195e+02
1.150000000000000000e+02,5.031948899999999867e+02
1.160000000000000000e+02,5.043235199999999736e+02
1.170000000000000000e+02,5.054252900000000182e+02
1.180000000000000000e+02,5.065291100000000029e+02
1.190000000000000000e+02,5.076240199999999732e+02
1.200000000000000000e+02,5.086990999999999872e+02
1.210000000000000000e+02,5.097670600000000150e+02
1.220000000000000000e+02,5.108297099999999773e+02
1.230000000000000000e+02,5.118774700000000166e+02
1.240000000000000000e+02,5.173775000000000546e+02
1.250000000000000000e+02,5.092076999999999884e+02
1.260000000000000000e+02,5.134848600000000260e+02
1.270000000000000000e+02,5.112429200000000264e+02
1.280000000000000000e+02,5.142953499999999849e+02
1.290000000000000000e+02,5.134791300000000547e+02
1.300000000000000000e+02,5.159034400000000460e+02
1.310000000000000000e+02,5.157015400000000227e+02
1.320000000000000000e+02,5.177424899999999752e+02
1.330000000000000000e+02,5.178582800000000361e+02
1.340000000000000000e+02,5.196455700000000206e+02
1.350000000000000000e+02,5.199551999999999907e+02
1.360000000000000000e+02,5.215554799999999886e+02
1.370000000000000000e+02,5.219955400000000054e+02
1.380000000000000000e+02,5.234551999999999907e+02
1.390000000000000000e+02,5.239818099999999959e+02
1.400000000000000000e+02,5.253425899999999729e+02
1.410000000000000000e+02,5.259210799999999608e+02
1.420000000000000000e+02,5.271968399999999519e+02
1.430000000000000000e+02,5.278234300000000303e+02
1.440000000000000000e+02,5.290294199999999591e+02
1.450000000000000000e+02,5.296868299999999863e+02
1.460000000000000000e+02,5.308341699999999719e+02
1.470000000000000000e+02,5.315148299999999608e+02
1.480000000000000000e+02,5.326140100000000075e+02
1.490000000000000000e+02,5.333114000000000487e+02
1.500000000000000000e+02,5.343674899999999752e+02
1.510000000000000000e+02,5.350735499999999547e+02
1.520000000000000000e+02,5.360958299999999781e+02
1.530000000000000000e+02,5.368044999999999618e+02
1.540000000000000000e+02,5.377952299999999468e+02
1.550000000000000000e+02,5.385184299999999666e+02
1.560000000000000000e+02,5.394735699999999952e+02
1.570000000000000000e+02,5.401982400000000553e+02
1.580000000000000000e+02,5.411300700000000461e+02
1.590000000000000000e+02,5.418509500000000116e+02
1.600000000000000000e+02,5.427634900000000471e+02
1.610000000000000000e+02,5.434819300000000339e+02
1.620000000000000000e+02,5.443729899999999589e+02
1.630000000000000000e+02,5.450898399999999810e+02
1.640000000000000000e+02,5.459635600000000295e+02
1.650000000000000000e+02,5.466771199999999453e+02
1.660000000000000000e+02,5.475282600000000457e+02
1.670000000000000000e+02,5.482421900000000505e+02
1.680000000000000000e+02,5.490717200000000275e+02
1.690000000000000000e+02,5.497793000000000347e+02
1.700000000000000000e+02,5.506040000000000418e+02
1.710000000000000000e+02,5.513004799999999932e+02
1.720000000000000000e+02,5.521018699999999626e+02
1.730000000000000000e+02,5.528007199999999557e+02
1.740000000000000000e+02,5.535889899999999670e+02
1.750000000000000000e+02,5.542771000000000186e+02
1.760000000000000000e+02,5.550538900000000240e+02
1.770000000000000000e+02,5.557369400000000041e+02
1.780000000000000000e+02,5.565032300000000305e+02
1.790000000000000000e+02,5.571779199999999719e+02
1.800000000000000000e+02,5.579270599999999831e+02
1.810000000000000000e+02,5.585958900000000540e+02
1.820000000000000000e+02,5.593361800000000130e+02
1.830000000000000000e+02,5.599992700000000241e+02
1.840000000000000000e+02,5.607235100000000330e+02
1.850000000000000000e+02,5.613830600000000004e+02
1.860000000000000000e+02,5.620955800000000409e+02
1.870000000000000000e+02,5.627471299999999701e+02
1.880000000000000000e+02,5.631519799999999805e+02
1.890000000000000000e+02,5.635716599999999517e+02
1.900000000000000000e+02,5.642522000000000162e+02
1.910000000000000000e+02,5.647532300000000305e+02
1.920000000000000000e+02,5.654022200000000566e+02
1.930000000000000000e+02,5.659698499999999513e+02
1.940000000000000000e+02,5.666233499999999594e+02
1.950000000000000000e+02,5.672211899999999787e+02
1.960000000000000000e+02,5.678743299999999863e+02
1.970000000000000000e+02,5.684887700000000450e+02
1.980000000000000000e+02,5.691353800000000547e+02
1.990000000000000000e+02,5.697513999999999896e+02
2.000000000000000000e+02,5.703925799999999526e+02
2.010000000000000000e+02,5.710070200000000114e+02
2.020000000000000000e+02,5.716375699999999824e+02
2.030000000000000000e+02,5.722469499999999698e+02
2.040000000000000000e+02,5.728723099999999704e+02
2.050000000000000000e+02,5.734680799999999863e+02
2.060000000000000000e+02,5.740936299999999619e+02
2.070000000000000000e+02,5.746752900000000182e+02
2.080000000000000000e+02,5.752899800000000141e+02
2.090000000000000000e+02,5.758642599999999447e+02
2.100000000000000000e+02,5.764710099999999784e+02
2.110000000000000000e+02,5.770363200000000461e+02
2.120000000000000000e+02,5.776342799999999897e+02
2.130000000000000000e+02,5.781873199999999997e+02
2.140000000000000000e+02,5.787756299999999783e+02
2.150000000000000000e+02,5.793261700000000474e+02
2.160000000000000000e+02,5.799008199999999533e+02
2.170000000000000000e+02,5.804434800000000223e+02
2.180000000000000000e+02,5.810092200000000275e+02
2.190000000000000000e+02,5.815470599999999877e+02
2.200000000000000000e+02,5.821030899999999519e+02
2.210000000000000000e+02,5.826318400000000111e+02
2.220000000000000000e+02,5.831801799999999503e+02
2.230000000000000000e+02,5.836958600000000388e+02
2.240000000000000000e+02,5.842450000000000045e+02
2.250000000000000000e+02,5.847501200000000381e+02
2.260000000000000000e+02,5.852853999999999814e+02
2.270000000000000000e+02,5.857902800000000525e+02
2.280000000000000000e+02,5.863166499999999814e+02
2.290000000000000000e+02,5.868117700000000241e+02
2.300000000000000000e+02,5.873356300000000374e+02
2.310000000000000000e+02,5.878237900000000309e+02
2.320000000000000000e+02,5.883378900000000158e+02
2.330000000000000000e+02,5.888051100000000133e+02
2.340000000000000000e+02,5.892281500000000278e+02
2.350000000000000000e+02,5.896577099999999518e+02
2.360000000000000000e+02,5.901172500000000127e+02
2.370000000000000000e+02,5.905506000000000313e+02
2.380000000000000000e+02,5.910147100000000364e+02
2.390000000000000000e+02,5.914574000000000069e+02
2.400000000000000000e+02,5.919241899999999532e+02
2.410000000000000000e+02,5.923689000000000533e+02
2.420000000000000000e+02,5.928433199999999488e+02
2.430000000000000000e+02,5.932902199999999766e+02
2.440000000000000000e+02,5.937659899999999880e+02
2.450000000000000000e+02,5.942104500000000371e+02
2.460000000000000000e+02,5.946895799999999781e+02
2.470000000000000000e+02,5.951306799999999839e+02
2.480000000000000000e+02,5.956120600000000422e+02
2.490000000000000000e+02,5.960526099999999587e+02
2.500000000000000000e+02,5.965285000000000082e+02
2.510000000000000000e+02,5.969715599999999540e+02
2.520000000000000000e+02,5.974475700000000415e+02
2.530000000000000000e+02,5.978808599999999842e+02
2.540000000000000000e+02,5.983636500000000069e+02
2.550000000000000000e+02,5.987939499999999953e+02
2.560000000000000000e+02,5.992738600000000133e+02
2.570000000000000000e+02,5.997064199999999801e+02
2.580000000000000000e+02,6.001837199999999939e+02
2.590000000000000000e+02,6.006159099999999853e+02
2.600000000000000000e+02,6.010928999999999860e+02
2.610000000000000000e+02,6.015258199999999533e+02
2.620000000000000000e+02,6.020059800000000223e+02
2.630000000000000000e+02,6.024370099999999866e+02
2.640000000000000000e+02,6.029202900000000227e+02
2.650000000000000000e+02,6.033510700000000497e+02
2.660000000000000000e+02,6.038363600000000133e+02
2.670000000000000000e+02,6.042687399999999798e+02
2.680000000000000000e+02,6.047591599999999517e+02
2.690000000000000000e+02,6.051943999999999733e+02
2.700000000000000000e+02,6.056912200000000439e+02
2.710000000000000000e+02,6.061255499999999756e+02
2.720000000000000000e+02,6.066308000000000220e+02
2.730000000000000000e+02,6.070669599999999946e+02
2.740000000000000000e+02,6.075831299999999828e+02
2.750000000000000000e+02,6.080242899999999509e+02
2.760000000000000000e+02,6.085497400000000425e+02
2.770000000000000000e+02,6.089962199999999939e+02
2.780000000000000000e+02,6.095348500000000058e+02
2.790000000000000000e+02,6.099896899999999960e+02
2.800000000000000000e+02,6.105385700000000497e+02
2.810000000000000000e+02,6.110043899999999439e+02
2.820000000000000000e+02,6.115705000000000382e+02
2.830000000000000000e+02,6.120441299999999956e+02
2.840000000000000000e+02,6.126318999999999733e+02
2.850000000000000000e+02,6.131145599999999831e+02
2.860000000000000000e+02,6.137251599999999598e+02
2.870000000000000000e+02,6.142233899999999949e+02
2.880000000000000000e+02,6.148484499999999571e+02
2.890000000000000000e+02,6.153457600000000411e+02
2.900000000000000000e+02,6.159944500000000289e+02
2.910000000000000000e+02,6.165181900000000041e+02
2.920000000000000000e+02,6.171994600000000446e+02
2.930000000000000000e+02,6.177545199999999568e+02
2.940000000000000000e+02,6.184740600000000086e+02
2.950000000000000000e+02,6.190582299999999805e+02
2.960000000000000000e+02,6.198299600000000282e+02
2.970000000000000000e+02,6.204422600000000330e+02
2.980000000000000000e+02,6.212637300000000096e+02
2.990000000000000000e+02,6.219094199999999546e+02
3.000000000000000000e+02,6.227854599999999436e+02
3.010000000000000000e+02,6.234642300000000432e+02
3.020000000000000000e+02,6.243996600000000399e+02
3.030000000000000000e+02,6.251121799999999666e+02
3.040000000000000000e+02,6.261030299999999897e+02
3.050000000000000000e+02,6.268500400000000354e+02
3.060000000000000000e+02,6.278986200000000508e+02
3.070000000000000000e+02,6.286722999999999502e+02
3.080000000000000000e+02,6.297773399999999810e+02
3.090000000000000000e+02,6.305658600000000433e+02
3.100000000000000000e+02,6.317238200000000461e+02
3.110000000000000000e+02,6.325178200000000288e+02
3.120000000000000000e+02,6.337250999999999976e+02
3.130000000000000000e+02,6.345073200000000497e+02
3.140000000000000000e+02,6.357601300000000037e+02
3.150000000000000000e+02,6.365178799999999910e+02
3.160000000000000000e+02,6.378066999999999780e+02
3.170000000000000000e+02,6.385288100000000213e+02
3.180000000000000000e+02,6.398533899999999903e+02
3.190000000000000000e+02,6.405178799999999910e+02
3.200000000000000000e+02,6.418841599999999517e+02
3.210000000000000000e+02,6.424727199999999812e+02
3.220000000000000000e+02,6.438829299999999876e+02
3.230000000000000000e+02,6.443817699999999604e+02
3.240000000000000000e+02,6.458440600000000131e+02
3.250000000000000000e+02,6.462304100000000062e+02
3.260000000000000000e+02,6.477603800000000547e+02
3.270000000000000000e+02,6.480136700000000474e+02
3.280000000000000000e+02,6.496242700000000241e+02
3.290000000000000000e+02,6.497264999999999873e+02
3.300000000000000000e+02,6.514435399999999845e+02
3.310000000000000000e+02,6.513549199999999928e+02
3.320000000000000000e+02,6.532184399999999869e+02
3.330000000000000000e+02,6.529029500000000326e+02
3.340000000000000000e+02,6.549440899999999601e+02
3.350000000000000000e+02,6.543659699999999475e+02
3.360000000000000000e+02,6.566356799999999794e+02
3.370000000000000000e+02,6.557310800000000199e+02
3.380000000000000000e+02,6.583021899999999960e+02
3.390000000000000000e+02,6.569963400000000320e+02
3.400000000000000000e+02,6.599440299999999979e+02
3.410000000000000000e+02,6.581560100000000375e+02
3.420000000000000000e+02,6.615824000000000069e+02
3.430000000000000000e+02,6.591918899999999439e+02
3.440000000000000000e+02,6.632347399999999880e+02
3.450000000000000000e+02,6.600931399999999485e+02
3.460000000000000000e+02,6.649168100000000550e+02
3.470000000000000000e+02,6.608417399999999589e+02
3.480000000000000000e+02,6.666620500000000220e+02
3.490000000000000000e+02,6.614089999999999918e+02
3.500000000000000000e+02,6.685018900000000031e+02
3.510000000000000000e+02,6.617687399999999798e+02
3.520000000000000000e+02,6.704777199999999766e+02
3.530000000000000000e+02,6.618775000000000546e+02
3.540000000000000000e+02,6.726517300000000432e+02
3.550000000000000000e+02,6.616751100000000179e+02
3.560000000000000000e+02,6.751016200000000254e+02
3.570000000000000000e+02,6.610950299999999515e+02
3.580000000000000000e+02,6.779180900000000065e+02
3.590000000000000000e+02,6.600490099999999529e+02
3.600000000000000000e+02,6.812420700000000124e+02
3.610000000000000000e+02,6.584123499999999467e+02
3.620000000000000000e+02,6.852493299999999863e+02
3.630000000000000000e+02,6.560457199999999602e+02
3.640000000000000000e+02,6.901797500000000127e+02
3.650000000000000000e+02,6.527547600000000330e+02
3.660000000000000000e+02,6.963779299999999921e+02
3.670000000000000000e+02,6.482930900000000065e+02
3.680000000000000000e+02,7.043290399999999636e+02
3.690000000000000000e+02,6.423417399999999589e+02
3.700000000000000000e+02,7.147518900000000031e+02
3.710000000000000000e+02,6.345007299999999759e+02
3.720000000000000000e+02,7.287825900000000274e+02
3.730000000000000000e+02,6.241832299999999805e+02
3.740000000000000000e+02,7.482534799999999677e+02
3.750000000000000000e+02,6.579623400000000402e+02
3.760000000000000000e+02,6.952513400000000274e+02
3.770000000000000000e+02,6.658492999999999711e+02
3.780000000000000000e+02,6.928424700000000485e+02
3.790000000000000000e+02,6.665601799999999457e+02
3.800000000000000000e+02,6.930318600000000515e+02
3.810000000000000000e+02,6.659743700000000217e+02
3.820000000000000000e+02,6.943352700000000368e+02
3.830000000000000000e+02,6.647232699999999568e+02
3.840000000000000000e+02,6.964648399999999810e+02
3.850000000000000000e+02,6.628676799999999503e+02
3.860000000000000000e+02,6.993700000000000045e+02
3.870000000000000000e+02,6.603406999999999698e+02
3.880000000000000000e+02,7.031326900000000251e+02
3.890000000000000000e+02,6.570132399999999961e+02
3.900000000000000000e+02,7.079199200000000474e+02
3.910000000000000000e+02,6.526795700000000124e+02
3.920000000000000000e+02,7.139776000000000522e+02
3.930000000000000000e+02,6.470997899999999845e+02
3.940000000000000000e+02,7.216876200000000381e+02
3.950000000000000000e+02,6.399565400000000182e+02
3.960000000000000000e+02,7.315784300000000258e+02
3.970000000000000000e+02,6.308086499999999432e+02
3.980000000000000000e+02,7.444318799999999783e+02
3.990000000000000000e+02,6.190587799999999561e+02
