# Time [s], Convective Heat Transfer Coefficient [W/m2K]
1.000000000000000000e+00,0.000000000000000000e+00
2.000000000000000000e+00,0.000000000000000000e+00
3.000000000000000000e+00,0.000000000000000000e+00
4.000000000000000000e+00,0.000000000000000000e+00
5.000000000000000000e+00,3.040000000141642594e-02
6.000000000000000000e+00,5.446232763987680220e-02
7.000000000000000000e+00,8.918545748856174238e-02
8.000000000000000000e+00,1.369249886486777479e-01
9.000000000000000000e+00,1.978993490411593281e-01
1.000000000000000000e+01,2.723747682883039256e-01
1.100000000000000000e+01,3.599596715318072460e-01
1.200000000000000000e+01,4.596358223587047598e-01
1.300000000000000000e+01,5.701715394817348237e-01
1.400000000000000000e+01,6.901078646074112477e-01
1.500000000000000000e+01,8.268677002207346360e-01
1.600000000000000000e+01,9.651473796927546589e-01
1.700000000000000000e+01,1.107274293075794169e+00
1.800000000000000000e+01,1.252756620021608258e+00
1.900000000000000000e+01,1.400756361168364439e+00
2.000000000000000000e+01,1.550523686146789926e+00
2.100000000000000000e+01,1.701391643499829298e+00
2.200000000000000000e+01,1.852770044945709182e+00
2.300000000000000000e+01,2.004155816469542550e+00
2.400000000000000000e+01,2.155120431025549177e+00
2.500000000000000000e+01,2.305281651889210526e+00
2.600000000000000000e+01,2.454327985491775888e+00
2.700000000000000000e+01,2.601989122100459628e+00
2.800000000000000000e+01,2.748038924039044151e+00
2.900000000000000000e+01,2.892291444499790920e+00
3.000000000000000000e+01,3.034595029255954923e+00
3.100000000000000000e+01,3.174846646055909716e+00
3.200000000000000000e+01,3.312960306332385141e+00
3.300000000000000000e+01,3.448886582944612922e+00
3.400000000000000000e+01,3.582585616209803536e+00
3.500000000000000000e+01,3.714047740106879658e+00
3.600000000000000000e+01,3.843268247481263611e+00
3.700000000000000000e+01,3.970250105170621158e+00
3.800000000000000000e+01,4.095007794113843858e+00
3.900000000000000000e+01,4.217567325366680997e+00
4.000000000000000000e+01,4.337948444196757514e+00
4.100000000000000000e+01,4.456188810426067626e+00
4.200000000000000000e+01,4.572324429327777828e+00
4.300000000000000000e+01,4.686395931390975100e+00
4.400000000000000000e+01,4.798439804090559591e+00
4.500000000000000000e+01,4.908500889151626190e+00
4.600000000000000000e+01,5.016616531502142706e+00
4.700000000000000000e+01,5.122837260410100235e+00
4.800000000000000000e+01,5.227200378271374959e+00
4.900000000000000000e+01,5.329743563120247885e+00
5.000000000000000000e+01,5.430510796244916172e+00
5.100000000000000000e+01,5.529544306887916427e+00
5.200000000000000000e+01,5.626881748846120246e+00
5.300000000000000000e+01,5.722569514657881662e+00
5.400000000000000000e+01,5.816640467000341097e+00
5.500000000000000000e+01,5.909135268485252723e+00
5.600000000000000000e+01,6.000093145557235275e+00
5.700000000000000000e+01,6.089547919940465626e+00
5.800000000000000000e+01,6.177531813998009547e+00
5.900000000000000000e+01,6.264080070487579199e+00
6.000000000000000000e+01,6.349228368724218363e+00
6.100000000000000000e+01,6.433003923888766629e+00
6.200000000000000000e+01,6.515495067960724640e+00
6.300000000000000000e+01,6.596654363338936733e+00
6.400000000000000000e+01,6.676526678535918968e+00
6.500000000000000000e+01,6.755148588687776900e+00
6.600000000000000000e+01,6.832547260357429764e+00
6.700000000000000000e+01,6.908757381960287880e+00
6.800000000000000000e+01,6.983810234597657818e+00
6.900000000000000000e+01,7.057735660282337342e+00
7.000000000000000000e+01,7.130558725198079983e+00
7.100000000000000000e+01,7.202312353087299890e+00
7.200000000000000000e+01,7.273022818441635451e+00
7.300000000000000000e+01,7.342712313695442639e+00
7.400000000000000000e+01,7.411402504986460471e+00
7.500000000000000000e+01,7.479114770732275375e+00
7.600000000000000000e+01,7.545870416750633858e+00
7.700000000000000000e+01,7.611686628094496143e+00
7.800000000000000000e+01,7.676578195181082087e+00
7.900000000000000000e+01,7.740560628560404943e+00
8.000000000000000000e+01,7.803649895398775627e+00
8.100000000000000000e+01,7.865863129391239994e+00
8.200000000000000000e+01,7.927212384679255486e+00
8.300000000000000000e+01,7.987712535098198785e+00
8.400000000000000000e+01,8.047377802515285339e+00
8.500000000000000000e+01,8.106221441867779376e+00
8.600000000000000000e+01,8.164259141168249911e+00
8.700000000000000000e+01,8.221502266585963170e+00
8.800000000000000000e+01,8.277965500011164934e+00
8.900000000000000000e+01,8.333660376760306576e+00
9.000000000000000000e+01,8.388596654373314365e+00
9.100000000000000000e+01,8.442787842584465352e+00
9.200000000000000000e+01,8.496242044853724806e+00
9.300000000000000000e+01,8.548970939984860351e+00
9.400000000000000000e+01,8.600984815100037650e+00
9.500000000000000000e+01,8.652295149321593826e+00
9.600000000000000000e+01,8.702910215932798010e+00
9.700000000000000000e+01,8.752839237791269156e+00
9.800000000000000000e+01,8.802093087770646918e+00
9.900000000000000000e+01,8.850678967409464803e+00
1.000000000000000000e+02,8.898605483654533188e+00
1.010000000000000000e+02,8.945880086416648780e+00
1.020000000000000000e+02,8.992510575863940758e+00
1.030000000000000000e+02,9.038504080788223760e+00
1.040000000000000000e+02,9.083866098805051692e+00
1.050000000000000000e+02,9.128601839885380542e+00
1.060000000000000000e+02,9.172715542878359329e+00
1.070000000000000000e+02,9.216216445754859876e+00
1.080000000000000000e+02,9.259107901929162665e+00
1.090000000000000000e+02,9.301393738250149923e+00
1.100000000000000000e+02,9.343079706483292668e+00
1.110000000000000000e+02,9.384168744781300475e+00
1.120000000000000000e+02,9.424663734035897633e+00
1.130000000000000000e+02,9.464567236597915212e+00
1.140000000000000000e+02,9.503880729607757871e+00
1.150000000000000000e+02,9.542611974012014997e+00
1.160000000000000000e+02,9.580760095847839608e+00
1.170000000000000000e+02,9.618340093584931694e+00
1.180000000000000000e+02,9.655368790384029509e+00
1.190000000000000000e+02,9.691848324285839311e+00
1.200000000000000000e+02,9.727764968279933200e+00
1.210000000000000000e+02,9.763096088267021244e+00
1.220000000000000000e+02,9.797820441658759094e+00
1.230000000000000000e+02,9.831923189973643673e+00
1.240000000000000000e+02,9.865391206595489848e+00
1.250000000000000000e+02,9.898210372234721888e+00
1.260000000000000000e+02,9.930368912818023475e+00
1.270000000000000000e+02,9.961851054041042985e+00
1.280000000000000000e+02,9.992638885508641877e+00
1.290000000000000000e+02,1.002271589798694329e+01
1.300000000000000000e+02,1.005206042887517093e+01
1.310000000000000000e+02,1.008065465314015796e+01
1.320000000000000000e+02,1.010847688405288736e+01
1.330000000000000000e+02,1.013550757301052663e+01
1.340000000000000000e+02,1.016172581863576774e+01
1.350000000000000000e+02,1.018711354120966028e+01
1.360000000000000000e+02,1.021165425654726100e+01
1.370000000000000000e+02,1.023533311849209326e+01
1.380000000000000000e+02,1.025813996679340612e+01
1.390000000000000000e+02,1.028006864498162010e+01
1.400000000000000000e+02,1.030111888319936142e+01
1.410000000000000000e+02,1.032129441043282192e+01
1.420000000000000000e+02,1.034060626869721489e+01
1.430000000000000000e+02,1.035907268456478292e+01
1.440000000000000000e+02,1.037671515561561719e+01
1.450000000000000000e+02,1.039356427355616042e+01
1.460000000000000000e+02,1.040965593989939642e+01
1.470000000000000000e+02,1.042503197508683144e+01
1.480000000000000000e+02,1.043973814844481041e+01
1.490000000000000000e+02,1.045382706873358991e+01
1.500000000000000000e+02,1.046735216570022153e+01
1.510000000000000000e+02,1.048037050672314052e+01
1.520000000000000000e+02,1.049294163543502734e+01
1.530000000000000000e+02,1.050603391200433201e+01
1.540000000000000000e+02,1.051855026348201427e+01
1.550000000000000000e+02,1.053066840286156136e+01
1.560000000000000000e+02,1.054237913809573257e+01
1.570000000000000000e+02,1.055373601628440206e+01
1.580000000000000000e+02,1.056488298055722908e+01
1.590000000000000000e+02,1.057594357319010747e+01
1.600000000000000000e+02,1.058699434299858488e+01
1.610000000000000000e+02,1.059809118992891008e+01
1.620000000000000000e+02,1.060927914564040719e+01
1.630000000000000000e+02,1.062059299931775236e+01
1.640000000000000000e+02,1.063206350740545325e+01
1.650000000000000000e+02,1.064372631387505486e+01
1.660000000000000000e+02,1.065560879151587947e+01
1.670000000000000000e+02,1.066774287617868389e+01
1.680000000000000000e+02,1.068015638047893745e+01
1.690000000000000000e+02,1.069287732585821260e+01
1.700000000000000000e+02,1.070593708989412285e+01
1.710000000000000000e+02,1.071937299516846309e+01
1.720000000000000000e+02,1.073321317188866253e+01
1.730000000000000000e+02,1.074750239213328129e+01
1.740000000000000000e+02,1.076227352014769068e+01
1.750000000000000000e+02,1.077757434615044829e+01
1.760000000000000000e+02,1.079344954939050538e+01
1.770000000000000000e+02,1.080994890810009146e+01
1.780000000000000000e+02,1.082714074694288087e+01
1.790000000000000000e+02,1.084508220655637523e+01
1.800000000000000000e+02,1.086384909504130469e+01
1.810000000000000000e+02,1.088351164697492734e+01
1.820000000000000000e+02,1.090418097064101488e+01
1.830000000000000000e+02,1.092594181922650698e+01
1.840000000000000000e+02,1.094892263627797924e+01
1.850000000000000000e+02,1.097325541836562834e+01
1.860000000000000000e+02,1.099909766436401526e+01
1.870000000000000000e+02,1.102660807888393180e+01
1.880000000000000000e+02,1.105597900107918363e+01
1.890000000000000000e+02,1.108743329767897023e+01
1.900000000000000000e+02,1.112119554838292323e+01
1.910000000000000000e+02,1.115749932235889119e+01
1.920000000000000000e+02,1.120462565095476037e+01
1.930000000000000000e+02,1.124762701952897181e+01
1.940000000000000000e+02,1.129243146445764445e+01
1.950000000000000000e+02,1.134078859835666009e+01
1.960000000000000000e+02,1.139194953046750136e+01
1.970000000000000000e+02,1.144546545240584656e+01
1.980000000000000000e+02,1.150038516475130912e+01
1.990000000000000000e+02,1.155558695629151167e+01
2.000000000000000000e+02,1.160991252095362825e+01
2.010000000000000000e+02,1.166245929039937401e+01
2.020000000000000000e+02,1.171272390338031322e+01
2.030000000000000000e+02,1.176057428110439318e+01
2.040000000000000000e+02,1.180610685093911627e+01
2.050000000000000000e+02,1.184951521768778626e+01
2.060000000000000000e+02,1.189107374544315832e+01
2.070000000000000000e+02,1.193106980185472032e+01
2.080000000000000000e+02,1.196968686185113029e+01
2.090000000000000000e+02,1.200706396164639322e+01
2.100000000000000000e+02,1.204331965030140061e+01
2.110000000000000000e+02,1.207853821392560256e+01
2.120000000000000000e+02,1.211280217672076631e+01
2.130000000000000000e+02,1.214617405666717076e+01
2.140000000000000000e+02,1.217871144677978634e+01
2.150000000000000000e+02,1.221047161303714113e+01
2.160000000000000000e+02,1.224149766094421921e+01
2.170000000000000000e+02,1.227182492872957198e+01
2.180000000000000000e+02,1.230149606783468919e+01
2.190000000000000000e+02,1.233053364744608871e+01
2.200000000000000000e+02,1.235897023487093804e+01
2.210000000000000000e+02,1.238683880467895015e+01
2.220000000000000000e+02,1.241415931034017639e+01
2.230000000000000000e+02,1.244095018205829639e+01
2.240000000000000000e+02,1.246723725945487082e+01
2.250000000000000000e+02,1.249304000052186758e+01
2.260000000000000000e+02,1.251836998398116663e+01
2.270000000000000000e+02,1.254325049645307111e+01
2.280000000000000000e+02,1.256769303989283060e+01
2.290000000000000000e+02,1.259171189291658877e+01
2.300000000000000000e+02,1.261531663594214336e+01
2.310000000000000000e+02,1.263852345758360229e+01
2.320000000000000000e+02,1.266134496348665905e+01
2.330000000000000000e+02,1.268378471785931616e+01
2.340000000000000000e+02,1.270586169753751982e+01
2.350000000000000000e+02,1.272758387126618906e+01
2.360000000000000000e+02,1.274895350653759252e+01
2.370000000000000000e+02,1.276998578713156540e+01
2.380000000000000000e+02,1.279068742555644000e+01
2.390000000000000000e+02,1.281106236761211825e+01
2.400000000000000000e+02,1.283112015716830534e+01
2.410000000000000000e+02,1.285086798356393878e+01
2.420000000000000000e+02,1.287031284103631812e+01
2.430000000000000000e+02,1.288945963194119138e+01
2.440000000000000000e+02,1.290831646893202489e+01
2.450000000000000000e+02,1.292688832589877812e+01
2.460000000000000000e+02,1.294517925073050613e+01
2.470000000000000000e+02,1.296319976385792216e+01
2.480000000000000000e+02,1.298094808373134335e+01
2.490000000000000000e+02,1.299843191223144956e+01
2.500000000000000000e+02,1.301565752881721849e+01
2.510000000000000000e+02,1.303262863998376808e+01
2.520000000000000000e+02,1.304934923272961811e+01
2.530000000000000000e+02,1.306582453211945349e+01
2.540000000000000000e+02,1.308205756711944723e+01
2.550000000000000000e+02,1.309805465765627019e+01
2.560000000000000000e+02,1.311381877321509037e+01
2.570000000000000000e+02,1.312935113625293404e+01
2.580000000000000000e+02,1.314465903461978336e+01
2.590000000000000000e+02,1.315974412599200072e+01
2.600000000000000000e+02,1.317461066404440828e+01
2.610000000000000000e+02,1.318926425874710162e+01
2.620000000000000000e+02,1.320370548386527787e+01
2.630000000000000000e+02,1.321793770483030883e+01
2.640000000000000000e+02,1.323196751724052511e+01
2.650000000000000000e+02,1.324579377201120245e+01
2.660000000000000000e+02,1.325942177218686879e+01
2.670000000000000000e+02,1.327285470195307404e+01
2.680000000000000000e+02,1.328609537330533996e+01
2.690000000000000000e+02,1.329914689232753133e+01
2.700000000000000000e+02,1.331201160009814011e+01
2.710000000000000000e+02,1.332469292679389383e+01
2.720000000000000000e+02,1.333719307872888571e+01
2.730000000000000000e+02,1.334951515242529752e+01
2.740000000000000000e+02,1.336166279917396871e+01
2.750000000000000000e+02,1.337363583560979663e+01
2.760000000000000000e+02,1.338543988254087758e+01
2.770000000000000000e+02,1.339707548772922152e+01
2.780000000000000000e+02,1.340854669991138692e+01
2.790000000000000000e+02,1.341985505938195367e+01
2.800000000000000000e+02,1.343100221536533390e+01
2.810000000000000000e+02,1.344199329430582424e+01
2.820000000000000000e+02,1.345282781674013073e+01
2.830000000000000000e+02,1.346350820270500037e+01
2.840000000000000000e+02,1.347403826594429788e+01
2.850000000000000000e+02,1.348441901901725970e+01
2.860000000000000000e+02,1.349465319499614679e+01
2.870000000000000000e+02,1.350474260318629405e+01
2.880000000000000000e+02,1.351468948235443968e+01
2.890000000000000000e+02,1.352449630595140562e+01
2.900000000000000000e+02,1.353416526959249744e+01
2.910000000000000000e+02,1.354369618750734006e+01
2.920000000000000000e+02,1.355309390192412167e+01
2.930000000000000000e+02,1.356235902068787347e+01
2.940000000000000000e+02,1.357149233196162363e+01
2.950000000000000000e+02,1.358049873834556109e+01
2.960000000000000000e+02,1.358937753168709506e+01
2.970000000000000000e+02,1.359813116638619412e+01
2.980000000000000000e+02,1.360676119269548678e+01
2.990000000000000000e+02,1.361527009405425837e+01
3.000000000000000000e+02,1.362365907414407573e+01
3.010000000000000000e+02,1.363193039580350785e+01
3.020000000000000000e+02,1.364008536150200790e+01
3.030000000000000000e+02,1.364812589044630364e+01
3.040000000000000000e+02,1.365605307146172542e+01
3.050000000000000000e+02,1.366386936250188988e+01
3.060000000000000000e+02,1.367157607794775487e+01
3.070000000000000000e+02,1.367917377067545992e+01
3.080000000000000000e+02,1.368666461104926491e+01
3.090000000000000000e+02,1.369404969407636585e+01
3.100000000000000000e+02,1.370133135263135493e+01
3.110000000000000000e+02,1.370851134466968979e+01
3.120000000000000000e+02,1.371558961197233550e+01
3.130000000000000000e+02,1.372256988437365344e+01
3.140000000000000000e+02,1.372945140124316410e+01
3.150000000000000000e+02,1.373623582063646609e+01
3.160000000000000000e+02,1.374292584385516669e+01
3.170000000000000000e+02,1.374952205271255501e+01
3.180000000000000000e+02,1.375602508506561605e+01
3.190000000000000000e+02,1.376243711792501401e+01
3.200000000000000000e+02,1.376875908182385011e+01
3.210000000000000000e+02,1.377499245578342268e+01
3.220000000000000000e+02,1.378113895679325474e+01
3.230000000000000000e+02,1.378719875304706477e+01
3.240000000000000000e+02,1.379317360883888455e+01
3.250000000000000000e+02,1.379906454165246998e+01
3.260000000000000000e+02,1.380487243975380096e+01
3.270000000000000000e+02,1.381060014955553683e+01
3.280000000000000000e+02,1.381624676459520096e+01
3.290000000000000000e+02,1.382181395223123133e+01
3.300000000000000000e+02,1.382730306570959300e+01
3.310000000000000000e+02,1.383271575735019532e+01
3.320000000000000000e+02,1.383805220474441811e+01
3.330000000000000000e+02,1.384331368206970936e+01
3.340000000000000000e+02,1.384850151834282528e+01
3.350000000000000000e+02,1.385361624343748055e+01
3.360000000000000000e+02,1.385865984623931801e+01
3.370000000000000000e+02,1.386363321143925553e+01
3.380000000000000000e+02,1.386853618449232783e+01
3.390000000000000000e+02,1.387337073795483100e+01
3.400000000000000000e+02,1.387813731747642976e+01
3.410000000000000000e+02,1.388283691220945570e+01
3.420000000000000000e+02,1.388747032467778197e+01
3.430000000000000000e+02,1.389203920264048620e+01
3.440000000000000000e+02,1.389654439975892863e+01
3.450000000000000000e+02,1.390098682637752070e+01
3.460000000000000000e+02,1.390536648077331350e+01
3.470000000000000000e+02,1.390968396463222057e+01
3.480000000000000000e+02,1.391394156958390305e+01
3.490000000000000000e+02,1.391814012983514282e+01
3.500000000000000000e+02,1.392227938905145024e+01
3.510000000000000000e+02,1.392636017650405122e+01
3.520000000000000000e+02,1.393038374035866056e+01
3.530000000000000000e+02,1.393435162597111798e+01
3.540000000000000000e+02,1.393826320470090074e+01
3.550000000000000000e+02,1.394212073865239176e+01
3.560000000000000000e+02,1.394592359462875564e+01
3.570000000000000000e+02,1.394967300443447122e+01
3.580000000000000000e+02,1.395337013590322428e+01
3.590000000000000000e+02,1.395701501147959078e+01
3.600000000000000000e+02,1.396060963448195125e+01
3.610000000000000000e+02,1.396415330160813184e+01
3.620000000000000000e+02,1.396764788998798146e+01
3.630000000000000000e+02,1.397109245328859473e+01
3.640000000000000000e+02,1.397448958264949148e+01
3.650000000000000000e+02,1.397783862784354980e+01
3.660000000000000000e+02,1.398114073551584902e+01
3.670000000000000000e+02,1.398439704921792348e+01
3.680000000000000000e+02,1.398760697440405565e+01
3.690000000000000000e+02,1.399077236867566576e+01
3.700000000000000000e+02,1.399389359100912245e+01
3.710000000000000000e+02,1.399697040142205751e+01
3.720000000000000000e+02,1.400000429155133475e+01
3.730000000000000000e+02,1.400299609297672454e+01
3.740000000000000000e+02,1.400594544163373634e+01
3.750000000000000000e+02,1.400885352420483088e+01
3.760000000000000000e+02,1.401172104768356697e+01
3.770000000000000000e+02,1.401454818080891229e+01
3.780000000000000000e+02,1.401733628290752343e+01
3.790000000000000000e+02,1.402008444745841231e+01
3.800000000000000000e+02,1.402279444758617721e+01
3.810000000000000000e+02,1.402546632732047982e+01
3.820000000000000000e+02,1.402810090333163195e+01
3.830000000000000000e+02,1.403069821744970014e+01
3.840000000000000000e+02,1.403325896472505363e+01
3.850000000000000000e+02,1.403578401689154376e+01
3.860000000000000000e+02,1.403827406569158498e+01
3.870000000000000000e+02,1.404072879193285317e+01
3.880000000000000000e+02,1.404314965709781760e+01
3.890000000000000000e+02,1.404553604333314354e+01
3.900000000000000000e+02,1.404788905336107874e+01
3.910000000000000000e+02,1.405020901707130498e+01
3.920000000000000000e+02,1.405249644129735564e+01
3.930000000000000000e+02,1.405475159472615410e+01
3.940000000000000000e+02,1.405697527843631711e+01
3.950000000000000000e+02,1.405916758139717437e+01
3.960000000000000000e+02,1.406132953933201790e+01
3.970000000000000000e+02,1.406346088418749929e+01
3.980000000000000000e+02,1.406556229455277141e+01
