# Time [s], Temperature [C]
1.000000000000000000e+00,2.499997099999999861e+01
2.000000000000000000e+00,1.103729299999999967e+02
3.000000000000000000e+00,1.610741299999999967e+02
4.000000000000000000e+00,1.989992200000000082e+02
5.000000000000000000e+00,2.302005900000000054e+02
6.000000000000000000e+00,2.569607799999999997e+02
7.000000000000000000e+00,2.805211800000000153e+02
8.000000000000000000e+00,3.017596100000000092e+02
9.000000000000000000e+00,3.212458500000000186e+02
1.000000000000000000e+01,3.389141200000000254e+02
1.100000000000000000e+01,3.547252199999999789e+02
1.200000000000000000e+01,3.687998400000000174e+02
1.300000000000000000e+01,3.810967699999999923e+02
1.400000000000000000e+01,3.914478799999999978e+02
1.500000000000000000e+01,3.998733199999999783e+02
1.600000000000000000e+01,4.042128299999999967e+02
1.700000000000000000e+01,4.109324300000000108e+02
1.800000000000000000e+01,4.162450299999999856e+02
1.900000000000000000e+01,4.221744400000000041e+02
2.000000000000000000e+01,4.274521199999999794e+02
2.100000000000000000e+01,4.343196699999999737e+02
2.200000000000000000e+01,4.413034099999999853e+02
2.300000000000000000e+01,4.487398400000000152e+02
2.400000000000000000e+01,4.574925200000000132e+02
2.500000000000000000e+01,4.661120599999999854e+02
2.600000000000000000e+01,4.736821299999999724e+02
2.700000000000000000e+01,4.801215500000000134e+02
2.800000000000000000e+01,4.851815500000000156e+02
2.900000000000000000e+01,4.895517300000000205e+02
3.000000000000000000e+01,4.938033100000000104e+02
3.100000000000000000e+01,4.981737699999999904e+02
3.200000000000000000e+01,5.028100900000000024e+02
3.300000000000000000e+01,5.077498199999999997e+02
3.400000000000000000e+01,5.129534300000000258e+02
3.500000000000000000e+01,5.183411899999999832e+02
3.600000000000000000e+01,5.236613800000000083e+02
3.700000000000000000e+01,5.286904899999999543e+02
3.800000000000000000e+01,5.332271700000000010e+02
3.900000000000000000e+01,5.372122799999999643e+02
4.000000000000000000e+01,5.407851600000000190e+02
4.100000000000000000e+01,5.441033899999999903e+02
4.200000000000000000e+01,5.473317899999999554e+02
4.300000000000000000e+01,5.505776399999999740e+02
4.400000000000000000e+01,5.539051500000000487e+02
4.500000000000000000e+01,5.573161599999999680e+02
4.600000000000000000e+01,5.608057300000000396e+02
4.700000000000000000e+01,5.643248899999999821e+02
4.800000000000000000e+01,5.677735599999999749e+02
4.900000000000000000e+01,5.710847199999999475e+02
5.000000000000000000e+01,5.742051999999999907e+02
5.100000000000000000e+01,5.770976600000000190e+02
5.200000000000000000e+01,5.797945600000000468e+02
5.300000000000000000e+01,5.823452800000000025e+02
5.400000000000000000e+01,5.848012700000000450e+02
5.500000000000000000e+01,5.871970800000000281e+02
5.600000000000000000e+01,5.895986900000000333e+02
5.700000000000000000e+01,5.920037800000000061e+02
5.800000000000000000e+01,5.944265699999999697e+02
5.900000000000000000e+01,5.968532099999999900e+02
6.000000000000000000e+01,5.992773399999999810e+02
6.100000000000000000e+01,6.016536899999999832e+02
6.200000000000000000e+01,6.039647800000000188e+02
6.300000000000000000e+01,6.061994600000000446e+02
6.400000000000000000e+01,6.083215300000000525e+02
6.500000000000000000e+01,6.103687099999999646e+02
6.600000000000000000e+01,6.123145799999999781e+02
6.700000000000000000e+01,6.140169100000000526e+02
6.800000000000000000e+01,6.105250200000000405e+02
6.900000000000000000e+01,6.127362699999999904e+02
7.000000000000000000e+01,6.136389799999999468e+02
7.100000000000000000e+01,6.154781500000000278e+02
7.200000000000000000e+01,6.171179799999999886e+02
7.300000000000000000e+01,6.189901099999999587e+02
7.400000000000000000e+01,6.208161000000000058e+02
7.500000000000000000e+01,6.226636999999999489e+02
7.600000000000000000e+01,6.244517799999999852e+02
7.700000000000000000e+01,6.261984300000000303e+02
7.800000000000000000e+01,6.278809199999999464e+02
7.900000000000000000e+01,6.295147699999999986e+02
8.000000000000000000e+01,6.311044299999999794e+02
8.100000000000000000e+01,6.326588699999999790e+02
8.200000000000000000e+01,6.341882299999999759e+02
8.300000000000000000e+01,6.357069099999999935e+02
8.400000000000000000e+01,6.372138700000000426e+02
8.500000000000000000e+01,6.387161899999999832e+02
8.600000000000000000e+01,6.402083099999999831e+02
8.700000000000000000e+01,6.416911000000000058e+02
8.800000000000000000e+01,6.431573499999999513e+02
8.900000000000000000e+01,6.446016200000000254e+02
9.000000000000000000e+01,6.460266100000000051e+02
9.100000000000000000e+01,6.474134500000000116e+02
9.200000000000000000e+01,6.487822899999999890e+02
9.300000000000000000e+01,6.501110200000000532e+02
9.400000000000000000e+01,6.514225500000000011e+02
9.500000000000000000e+01,6.527081899999999450e+02
9.600000000000000000e+01,6.539779700000000275e+02
9.700000000000000000e+01,6.552297399999999925e+02
9.800000000000000000e+01,6.564737499999999955e+02
9.900000000000000000e+01,6.577027000000000498e+02
1.000000000000000000e+02,6.589222399999999880e+02
1.010000000000000000e+02,6.601394699999999602e+02
1.020000000000000000e+02,6.613400900000000320e+02
1.030000000000000000e+02,6.625266100000000051e+02
1.040000000000000000e+02,6.637033699999999499e+02
1.050000000000000000e+02,6.648663299999999481e+02
1.060000000000000000e+02,6.660074499999999489e+02
1.070000000000000000e+02,6.671358599999999797e+02
1.080000000000000000e+02,6.682484100000000353e+02
1.090000000000000000e+02,6.693417399999999589e+02
1.100000000000000000e+02,6.704299899999999752e+02
1.110000000000000000e+02,6.715055499999999711e+02
1.120000000000000000e+02,6.725631700000000137e+02
1.130000000000000000e+02,6.736209099999999808e+02
1.140000000000000000e+02,6.746649200000000519e+02
1.150000000000000000e+02,6.757003799999999956e+02
1.160000000000000000e+02,6.767314499999999953e+02
1.170000000000000000e+02,6.777534200000000055e+02
1.180000000000000000e+02,6.787573899999999867e+02
1.190000000000000000e+02,6.797613499999999931e+02
1.200000000000000000e+02,6.807471900000000460e+02
1.210000000000000000e+02,6.817284499999999525e+02
1.220000000000000000e+02,6.826957999999999629e+02
1.230000000000000000e+02,6.836552699999999732e+02
1.240000000000000000e+02,6.845281999999999698e+02
1.250000000000000000e+02,6.852716699999999719e+02
1.260000000000000000e+02,6.860388199999999870e+02
1.270000000000000000e+02,6.868778099999999540e+02
1.280000000000000000e+02,6.876931799999999839e+02
1.290000000000000000e+02,6.885265500000000429e+02
1.300000000000000000e+02,6.893615099999999529e+02
1.310000000000000000e+02,6.902044700000000148e+02
1.320000000000000000e+02,6.910490099999999529e+02
1.330000000000000000e+02,6.918986200000000508e+02
1.340000000000000000e+02,6.927455400000000054e+02
1.350000000000000000e+02,6.935890500000000429e+02
1.360000000000000000e+02,6.944321899999999914e+02
1.370000000000000000e+02,6.952744099999999889e+02
1.380000000000000000e+02,6.961090699999999742e+02
1.390000000000000000e+02,6.969429900000000089e+02
1.400000000000000000e+02,6.977717300000000478e+02
1.410000000000000000e+02,6.985936900000000378e+02
1.420000000000000000e+02,6.994134500000000116e+02
1.430000000000000000e+02,7.002254000000000360e+02
1.440000000000000000e+02,7.010317400000000134e+02
1.450000000000000000e+02,7.018287400000000389e+02
1.460000000000000000e+02,7.026243299999999863e+02
1.470000000000000000e+02,7.034075900000000274e+02
1.480000000000000000e+02,7.041870099999999866e+02
1.490000000000000000e+02,7.049580700000000206e+02
1.500000000000000000e+02,7.057240600000000086e+02
1.510000000000000000e+02,7.064802200000000312e+02
1.520000000000000000e+02,7.072345599999999877e+02
1.530000000000000000e+02,7.079816899999999578e+02
1.540000000000000000e+02,7.087202800000000025e+02
1.550000000000000000e+02,7.094560500000000047e+02
1.560000000000000000e+02,7.101857899999999972e+02
1.570000000000000000e+02,7.109023399999999810e+02
1.580000000000000000e+02,7.116197499999999536e+02
1.590000000000000000e+02,7.123280600000000504e+02
1.600000000000000000e+02,7.130302100000000110e+02
1.610000000000000000e+02,7.137273599999999760e+02
1.620000000000000000e+02,7.144160200000000032e+02
1.630000000000000000e+02,7.150984499999999571e+02
1.640000000000000000e+02,7.157725199999999859e+02
1.650000000000000000e+02,7.164323699999999917e+02
1.660000000000000000e+02,7.170729999999999791e+02
1.670000000000000000e+02,7.177065400000000182e+02
1.680000000000000000e+02,7.183313600000000179e+02
1.690000000000000000e+02,7.189482400000000553e+02
1.700000000000000000e+02,7.195642100000000028e+02
1.710000000000000000e+02,7.201704099999999471e+02
1.720000000000000000e+02,7.207791099999999460e+02
1.730000000000000000e+02,7.213810399999999845e+02
1.740000000000000000e+02,7.219830899999999474e+02
1.750000000000000000e+02,7.225791600000000017e+02
1.760000000000000000e+02,7.231779800000000478e+02
1.770000000000000000e+02,7.237700200000000450e+02
1.780000000000000000e+02,7.243623700000000554e+02
1.790000000000000000e+02,7.249481799999999794e+02
1.800000000000000000e+02,7.255336899999999787e+02
1.810000000000000000e+02,7.261123700000000554e+02
1.820000000000000000e+02,7.266939099999999598e+02
1.830000000000000000e+02,7.272662400000000389e+02
1.840000000000000000e+02,7.278418000000000347e+02
1.850000000000000000e+02,7.284086899999999787e+02
1.860000000000000000e+02,7.289768699999999626e+02
1.870000000000000000e+02,7.295386999999999489e+02
1.880000000000000000e+02,7.300994299999999839e+02
1.890000000000000000e+02,7.306604599999999436e+02
1.900000000000000000e+02,7.312125899999999774e+02
1.910000000000000000e+02,7.317673300000000154e+02
1.920000000000000000e+02,7.323170800000000327e+02
1.930000000000000000e+02,7.328663900000000240e+02
1.940000000000000000e+02,7.334157099999999900e+02
1.950000000000000000e+02,7.339592300000000478e+02
1.960000000000000000e+02,7.345054300000000467e+02
1.970000000000000000e+02,7.350515699999999697e+02
1.980000000000000000e+02,7.355935100000000375e+02
1.990000000000000000e+02,7.361377599999999575e+02
2.000000000000000000e+02,7.366840200000000323e+02
2.010000000000000000e+02,7.372274200000000519e+02
2.020000000000000000e+02,7.377748400000000402e+02
2.030000000000000000e+02,7.383222700000000032e+02
2.040000000000000000e+02,7.388767100000000028e+02
2.050000000000000000e+02,7.394296299999999746e+02
2.060000000000000000e+02,7.399876100000000179e+02
2.070000000000000000e+02,7.405506599999999935e+02
2.080000000000000000e+02,7.411180399999999509e+02
2.090000000000000000e+02,7.416952499999999873e+02
2.100000000000000000e+02,7.422757000000000289e+02
2.110000000000000000e+02,7.428641400000000203e+02
2.120000000000000000e+02,7.434644799999999805e+02
2.130000000000000000e+02,7.440714699999999766e+02
2.140000000000000000e+02,7.446919599999999946e+02
2.150000000000000000e+02,7.453214699999999766e+02
2.160000000000000000e+02,7.459639300000000048e+02
2.170000000000000000e+02,7.466176100000000133e+02
2.180000000000000000e+02,7.472825900000000274e+02
2.190000000000000000e+02,7.479596599999999853e+02
2.200000000000000000e+02,7.486442899999999554e+02
2.210000000000000000e+02,7.493410000000000082e+02
2.220000000000000000e+02,7.500449800000000096e+02
2.230000000000000000e+02,7.507570200000000114e+02
2.240000000000000000e+02,7.514755900000000111e+02
2.250000000000000000e+02,7.522008100000000468e+02
2.260000000000000000e+02,7.529304799999999886e+02
2.270000000000000000e+02,7.536644900000000007e+02
2.280000000000000000e+02,7.544014300000000048e+02
2.290000000000000000e+02,7.551423300000000154e+02
2.300000000000000000e+02,7.558819600000000491e+02
2.310000000000000000e+02,7.566247600000000375e+02
2.320000000000000000e+02,7.573651700000000346e+02
2.330000000000000000e+02,7.581100500000000011e+02
2.340000000000000000e+02,7.588516200000000254e+02
2.350000000000000000e+02,7.595900900000000320e+02
2.360000000000000000e+02,7.603310500000000047e+02
2.370000000000000000e+02,7.610653099999999540e+02
2.380000000000000000e+02,7.617974900000000389e+02
2.390000000000000000e+02,7.625289900000000216e+02
2.400000000000000000e+02,7.632562299999999595e+02
2.410000000000000000e+02,7.639791900000000169e+02
2.420000000000000000e+02,7.646991600000000062e+02
2.430000000000000000e+02,7.654124799999999595e+02
2.440000000000000000e+02,7.661236000000000104e+02
2.450000000000000000e+02,7.668292800000000398e+02
2.460000000000000000e+02,7.675306399999999485e+02
2.470000000000000000e+02,7.682277199999999766e+02
2.480000000000000000e+02,7.689196200000000090e+02
2.490000000000000000e+02,7.696057700000000068e+02
2.500000000000000000e+02,7.702865000000000464e+02
2.510000000000000000e+02,7.709628300000000536e+02
2.520000000000000000e+02,7.716314700000000357e+02
2.530000000000000000e+02,7.722965699999999742e+02
2.540000000000000000e+02,7.729576399999999694e+02
2.550000000000000000e+02,7.736099199999999882e+02
2.560000000000000000e+02,7.742580000000000382e+02
2.570000000000000000e+02,7.749023999999999432e+02
2.580000000000000000e+02,7.755373499999999467e+02
2.590000000000000000e+02,7.761693099999999959e+02
2.600000000000000000e+02,7.767941899999999578e+02
2.610000000000000000e+02,7.774144900000000007e+02
2.620000000000000000e+02,7.780283799999999701e+02
2.630000000000000000e+02,7.786372099999999818e+02
2.640000000000000000e+02,7.792409699999999475e+02
2.650000000000000000e+02,7.798359400000000505e+02
2.660000000000000000e+02,7.804300500000000511e+02
2.670000000000000000e+02,7.810137899999999718e+02
2.680000000000000000e+02,7.815963699999999790e+02
2.690000000000000000e+02,7.821701699999999846e+02
2.700000000000000000e+02,7.827400499999999965e+02
2.710000000000000000e+02,7.833015100000000075e+02
2.720000000000000000e+02,7.838619999999999663e+02
2.730000000000000000e+02,7.844139400000000251e+02
2.740000000000000000e+02,7.849601400000000240e+02
2.750000000000000000e+02,7.855040299999999434e+02
2.760000000000000000e+02,7.860387600000000248e+02
2.770000000000000000e+02,7.865717799999999897e+02
2.780000000000000000e+02,7.870978999999999814e+02
2.790000000000000000e+02,7.876173700000000508e+02
2.800000000000000000e+02,7.881342799999999897e+02
2.810000000000000000e+02,7.886447799999999688e+02
2.820000000000000000e+02,7.891501500000000533e+02
2.830000000000000000e+02,7.896483799999999746e+02
2.840000000000000000e+02,7.901453900000000203e+02
2.850000000000000000e+02,7.906347700000000032e+02
2.860000000000000000e+02,7.911191400000000158e+02
2.870000000000000000e+02,7.915994899999999461e+02
2.880000000000000000e+02,7.920751299999999446e+02
2.890000000000000000e+02,7.925452900000000227e+02
2.900000000000000000e+02,7.930116600000000062e+02
2.910000000000000000e+02,7.934721700000000055e+02
2.920000000000000000e+02,7.939271199999999453e+02
2.930000000000000000e+02,7.943816500000000360e+02
2.940000000000000000e+02,7.948267200000000230e+02
2.950000000000000000e+02,7.952693500000000313e+02
2.960000000000000000e+02,7.957080099999999447e+02
2.970000000000000000e+02,7.961403800000000501e+02
2.980000000000000000e+02,7.965687299999999595e+02
2.990000000000000000e+02,7.969941999999999780e+02
3.000000000000000000e+02,7.974130900000000111e+02
3.010000000000000000e+02,7.978286100000000260e+02
3.020000000000000000e+02,7.982409099999999853e+02
3.030000000000000000e+02,7.986464200000000346e+02
3.040000000000000000e+02,7.990504799999999932e+02
3.050000000000000000e+02,7.994493400000000065e+02
3.060000000000000000e+02,7.998438099999999622e+02
3.070000000000000000e+02,8.002333399999999983e+02
3.080000000000000000e+02,8.006209700000000566e+02
3.090000000000000000e+02,8.010031099999999924e+02
3.100000000000000000e+02,8.013801899999999705e+02
3.110000000000000000e+02,8.017549400000000333e+02
3.120000000000000000e+02,8.021248199999999997e+02
3.130000000000000000e+02,8.024910899999999856e+02
3.140000000000000000e+02,8.028546800000000303e+02
3.150000000000000000e+02,8.032130700000000161e+02
3.160000000000000000e+02,8.035678699999999708e+02
3.170000000000000000e+02,8.039198599999999715e+02
3.180000000000000000e+02,8.042663000000000011e+02
3.190000000000000000e+02,8.046103500000000395e+02
3.200000000000000000e+02,8.049515999999999849e+02
3.210000000000000000e+02,8.052883299999999736e+02
3.220000000000000000e+02,8.056198699999999917e+02
3.230000000000000000e+02,8.059511099999999715e+02
3.240000000000000000e+02,8.062765500000000429e+02
3.250000000000000000e+02,8.065992400000000089e+02
3.260000000000000000e+02,8.069192500000000337e+02
3.270000000000000000e+02,8.072352300000000014e+02
3.280000000000000000e+02,8.075463899999999740e+02
3.290000000000000000e+02,8.078568099999999959e+02
3.300000000000000000e+02,8.081619299999999839e+02
3.310000000000000000e+02,8.084650299999999561e+02
3.320000000000000000e+02,8.087636700000000474e+02
3.330000000000000000e+02,8.090602400000000216e+02
3.340000000000000000e+02,8.093527800000000525e+02
3.350000000000000000e+02,8.096441700000000310e+02
3.360000000000000000e+02,8.099293199999999615e+02
3.370000000000000000e+02,8.102139899999999670e+02
3.380000000000000000e+02,8.104950000000000045e+02
3.390000000000000000e+02,8.107731300000000374e+02
3.400000000000000000e+02,8.110463300000000118e+02
3.410000000000000000e+02,8.113195200000000114e+02
3.420000000000000000e+02,8.115880100000000539e+02
3.430000000000000000e+02,8.118530299999999897e+02
3.440000000000000000e+02,8.121171299999999746e+02
3.450000000000000000e+02,8.123777499999999918e+02
3.460000000000000000e+02,8.126340300000000525e+02
3.470000000000000000e+02,8.128898299999999608e+02
3.480000000000000000e+02,8.131415399999999636e+02
3.490000000000000000e+02,8.133897100000000364e+02
3.500000000000000000e+02,8.136379399999999578e+02
3.510000000000000000e+02,8.138815899999999601e+02
3.520000000000000000e+02,8.141220100000000457e+02
3.530000000000000000e+02,8.143620600000000422e+02
3.540000000000000000e+02,8.145970499999999674e+02
3.550000000000000000e+02,8.148311800000000176e+02
3.560000000000000000e+02,8.150626800000000003e+02
3.570000000000000000e+02,8.152902199999999766e+02
3.580000000000000000e+02,8.155170299999999770e+02
3.590000000000000000e+02,8.157399299999999585e+02
3.600000000000000000e+02,8.159618500000000267e+02
3.610000000000000000e+02,8.161796299999999746e+02
3.620000000000000000e+02,8.163972199999999475e+02
3.630000000000000000e+02,8.166109000000000151e+02
3.640000000000000000e+02,8.168217200000000275e+02
3.650000000000000000e+02,8.170327800000000025e+02
3.660000000000000000e+02,8.172386500000000069e+02
3.670000000000000000e+02,8.174443400000000111e+02
3.680000000000000000e+02,8.176466100000000097e+02
3.690000000000000000e+02,8.178477799999999434e+02
3.700000000000000000e+02,8.180450399999999718e+02
3.710000000000000000e+02,8.182426799999999503e+02
3.720000000000000000e+02,8.184349999999999454e+02
3.730000000000000000e+02,8.186281699999999546e+02
3.740000000000000000e+02,8.188170199999999568e+02
3.750000000000000000e+02,8.190060999999999467e+02
3.760000000000000000e+02,8.191900000000000546e+02
3.770000000000000000e+02,8.193752399999999625e+02
3.780000000000000000e+02,8.195555399999999509e+02
3.790000000000000000e+02,8.197360800000000154e+02
3.800000000000000000e+02,8.199132700000000114e+02
3.810000000000000000e+02,8.200898999999999432e+02
3.820000000000000000e+02,8.202625699999999824e+02
3.830000000000000000e+02,8.204347500000000082e+02
3.840000000000000000e+02,8.206049199999999928e+02
3.850000000000000000e+02,8.207725799999999481e+02
3.860000000000000000e+02,8.209399399999999787e+02
3.870000000000000000e+02,8.211037000000000035e+02
3.880000000000000000e+02,8.212670299999999770e+02
3.890000000000000000e+02,8.214276099999999587e+02
3.900000000000000000e+02,8.215863000000000511e+02
3.910000000000000000e+02,8.217442600000000539e+02
3.920000000000000000e+02,8.218994099999999889e+02
3.930000000000000000e+02,8.220542000000000371e+02
3.940000000000000000e+02,8.222051999999999907e+02
3.950000000000000000e+02,8.223563799999999446e+02
3.960000000000000000e+02,8.225054300000000467e+02
3.970000000000000000e+02,8.226522200000000566e+02
3.980000000000000000e+02,8.227977899999999636e+02
3.990000000000000000e+02,8.229424999999999955e+02
