# Time [s], Convective Heat Transfer Coefficient [W/m2K]
1.000000000000000000e+00,0.000000000000000000e+00
2.000000000000000000e+00,0.000000000000000000e+00
3.000000000000000000e+00,0.000000000000000000e+00
4.000000000000000000e+00,0.000000000000000000e+00
5.000000000000000000e+00,1.915079995362458862e-02
6.000000000000000000e+00,2.762023300960968902e-02
7.000000000000000000e+00,4.444506962132738215e-02
8.000000000000000000e+00,6.603611858342180174e-02
9.000000000000000000e+00,9.445986818120359618e-02
1.000000000000000000e+01,1.291912335458233752e-01
1.100000000000000000e+01,1.697162132183824557e-01
1.200000000000000000e+01,2.158327630979985645e-01
1.300000000000000000e+01,2.669499639062493102e-01
1.400000000000000000e+01,3.223399855862518759e-01
1.500000000000000000e+01,3.813570678279132875e-01
1.600000000000000000e+01,4.433933531438127851e-01
1.700000000000000000e+01,5.078266400833822969e-01
1.800000000000000000e+01,5.741549314970815221e-01
1.900000000000000000e+01,6.419163482458263292e-01
2.000000000000000000e+01,7.107134671582667762e-01
2.100000000000000000e+01,7.802089086010942642e-01
2.200000000000000000e+01,8.501161374727802533e-01
2.300000000000000000e+01,9.201960482514572881e-01
2.400000000000000000e+01,9.902470041173231374e-01
2.500000000000000000e+01,1.060100940115772605e+00
2.600000000000000000e+01,1.129618384943144704e+00
2.700000000000000000e+01,1.198683876510189483e+00
2.800000000000000000e+01,1.267199995855014860e+00
2.900000000000000000e+01,1.335092720493364471e+00
3.000000000000000000e+01,1.402299857509539338e+00
3.100000000000000000e+01,1.468772311646684425e+00
3.200000000000000000e+01,1.534469527987595505e+00
3.300000000000000000e+01,1.599362416830228728e+00
3.400000000000000000e+01,1.663429910847872062e+00
3.500000000000000000e+01,1.726654251943421592e+00
3.600000000000000000e+01,1.789026382394656389e+00
3.700000000000000000e+01,1.850538862109457616e+00
3.800000000000000000e+01,1.911189912972505622e+00
3.900000000000000000e+01,1.970981156922212207e+00
4.000000000000000000e+01,2.029914912195347476e+00
4.100000000000000000e+01,2.087997980610975635e+00
4.200000000000000000e+01,2.145236098002028857e+00
4.300000000000000000e+01,2.201640178959867633e+00
4.400000000000000000e+01,2.257220649253519174e+00
4.500000000000000000e+01,2.311985972464708716e+00
4.600000000000000000e+01,2.365950374099383247e+00
4.700000000000000000e+01,2.419126770433427165e+00
4.800000000000000000e+01,2.471524718880983684e+00
4.900000000000000000e+01,2.523161571002273895e+00
5.000000000000000000e+01,2.574050356479877344e+00
5.100000000000000000e+01,2.624203153936991217e+00
5.200000000000000000e+01,2.673633906027224061e+00
5.300000000000000000e+01,2.722357170694964967e+00
5.400000000000000000e+01,2.770386828961739489e+00
5.500000000000000000e+01,2.817735794734844923e+00
5.600000000000000000e+01,2.864419070123425559e+00
5.700000000000000000e+01,2.910448908382084365e+00
5.800000000000000000e+01,2.955838770202028787e+00
5.900000000000000000e+01,3.000602163725750504e+00
6.000000000000000000e+01,3.044750173716142871e+00
6.100000000000000000e+01,3.088297142641569515e+00
6.200000000000000000e+01,3.131255756697156833e+00
6.300000000000000000e+01,3.173637682489565570e+00
6.400000000000000000e+01,3.215455127511197553e+00
6.500000000000000000e+01,3.256719298218014202e+00
6.600000000000000000e+01,3.297441133639305910e+00
6.700000000000000000e+01,3.337632356260320066e+00
6.800000000000000000e+01,3.377303504262261225e+00
6.900000000000000000e+01,3.416465645185807087e+00
7.000000000000000000e+01,3.455128920510495583e+00
7.100000000000000000e+01,3.493303680269368883e+00
7.200000000000000000e+01,3.530999690373295863e+00
7.300000000000000000e+01,3.568227003273313880e+00
7.400000000000000000e+01,3.604994471800864186e+00
7.500000000000000000e+01,3.641311708053152518e+00
7.600000000000000000e+01,3.677187524709558453e+00
7.700000000000000000e+01,3.712631273310583957e+00
7.800000000000000000e+01,3.747650949770954032e+00
7.900000000000000000e+01,3.782255354205175557e+00
8.000000000000000000e+01,3.816452242071007195e+00
8.100000000000000000e+01,3.850249434325306197e+00
8.200000000000000000e+01,3.883655037305814517e+00
8.300000000000000000e+01,3.916676496530279383e+00
8.400000000000000000e+01,3.949321170782222890e+00
8.500000000000000000e+01,3.981595816874068383e+00
8.600000000000000000e+01,4.013508013271884778e+00
8.700000000000000000e+01,4.045065018568382520e+00
8.800000000000000000e+01,4.076272312794986696e+00
8.900000000000000000e+01,4.107137405219218884e+00
9.000000000000000000e+01,4.137665920742514380e+00
9.100000000000000000e+01,4.167864361701166587e+00
9.200000000000000000e+01,4.197738381880647296e+00
9.300000000000000000e+01,4.227294350108950383e+00
9.400000000000000000e+01,4.256537619159761476e+00
9.500000000000000000e+01,4.285473931018803029e+00
9.600000000000000000e+01,4.314109829524597650e+00
9.700000000000000000e+01,4.342449937391238635e+00
9.800000000000000000e+01,4.370498916799012257e+00
9.900000000000000000e+01,4.398261949458928122e+00
1.000000000000000000e+02,4.425744045712104224e+00
1.010000000000000000e+02,4.452950054058179674e+00
1.020000000000000000e+02,4.479885253311006288e+00
1.030000000000000000e+02,4.506555326463874245e+00
1.040000000000000000e+02,4.532963203466287894e+00
1.050000000000000000e+02,4.559112879279013875e+00
1.060000000000000000e+02,4.585009352674527250e+00
1.070000000000000000e+02,4.610656862891577390e+00
1.080000000000000000e+02,4.636059530186039446e+00
1.090000000000000000e+02,4.661222008473406397e+00
1.100000000000000000e+02,4.686148657169908915e+00
1.110000000000000000e+02,4.710841499444886615e+00
1.120000000000000000e+02,4.735304988877852672e+00
1.130000000000000000e+02,4.759542939643385928e+00
1.140000000000000000e+02,4.783559377239957833e+00
1.150000000000000000e+02,4.807357920221322800e+00
1.160000000000000000e+02,4.830942251578060898e+00
1.170000000000000000e+02,4.854314078921401432e+00
1.180000000000000000e+02,4.877477804346707302e+00
1.190000000000000000e+02,4.900436449440254805e+00
1.200000000000000000e+02,4.923193699578544802e+00
1.210000000000000000e+02,4.945752916571350966e+00
1.220000000000000000e+02,4.968116916338171762e+00
1.230000000000000000e+02,4.990287570243324922e+00
1.240000000000000000e+02,5.012268316000507262e+00
1.250000000000000000e+02,5.034062380603431031e+00
1.260000000000000000e+02,5.055672469042097106e+00
1.270000000000000000e+02,5.077102148940697113e+00
1.280000000000000000e+02,5.098353157727354201e+00
1.290000000000000000e+02,5.119427398848986677e+00
1.300000000000000000e+02,5.140328263941976950e+00
1.310000000000000000e+02,5.161058463625955106e+00
1.320000000000000000e+02,5.181620316503637191e+00
1.330000000000000000e+02,5.202016932693124041e+00
1.340000000000000000e+02,5.222249307471225954e+00
1.350000000000000000e+02,5.242320278656033672e+00
1.360000000000000000e+02,5.262232216253482697e+00
1.370000000000000000e+02,5.281987292000549061e+00
1.380000000000000000e+02,5.301588028310003864e+00
1.390000000000000000e+02,5.321037326974033199e+00
1.400000000000000000e+02,5.340335500426788506e+00
1.410000000000000000e+02,5.359485173387698254e+00
1.420000000000000000e+02,5.378488530206260165e+00
1.430000000000000000e+02,5.397347812756578378e+00
1.440000000000000000e+02,5.416065198947188186e+00
1.450000000000000000e+02,5.434642963677467797e+00
1.460000000000000000e+02,5.453081035075590499e+00
1.470000000000000000e+02,5.471382743131521842e+00
1.480000000000000000e+02,5.489549190937887957e+00
1.490000000000000000e+02,5.507582646880460508e+00
1.500000000000000000e+02,5.525485011600286711e+00
1.510000000000000000e+02,5.543258744353771306e+00
1.520000000000000000e+02,5.560903665722640277e+00
1.530000000000000000e+02,5.578422081399079246e+00
1.540000000000000000e+02,5.595815751428176554e+00
1.550000000000000000e+02,5.613086353130408490e+00
1.560000000000000000e+02,5.630235853077917518e+00
1.570000000000000000e+02,5.647265837847120551e+00
1.580000000000000000e+02,5.664177014768448259e+00
1.590000000000000000e+02,5.680971196686214419e+00
1.600000000000000000e+02,5.697649322388874005e+00
1.610000000000000000e+02,5.714213167098238344e+00
1.620000000000000000e+02,5.730664391734705099e+00
1.630000000000000000e+02,5.747004404598952121e+00
1.640000000000000000e+02,5.763235320229341596e+00
1.650000000000000000e+02,5.779356925819354451e+00
1.660000000000000000e+02,5.795371241833604081e+00
1.670000000000000000e+02,5.811279029109297056e+00
1.680000000000000000e+02,5.827082064129595729e+00
1.690000000000000000e+02,5.842781260103811825e+00
1.700000000000000000e+02,5.858378838935024646e+00
1.710000000000000000e+02,5.873875175394268844e+00
1.720000000000000000e+02,5.889271376979984041e+00
1.730000000000000000e+02,5.904568526221056324e+00
1.740000000000000000e+02,5.919767982043902421e+00
1.750000000000000000e+02,5.934870741382253456e+00
1.760000000000000000e+02,5.949877878307578527e+00
1.770000000000000000e+02,5.964790871194399990e+00
1.780000000000000000e+02,5.979610643375618650e+00
1.790000000000000000e+02,5.994338228493269582e+00
1.800000000000000000e+02,6.008974476102823203e+00
1.810000000000000000e+02,6.023520572412782492e+00
1.820000000000000000e+02,6.037977165346231523e+00
1.830000000000000000e+02,6.052345336122482600e+00
1.840000000000000000e+02,6.066626461865912923e+00
1.850000000000000000e+02,6.080821069114335842e+00
1.860000000000000000e+02,6.094930523758757879e+00
1.870000000000000000e+02,6.108955537544409786e+00
1.880000000000000000e+02,6.122896682690081249e+00
1.890000000000000000e+02,6.136755420836243147e+00
1.900000000000000000e+02,6.150532009879327688e+00
1.910000000000000000e+02,6.164227656548902701e+00
1.920000000000000000e+02,6.177843299299335733e+00
1.930000000000000000e+02,6.191379614293104794e+00
1.940000000000000000e+02,6.204837264407448316e+00
1.950000000000000000e+02,6.218217656424947393e+00
1.960000000000000000e+02,6.231521116484031175e+00
1.970000000000000000e+02,6.244748564081285203e+00
1.980000000000000000e+02,6.257900602850327232e+00
1.990000000000000000e+02,6.270978063033771477e+00
2.000000000000000000e+02,6.283981522525992958e+00
2.010000000000000000e+02,6.296912256840650812e+00
2.020000000000000000e+02,6.309770578408075536e+00
2.030000000000000000e+02,6.322557261777391524e+00
2.040000000000000000e+02,6.335272863524743059e+00
2.050000000000000000e+02,6.347918540054275027e+00
2.060000000000000000e+02,6.360494849434995324e+00
2.070000000000000000e+02,6.373002282039781363e+00
2.080000000000000000e+02,6.385441520282254757e+00
2.090000000000000000e+02,6.397813291937359814e+00
2.100000000000000000e+02,6.410118169898893825e+00
2.110000000000000000e+02,6.422357029273620732e+00
2.120000000000000000e+02,6.434529910775598438e+00
2.130000000000000000e+02,6.446638036327181354e+00
2.140000000000000000e+02,6.458681766543181269e+00
2.150000000000000000e+02,6.470661735118929059e+00
2.160000000000000000e+02,6.482578286711948579e+00
2.170000000000000000e+02,6.494432592422550776e+00
2.180000000000000000e+02,6.506224699087943542e+00
2.190000000000000000e+02,6.517955753940981367e+00
2.200000000000000000e+02,6.529625513920159996e+00
2.210000000000000000e+02,6.541235106267174082e+00
2.220000000000000000e+02,6.552784823376978984e+00
2.230000000000000000e+02,6.564275224169630718e+00
2.240000000000000000e+02,6.575707129467235568e+00
2.250000000000000000e+02,6.587080808148040312e+00
2.260000000000000000e+02,6.598396793264296178e+00
2.270000000000000000e+02,6.609655341653430050e+00
2.280000000000000000e+02,6.620857773857315998e+00
2.290000000000000000e+02,6.632003528658373170e+00
2.300000000000000000e+02,6.643093908205759845e+00
2.310000000000000000e+02,6.654128874504902313e+00
2.320000000000000000e+02,6.665109179667116912e+00
2.330000000000000000e+02,6.676035302375354696e+00
2.340000000000000000e+02,6.686907714179303852e+00
2.350000000000000000e+02,6.697726357743715830e+00
2.360000000000000000e+02,6.708492736251061572e+00
2.370000000000000000e+02,6.719206258555265876e+00
2.380000000000000000e+02,6.729867890937065056e+00
2.390000000000000000e+02,6.740478071337579813e+00
2.400000000000000000e+02,6.751037231382700732e+00
2.410000000000000000e+02,6.761545540461694870e+00
2.420000000000000000e+02,6.772003675566083736e+00
2.430000000000000000e+02,6.782411795614898153e+00
2.440000000000000000e+02,6.792770817885049439e+00
2.450000000000000000e+02,6.803080383096212103e+00
2.460000000000000000e+02,6.813341396370253378e+00
2.470000000000000000e+02,6.823553996964607293e+00
2.480000000000000000e+02,6.833718823056673664e+00
2.490000000000000000e+02,6.843836004670612816e+00
2.500000000000000000e+02,6.853906167949396000e+00
2.510000000000000000e+02,6.863929185592038351e+00
2.520000000000000000e+02,6.873905922030004056e+00
2.530000000000000000e+02,6.883836736929897171e+00
2.540000000000000000e+02,6.893721985134465768e+00
2.550000000000000000e+02,6.903561771131227154e+00
2.560000000000000000e+02,6.913356442464388074e+00
2.570000000000000000e+02,6.923106586311080335e+00
2.580000000000000000e+02,6.932812539044795663e+00
2.590000000000000000e+02,6.942474389763087395e+00
2.600000000000000000e+02,6.952092710331095660e+00
2.610000000000000000e+02,6.961667824132790727e+00
2.620000000000000000e+02,6.971199809504227574e+00
2.630000000000000000e+02,6.980689463967332031e+00
2.640000000000000000e+02,6.990136617500484206e+00
2.650000000000000000e+02,6.999541818095456946e+00
2.660000000000000000e+02,7.008905130688210861e+00
2.670000000000000000e+02,7.018227331902292754e+00
2.680000000000000000e+02,7.027508241428471969e+00
2.690000000000000000e+02,7.036748389504477785e+00
2.700000000000000000e+02,7.045948064448415593e+00
2.710000000000000000e+02,7.055107551011941425e+00
2.720000000000000000e+02,7.064227130440325020e+00
2.730000000000000000e+02,7.073307080531203717e+00
2.740000000000000000e+02,7.082347442316716091e+00
2.750000000000000000e+02,7.091348954213410494e+00
2.760000000000000000e+02,7.100311882239948247e+00
2.770000000000000000e+02,7.109236025992043295e+00
2.780000000000000000e+02,7.118122110686649684e+00
2.790000000000000000e+02,7.126970162419656418e+00
2.800000000000000000e+02,7.135780666306498432e+00
2.810000000000000000e+02,7.144553184868700946e+00
2.820000000000000000e+02,7.153289114555483330e+00
2.830000000000000000e+02,7.161987783805095376e+00
2.840000000000000000e+02,7.170649893051337820e+00
2.850000000000000000e+02,7.179275681263629139e+00
2.860000000000000000e+02,7.187864704928246695e+00
2.870000000000000000e+02,7.196418106521091929e+00
2.880000000000000000e+02,7.204935664213020452e+00
2.890000000000000000e+02,7.213418057691587393e+00
2.900000000000000000e+02,7.221865286482923807e+00
2.910000000000000000e+02,7.230277349672214804e+00
2.920000000000000000e+02,7.238654469308274386e+00
2.930000000000000000e+02,7.246997310723834573e+00
2.940000000000000000e+02,7.255305865565714996e+00
2.950000000000000000e+02,7.263580347003695259e+00
2.960000000000000000e+02,7.271821187215546267e+00
2.970000000000000000e+02,7.280028151434833283e+00
2.980000000000000000e+02,7.288201667719388155e+00
2.990000000000000000e+02,7.296342159879432465e+00
3.000000000000000000e+02,7.304449389350963884e+00
3.010000000000000000e+02,7.312523994931204641e+00
3.020000000000000000e+02,7.320566172521520976e+00
3.030000000000000000e+02,7.328575897958472751e+00
3.040000000000000000e+02,7.336553364379306608e+00
3.050000000000000000e+02,7.344498979866235899e+00
3.060000000000000000e+02,7.352412932050259364e+00
3.070000000000000000e+02,7.360295190491959794e+00
3.080000000000000000e+02,7.368146155877165704e+00
3.090000000000000000e+02,7.375965794782425533e+00
3.100000000000000000e+02,7.383754717829064340e+00
3.110000000000000000e+02,7.391512887355592198e+00
3.120000000000000000e+02,7.399240479471951737e+00
3.130000000000000000e+02,7.406937668463543289e+00
3.140000000000000000e+02,7.414604413888415735e+00
3.150000000000000000e+02,7.422241312753783404e+00
3.160000000000000000e+02,7.429848108598034351e+00
3.170000000000000000e+02,7.437425604826106706e+00
3.180000000000000000e+02,7.444973330808462464e+00
3.190000000000000000e+02,7.452491662459872046e+00
3.200000000000000000e+02,7.459981182676481026e+00
3.210000000000000000e+02,7.467441629658154945e+00
3.220000000000000000e+02,7.474873371892569729e+00
3.230000000000000000e+02,7.482276565527071099e+00
3.240000000000000000e+02,7.489650947793409230e+00
3.250000000000000000e+02,7.496997090759470517e+00
3.260000000000000000e+02,7.504315353834944524e+00
3.270000000000000000e+02,7.511605470933768736e+00
3.280000000000000000e+02,7.518868213041608684e+00
3.290000000000000000e+02,7.526102898240726979e+00
3.300000000000000000e+02,7.533310087163567204e+00
3.310000000000000000e+02,7.540490129979680489e+00
3.320000000000000000e+02,7.547642757440453209e+00
3.330000000000000000e+02,7.554768727540535522e+00
3.340000000000000000e+02,7.561867768703661952e+00
3.350000000000000000e+02,7.568940019769726746e+00
3.360000000000000000e+02,7.575985822209119647e+00
3.370000000000000000e+02,7.583004903948186382e+00
3.380000000000000000e+02,7.589998213845201569e+00
3.390000000000000000e+02,7.596965070881311455e+00
3.400000000000000000e+02,7.603906013497121030e+00
3.410000000000000000e+02,7.610821171754266423e+00
3.420000000000000000e+02,7.617710674503031854e+00
3.430000000000000000e+02,7.624574649397503734e+00
3.440000000000000000e+02,7.631413021908855399e+00
3.450000000000000000e+02,7.638226520348175619e+00
3.460000000000000000e+02,7.645014265290483557e+00
3.470000000000000000e+02,7.651777782475825518e+00
3.480000000000000000e+02,7.658515992073961165e+00
3.490000000000000000e+02,7.665229813904976375e+00
3.500000000000000000e+02,7.671918768916259346e+00
3.510000000000000000e+02,7.678583572377099209e+00
3.520000000000000000e+02,7.685223546981160503e+00
3.530000000000000000e+02,7.691839800546606654e+00
3.540000000000000000e+02,7.698431655392569795e+00
3.550000000000000000e+02,7.704999818493847741e+00
3.560000000000000000e+02,7.711544401240234770e+00
3.570000000000000000e+02,7.718064727984055295e+00
3.580000000000000000e+02,7.724562089225041284e+00
3.590000000000000000e+02,7.731035416315267028e+00
3.600000000000000000e+02,7.737485798328289199e+00
3.610000000000000000e+02,7.743913340844328808e+00
3.620000000000000000e+02,7.750317369003266954e+00
3.630000000000000000e+02,7.756698184974074373e+00
3.640000000000000000e+02,7.763056671438731016e+00
3.650000000000000000e+02,7.769392153689444136e+00
3.660000000000000000e+02,7.775705122859194240e+00
3.670000000000000000e+02,7.781995680085179501e+00
3.680000000000000000e+02,7.788263925640725560e+00
3.690000000000000000e+02,7.794509766267233353e+00
3.700000000000000000e+02,7.800733493832217036e+00
3.710000000000000000e+02,7.806935398135450122e+00
3.720000000000000000e+02,7.813114999891187296e+00
3.730000000000000000e+02,7.819272971387974280e+00
3.740000000000000000e+02,7.825409407006544527e+00
3.750000000000000000e+02,7.831524209479479026e+00
3.760000000000000000e+02,7.837617091383195955e+00
3.770000000000000000e+02,7.843689098758424905e+00
3.780000000000000000e+02,7.849739561204535754e+00
3.790000000000000000e+02,7.855769140044846388e+00
3.800000000000000000e+02,7.861777166596391808e+00
3.810000000000000000e+02,7.867764678019961266e+00
3.820000000000000000e+02,7.873731194427000979e+00
3.830000000000000000e+02,7.879676804252373934e+00
3.840000000000000000e+02,7.885601783460545633e+00
3.850000000000000000e+02,7.891506406174932486e+00
3.860000000000000000e+02,7.897390757011127249e+00
3.870000000000000000e+02,7.903254357668187957e+00
3.880000000000000000e+02,7.909097668170328888e+00
3.890000000000000000e+02,7.914921145645604561e+00
3.900000000000000000e+02,7.920724311432938869e+00
3.910000000000000000e+02,7.926507621065415954e+00
3.920000000000000000e+02,7.932270969117352521e+00
3.930000000000000000e+02,7.938014436375890881e+00
3.940000000000000000e+02,7.943738474001249550e+00
3.950000000000000000e+02,7.949442418947396227e+00
3.960000000000000000e+02,7.955127461552820911e+00
3.970000000000000000e+02,7.960792753361063845e+00
3.980000000000000000e+02,7.966438557277258248e+00
