# Time [s], Mass [Kg]
1.000000000000000000e+00,1.000000000000000000e+00
2.000000000000000000e+00,1.000000000000000000e+00
3.000000000000000000e+00,1.000000000000000000e+00
4.000000000000000000e+00,1.000000000000000000e+00
5.000000000000000000e+00,1.000000000000000000e+00
6.000000000000000000e+00,1.000000000000000000e+00
7.000000000000000000e+00,9.999997600000000153e-01
8.000000000000000000e+00,9.999985099999999516e-01
9.000000000000000000e+00,9.999919499999999628e-01
1.000000000000000000e+01,9.999639399999999956e-01
1.100000000000000000e+01,9.998739399999999611e-01
1.200000000000000000e+01,9.996409400000000334e-01
1.300000000000000000e+01,9.991307299999999669e-01
1.400000000000000000e+01,9.981794999999999973e-01
1.500000000000000000e+01,9.966813900000000004e-01
1.600000000000000000e+01,9.946618699999999480e-01
1.700000000000000000e+01,9.918904299999999896e-01
1.800000000000000000e+01,9.894556399999999696e-01
1.900000000000000000e+01,9.865309599999999568e-01
2.000000000000000000e+01,9.837984400000000518e-01
2.100000000000000000e+01,9.810634299999999586e-01
2.200000000000000000e+01,9.786092600000000363e-01
2.300000000000000000e+01,9.763901200000000280e-01
2.400000000000000000e+01,9.744907600000000114e-01
2.500000000000000000e+01,9.726616099999999543e-01
2.600000000000000000e+01,9.706552600000000197e-01
2.700000000000000000e+01,9.683438500000000060e-01
2.800000000000000000e+01,9.657917599999999991e-01
2.900000000000000000e+01,9.631507999999999736e-01
3.000000000000000000e+01,9.605304000000000064e-01
3.100000000000000000e+01,9.580262299999999787e-01
3.200000000000000000e+01,9.556911000000000156e-01
3.300000000000000000e+01,9.535522499999999901e-01
3.400000000000000000e+01,9.515753399999999917e-01
3.500000000000000000e+01,9.496716299999999888e-01
3.600000000000000000e+01,9.477177900000000044e-01
3.700000000000000000e+01,9.456244099999999708e-01
3.800000000000000000e+01,9.433832199999999668e-01
3.900000000000000000e+01,9.410465999999999553e-01
4.000000000000000000e+01,9.386886399999999631e-01
4.100000000000000000e+01,9.363758599999999488e-01
4.200000000000000000e+01,9.341580299999999726e-01
4.300000000000000000e+01,9.320616099999999848e-01
4.400000000000000000e+01,9.300856600000000363e-01
4.500000000000000000e+01,9.281989899999999460e-01
4.600000000000000000e+01,9.263473199999999741e-01
4.700000000000000000e+01,9.244704200000000149e-01
4.800000000000000000e+01,9.225261799999999734e-01
4.900000000000000000e+01,9.205049899999999674e-01
5.000000000000000000e+01,9.184256800000000220e-01
5.100000000000000000e+01,9.163227699999999531e-01
5.200000000000000000e+01,9.142337400000000169e-01
5.300000000000000000e+01,9.121902600000000305e-01
5.400000000000000000e+01,9.102132299999999843e-01
5.500000000000000000e+01,9.083099399999999823e-01
5.600000000000000000e+01,9.064727999999999675e-01
5.700000000000000000e+01,9.046792999999999640e-01
5.800000000000000000e+01,9.028999800000000464e-01
5.900000000000000000e+01,9.011056400000000410e-01
6.000000000000000000e+01,8.992759599999999853e-01
6.100000000000000000e+01,8.974062200000000322e-01
6.200000000000000000e+01,8.955028699999999509e-01
6.300000000000000000e+01,8.935831800000000325e-01
6.400000000000000000e+01,8.916660499999999878e-01
6.500000000000000000e+01,8.897696099999999886e-01
6.600000000000000000e+01,8.874548100000000384e-01
6.700000000000000000e+01,8.854700899999999875e-01
6.800000000000000000e+01,8.835813399999999929e-01
6.900000000000000000e+01,8.817875400000000363e-01
7.000000000000000000e+01,8.800318200000000202e-01
7.100000000000000000e+01,8.782700300000000349e-01
7.200000000000000000e+01,8.764838000000000351e-01
7.300000000000000000e+01,8.746640100000000473e-01
7.400000000000000000e+01,8.728164999999999951e-01
7.500000000000000000e+01,8.709530199999999667e-01
7.600000000000000000e+01,8.690881099999999693e-01
7.700000000000000000e+01,8.672345900000000274e-01
7.800000000000000000e+01,8.654019800000000151e-01
7.900000000000000000e+01,8.635957800000000351e-01
8.000000000000000000e+01,8.618155699999999753e-01
8.100000000000000000e+01,8.600559800000000532e-01
8.200000000000000000e+01,8.583073599999999637e-01
8.300000000000000000e+01,8.565585000000000004e-01
8.400000000000000000e+01,8.547989099999999674e-01
8.500000000000000000e+01,8.530208500000000527e-01
8.600000000000000000e+01,8.512216799999999806e-01
8.700000000000000000e+01,8.494024300000000416e-01
8.800000000000000000e+01,8.475682700000000125e-01
8.900000000000000000e+01,8.457258300000000117e-01
9.000000000000000000e+01,8.438822599999999952e-01
9.100000000000000000e+01,8.420434599999999659e-01
9.200000000000000000e+01,8.402128800000000508e-01
9.300000000000000000e+01,8.383914799999999667e-01
9.400000000000000000e+01,8.365766999999999509e-01
9.500000000000000000e+01,8.347640600000000299e-01
9.600000000000000000e+01,8.329473099999999963e-01
9.700000000000000000e+01,8.311204899999999895e-01
9.800000000000000000e+01,8.292787099999999745e-01
9.900000000000000000e+01,8.274191600000000424e-01
1.000000000000000000e+02,8.255415600000000076e-01
1.010000000000000000e+02,8.236478000000000410e-01
1.020000000000000000e+02,8.217413999999999552e-01
1.030000000000000000e+02,8.198260099999999939e-01
1.040000000000000000e+02,8.179053099999999965e-01
1.050000000000000000e+02,8.159810299999999961e-01
1.060000000000000000e+02,8.140537700000000099e-01
1.070000000000000000e+02,8.121219299999999919e-01
1.080000000000000000e+02,8.101827499999999516e-01
1.090000000000000000e+02,8.082323099999999538e-01
1.100000000000000000e+02,8.062665500000000263e-01
1.110000000000000000e+02,8.042823700000000242e-01
1.120000000000000000e+02,8.022777399999999615e-01
1.130000000000000000e+02,8.002521999999999691e-01
1.140000000000000000e+02,7.982064500000000118e-01
1.150000000000000000e+02,7.961425199999999647e-01
1.160000000000000000e+02,7.940621399999999719e-01
1.170000000000000000e+02,7.919667999999999708e-01
1.180000000000000000e+02,7.898569699999999916e-01
1.190000000000000000e+02,7.877320100000000380e-01
1.200000000000000000e+02,7.855902299999999450e-01
1.210000000000000000e+02,7.834292099999999870e-01
1.220000000000000000e+02,7.809549000000000074e-01
1.230000000000000000e+02,7.786122599999999450e-01
1.240000000000000000e+02,7.762942299999999740e-01
1.250000000000000000e+02,7.739790100000000228e-01
1.260000000000000000e+02,7.716523400000000477e-01
1.270000000000000000e+02,7.693098800000000015e-01
1.280000000000000000e+02,7.669483400000000062e-01
1.290000000000000000e+02,7.645655900000000171e-01
1.300000000000000000e+02,7.621591100000000285e-01
1.310000000000000000e+02,7.597256300000000406e-01
1.320000000000000000e+02,7.572616300000000189e-01
1.330000000000000000e+02,7.547635999999999790e-01
1.340000000000000000e+02,7.522286799999999829e-01
1.350000000000000000e+02,7.496550100000000105e-01
1.360000000000000000e+02,7.470419999999999838e-01
1.370000000000000000e+02,7.443898300000000301e-01
1.380000000000000000e+02,7.416991600000000240e-01
1.390000000000000000e+02,7.389712899999999474e-01
1.400000000000000000e+02,7.362075399999999936e-01
1.410000000000000000e+02,7.334088100000000221e-01
1.420000000000000000e+02,7.305759800000000137e-01
1.430000000000000000e+02,7.277093500000000326e-01
1.440000000000000000e+02,7.248097700000000199e-01
1.450000000000000000e+02,7.218779899999999694e-01
1.460000000000000000e+02,7.189156399999999669e-01
1.470000000000000000e+02,7.159246799999999800e-01
1.480000000000000000e+02,7.129079699999999464e-01
1.490000000000000000e+02,7.098684299999999947e-01
1.500000000000000000e+02,7.068096999999999852e-01
1.510000000000000000e+02,7.037351099999999970e-01
1.520000000000000000e+02,7.006480699999999562e-01
1.530000000000000000e+02,6.975516699999999570e-01
1.540000000000000000e+02,6.944486500000000007e-01
1.550000000000000000e+02,6.913419400000000437e-01
1.560000000000000000e+02,6.882342099999999574e-01
1.570000000000000000e+02,6.851281500000000468e-01
1.580000000000000000e+02,6.820264499999999508e-01
1.590000000000000000e+02,6.789318300000000139e-01
1.600000000000000000e+02,6.758468199999999593e-01
1.610000000000000000e+02,6.725254699999999586e-01
1.620000000000000000e+02,6.693297599999999958e-01
1.630000000000000000e+02,6.662041499999999949e-01
1.640000000000000000e+02,6.631273600000000545e-01
1.650000000000000000e+02,6.600887199999999622e-01
1.660000000000000000e+02,6.570825000000000138e-01
1.670000000000000000e+02,6.541060199999999547e-01
1.680000000000000000e+02,6.511582099999999595e-01
1.690000000000000000e+02,6.482384799999999503e-01
1.700000000000000000e+02,6.453467600000000193e-01
1.710000000000000000e+02,6.424832900000000402e-01
1.720000000000000000e+02,6.396487400000000489e-01
1.730000000000000000e+02,6.368436200000000547e-01
1.740000000000000000e+02,6.340690900000000019e-01
1.750000000000000000e+02,6.313261399999999801e-01
1.760000000000000000e+02,6.286165099999999617e-01
1.770000000000000000e+02,6.259417499999999634e-01
1.780000000000000000e+02,6.233038300000000032e-01
1.790000000000000000e+02,6.207047700000000168e-01
1.800000000000000000e+02,6.181468399999999752e-01
1.810000000000000000e+02,6.156324699999999872e-01
1.820000000000000000e+02,6.131644200000000433e-01
1.830000000000000000e+02,6.107457299999999867e-01
1.840000000000000000e+02,6.083798400000000051e-01
1.850000000000000000e+02,6.060706999999999622e-01
1.860000000000000000e+02,6.038225900000000479e-01
1.870000000000000000e+02,6.016407599999999967e-01
1.880000000000000000e+02,5.995307600000000514e-01
1.890000000000000000e+02,5.974990700000000210e-01
1.900000000000000000e+02,5.955527999999999933e-01
1.910000000000000000e+02,5.937002900000000194e-01
1.920000000000000000e+02,5.919505999999999935e-01
1.930000000000000000e+02,5.903139699999999657e-01
1.940000000000000000e+02,5.888017399999999624e-01
1.950000000000000000e+02,5.874259499999999745e-01
1.960000000000000000e+02,5.861988099999999591e-01
1.970000000000000000e+02,5.851321200000000333e-01
1.980000000000000000e+02,5.842353099999999522e-01
1.990000000000000000e+02,5.835131399999999857e-01
2.000000000000000000e+02,5.829631699999999750e-01
2.010000000000000000e+02,5.825723999999999902e-01
2.020000000000000000e+02,5.823169400000000051e-01
2.030000000000000000e+02,5.821645300000000134e-01
2.040000000000000000e+02,5.820813200000000132e-01
2.050000000000000000e+02,5.820391200000000209e-01
2.060000000000000000e+02,5.820187300000000397e-01
2.070000000000000000e+02,5.820090199999999880e-01
2.080000000000000000e+02,5.820044300000000170e-01
2.090000000000000000e+02,5.820022200000000145e-01
2.100000000000000000e+02,5.820011499999999671e-01
2.110000000000000000e+02,5.820006100000000293e-01
2.120000000000000000e+02,5.820003200000000154e-01
2.130000000000000000e+02,5.820001999999999676e-01
2.140000000000000000e+02,5.820000800000000307e-01
2.150000000000000000e+02,5.820000800000000307e-01
2.160000000000000000e+02,5.820000199999999513e-01
2.170000000000000000e+02,5.820000199999999513e-01
2.180000000000000000e+02,5.820000199999999513e-01
2.190000000000000000e+02,5.820000199999999513e-01
2.200000000000000000e+02,5.820000199999999513e-01
2.210000000000000000e+02,5.820000199999999513e-01
2.220000000000000000e+02,5.820000199999999513e-01
2.230000000000000000e+02,5.820000199999999513e-01
2.240000000000000000e+02,5.820000199999999513e-01
2.250000000000000000e+02,5.820000199999999513e-01
2.260000000000000000e+02,5.820000199999999513e-01
2.270000000000000000e+02,5.820000199999999513e-01
2.280000000000000000e+02,5.820000199999999513e-01
2.290000000000000000e+02,5.820000199999999513e-01
2.300000000000000000e+02,5.820000199999999513e-01
2.310000000000000000e+02,5.820000199999999513e-01
2.320000000000000000e+02,5.820000199999999513e-01
2.330000000000000000e+02,5.820000199999999513e-01
2.340000000000000000e+02,5.820000199999999513e-01
2.350000000000000000e+02,5.820000199999999513e-01
2.360000000000000000e+02,5.820000199999999513e-01
2.370000000000000000e+02,5.820000199999999513e-01
2.380000000000000000e+02,5.820000199999999513e-01
2.390000000000000000e+02,5.820000199999999513e-01
2.400000000000000000e+02,5.820000199999999513e-01
2.410000000000000000e+02,5.820000199999999513e-01
2.420000000000000000e+02,5.820000199999999513e-01
2.430000000000000000e+02,5.820000199999999513e-01
2.440000000000000000e+02,5.820000199999999513e-01
2.450000000000000000e+02,5.820000199999999513e-01
2.460000000000000000e+02,5.820000199999999513e-01
2.470000000000000000e+02,5.820000199999999513e-01
2.480000000000000000e+02,5.820000199999999513e-01
2.490000000000000000e+02,5.820000199999999513e-01
2.500000000000000000e+02,5.820000199999999513e-01
2.510000000000000000e+02,5.820000199999999513e-01
2.520000000000000000e+02,5.820000199999999513e-01
2.530000000000000000e+02,5.820000199999999513e-01
2.540000000000000000e+02,5.820000199999999513e-01
2.550000000000000000e+02,5.820000199999999513e-01
2.560000000000000000e+02,5.820000199999999513e-01
2.570000000000000000e+02,5.820000199999999513e-01
2.580000000000000000e+02,5.820000199999999513e-01
2.590000000000000000e+02,5.820000199999999513e-01
2.600000000000000000e+02,5.820000199999999513e-01
2.610000000000000000e+02,5.820000199999999513e-01
2.620000000000000000e+02,5.820000199999999513e-01
2.630000000000000000e+02,5.820000199999999513e-01
2.640000000000000000e+02,5.820000199999999513e-01
2.650000000000000000e+02,5.820000199999999513e-01
2.660000000000000000e+02,5.820000199999999513e-01
2.670000000000000000e+02,5.820000199999999513e-01
2.680000000000000000e+02,5.820000199999999513e-01
2.690000000000000000e+02,5.820000199999999513e-01
2.700000000000000000e+02,5.820000199999999513e-01
2.710000000000000000e+02,5.820000199999999513e-01
2.720000000000000000e+02,5.820000199999999513e-01
2.730000000000000000e+02,5.820000199999999513e-01
2.740000000000000000e+02,5.820000199999999513e-01
2.750000000000000000e+02,5.820000199999999513e-01
2.760000000000000000e+02,5.820000199999999513e-01
2.770000000000000000e+02,5.820000199999999513e-01
2.780000000000000000e+02,5.820000199999999513e-01
2.790000000000000000e+02,5.820000199999999513e-01
2.800000000000000000e+02,5.820000199999999513e-01
2.810000000000000000e+02,5.820000199999999513e-01
2.820000000000000000e+02,5.820000199999999513e-01
2.830000000000000000e+02,5.820000199999999513e-01
2.840000000000000000e+02,5.820000199999999513e-01
2.850000000000000000e+02,5.820000199999999513e-01
2.860000000000000000e+02,5.820000199999999513e-01
2.870000000000000000e+02,5.820000199999999513e-01
2.880000000000000000e+02,5.820000199999999513e-01
2.890000000000000000e+02,5.820000199999999513e-01
2.900000000000000000e+02,5.820000199999999513e-01
2.910000000000000000e+02,5.820000199999999513e-01
2.920000000000000000e+02,5.820000199999999513e-01
2.930000000000000000e+02,5.820000199999999513e-01
2.940000000000000000e+02,5.820000199999999513e-01
2.950000000000000000e+02,5.820000199999999513e-01
2.960000000000000000e+02,5.820000199999999513e-01
2.970000000000000000e+02,5.820000199999999513e-01
2.980000000000000000e+02,5.820000199999999513e-01
2.990000000000000000e+02,5.820000199999999513e-01
3.000000000000000000e+02,5.820000199999999513e-01
3.010000000000000000e+02,5.820000199999999513e-01
3.020000000000000000e+02,5.820000199999999513e-01
3.030000000000000000e+02,5.820000199999999513e-01
3.040000000000000000e+02,5.820000199999999513e-01
3.050000000000000000e+02,5.820000199999999513e-01
3.060000000000000000e+02,5.820000199999999513e-01
3.070000000000000000e+02,5.820000199999999513e-01
3.080000000000000000e+02,5.820000199999999513e-01
3.090000000000000000e+02,5.820000199999999513e-01
3.100000000000000000e+02,5.820000199999999513e-01
3.110000000000000000e+02,5.820000199999999513e-01
3.120000000000000000e+02,5.820000199999999513e-01
3.130000000000000000e+02,5.820000199999999513e-01
3.140000000000000000e+02,5.820000199999999513e-01
3.150000000000000000e+02,5.820000199999999513e-01
3.160000000000000000e+02,5.820000199999999513e-01
3.170000000000000000e+02,5.820000199999999513e-01
3.180000000000000000e+02,5.820000199999999513e-01
3.190000000000000000e+02,5.820000199999999513e-01
3.200000000000000000e+02,5.820000199999999513e-01
3.210000000000000000e+02,5.820000199999999513e-01
3.220000000000000000e+02,5.820000199999999513e-01
3.230000000000000000e+02,5.820000199999999513e-01
3.240000000000000000e+02,5.820000199999999513e-01
3.250000000000000000e+02,5.820000199999999513e-01
3.260000000000000000e+02,5.820000199999999513e-01
3.270000000000000000e+02,5.820000199999999513e-01
3.280000000000000000e+02,5.820000199999999513e-01
3.290000000000000000e+02,5.820000199999999513e-01
3.300000000000000000e+02,5.820000199999999513e-01
3.310000000000000000e+02,5.820000199999999513e-01
3.320000000000000000e+02,5.820000199999999513e-01
3.330000000000000000e+02,5.820000199999999513e-01
3.340000000000000000e+02,5.820000199999999513e-01
3.350000000000000000e+02,5.820000199999999513e-01
3.360000000000000000e+02,5.820000199999999513e-01
3.370000000000000000e+02,5.820000199999999513e-01
3.380000000000000000e+02,5.820000199999999513e-01
3.390000000000000000e+02,5.820000199999999513e-01
3.400000000000000000e+02,5.820000199999999513e-01
3.410000000000000000e+02,5.820000199999999513e-01
3.420000000000000000e+02,5.820000199999999513e-01
3.430000000000000000e+02,5.820000199999999513e-01
3.440000000000000000e+02,5.820000199999999513e-01
3.450000000000000000e+02,5.820000199999999513e-01
3.460000000000000000e+02,5.820000199999999513e-01
3.470000000000000000e+02,5.820000199999999513e-01
3.480000000000000000e+02,5.820000199999999513e-01
3.490000000000000000e+02,5.820000199999999513e-01
3.500000000000000000e+02,5.820000199999999513e-01
3.510000000000000000e+02,5.820000199999999513e-01
3.520000000000000000e+02,5.820000199999999513e-01
3.530000000000000000e+02,5.820000199999999513e-01
3.540000000000000000e+02,5.820000199999999513e-01
3.550000000000000000e+02,5.820000199999999513e-01
3.560000000000000000e+02,5.820000199999999513e-01
3.570000000000000000e+02,5.820000199999999513e-01
3.580000000000000000e+02,5.820000199999999513e-01
3.590000000000000000e+02,5.820000199999999513e-01
3.600000000000000000e+02,5.820000199999999513e-01
3.610000000000000000e+02,5.820000199999999513e-01
3.620000000000000000e+02,5.820000199999999513e-01
3.630000000000000000e+02,5.820000199999999513e-01
3.640000000000000000e+02,5.820000199999999513e-01
3.650000000000000000e+02,5.820000199999999513e-01
3.660000000000000000e+02,5.820000199999999513e-01
3.670000000000000000e+02,5.820000199999999513e-01
3.680000000000000000e+02,5.820000199999999513e-01
3.690000000000000000e+02,5.820000199999999513e-01
3.700000000000000000e+02,5.820000199999999513e-01
3.710000000000000000e+02,5.820000199999999513e-01
3.720000000000000000e+02,5.820000199999999513e-01
3.730000000000000000e+02,5.820000199999999513e-01
3.740000000000000000e+02,5.820000199999999513e-01
3.750000000000000000e+02,5.820000199999999513e-01
3.760000000000000000e+02,5.820000199999999513e-01
3.770000000000000000e+02,5.820000199999999513e-01
3.780000000000000000e+02,5.820000199999999513e-01
3.790000000000000000e+02,5.820000199999999513e-01
3.800000000000000000e+02,5.820000199999999513e-01
3.810000000000000000e+02,5.820000199999999513e-01
3.820000000000000000e+02,5.820000199999999513e-01
3.830000000000000000e+02,5.820000199999999513e-01
3.840000000000000000e+02,5.820000199999999513e-01
3.850000000000000000e+02,5.820000199999999513e-01
3.860000000000000000e+02,5.820000199999999513e-01
3.870000000000000000e+02,5.820000199999999513e-01
3.880000000000000000e+02,5.820000199999999513e-01
3.890000000000000000e+02,5.820000199999999513e-01
3.900000000000000000e+02,5.820000199999999513e-01
3.910000000000000000e+02,5.820000199999999513e-01
3.920000000000000000e+02,5.820000199999999513e-01
3.930000000000000000e+02,5.820000199999999513e-01
3.940000000000000000e+02,5.820000199999999513e-01
3.950000000000000000e+02,5.820000199999999513e-01
3.960000000000000000e+02,5.820000199999999513e-01
3.970000000000000000e+02,5.820000199999999513e-01
3.980000000000000000e+02,5.820000199999999513e-01
3.990000000000000000e+02,5.820000199999999513e-01
