# Time [s], Mass [Kg]
1.000000000000000000e+00,1.000000000000000000e+00
2.000000000000000000e+00,1.000000000000000000e+00
3.000000000000000000e+00,1.000000000000000000e+00
4.000000000000000000e+00,1.000000000000000000e+00
5.000000000000000000e+00,1.000000000000000000e+00
6.000000000000000000e+00,1.000000000000000000e+00
7.000000000000000000e+00,9.999998199999999837e-01
8.000000000000000000e+00,9.999986899999999679e-01
9.000000000000000000e+00,9.999933800000000428e-01
1.000000000000000000e+01,9.999734200000000017e-01
1.100000000000000000e+01,9.999105299999999641e-01
1.200000000000000000e+01,9.997455499999999828e-01
1.300000000000000000e+01,9.993750500000000425e-01
1.400000000000000000e+01,9.986578799999999978e-01
1.500000000000000000e+01,9.974752700000000250e-01
1.600000000000000000e+01,9.957954300000000369e-01
1.700000000000000000e+01,9.936994900000000186e-01
1.800000000000000000e+01,9.909648899999999871e-01
1.900000000000000000e+01,9.886440600000000467e-01
2.000000000000000000e+01,9.859199499999999894e-01
2.100000000000000000e+01,9.834983299999999762e-01
2.200000000000000000e+01,9.809953000000000145e-01
2.300000000000000000e+01,9.786961699999999764e-01
2.400000000000000000e+01,9.766259200000000362e-01
2.500000000000000000e+01,9.746326199999999496e-01
2.600000000000000000e+01,9.726461199999999474e-01
2.700000000000000000e+01,9.706143099999999801e-01
2.800000000000000000e+01,9.684666400000000452e-01
2.900000000000000000e+01,9.661975499999999606e-01
3.000000000000000000e+01,9.638879299999999484e-01
3.100000000000000000e+01,9.615833200000000192e-01
3.200000000000000000e+01,9.593206600000000472e-01
3.300000000000000000e+01,9.571356800000000442e-01
3.400000000000000000e+01,9.550386100000000100e-01
3.500000000000000000e+01,9.530183700000000036e-01
3.600000000000000000e+01,9.510465299999999456e-01
3.700000000000000000e+01,9.490799899999999845e-01
3.800000000000000000e+01,9.470798999999999745e-01
3.900000000000000000e+01,9.450241900000000417e-01
4.000000000000000000e+01,9.429168100000000496e-01
4.100000000000000000e+01,9.407786700000000391e-01
4.200000000000000000e+01,9.386404200000000309e-01
4.300000000000000000e+01,9.365309499999999732e-01
4.400000000000000000e+01,9.344706499999999583e-01
4.500000000000000000e+01,9.324684699999999937e-01
4.600000000000000000e+01,9.305208900000000449e-01
4.700000000000000000e+01,9.286129499999999926e-01
4.800000000000000000e+01,9.267229399999999950e-01
4.900000000000000000e+01,9.248284700000000136e-01
5.000000000000000000e+01,9.229142700000000366e-01
5.100000000000000000e+01,9.209746100000000268e-01
5.200000000000000000e+01,9.190145100000000067e-01
5.300000000000000000e+01,9.170457699999999823e-01
5.400000000000000000e+01,9.150844200000000095e-01
5.500000000000000000e+01,9.131434600000000179e-01
5.600000000000000000e+01,9.112332499999999946e-01
5.700000000000000000e+01,9.093577900000000547e-01
5.800000000000000000e+01,9.075143300000000357e-01
5.900000000000000000e+01,9.056954400000000183e-01
6.000000000000000000e+01,9.038893599999999751e-01
6.100000000000000000e+01,9.020846500000000434e-01
6.200000000000000000e+01,9.002723099999999645e-01
6.300000000000000000e+01,8.984474500000000363e-01
6.400000000000000000e+01,8.966112099999999918e-01
6.500000000000000000e+01,8.947681800000000241e-01
6.600000000000000000e+01,8.929249599999999898e-01
6.700000000000000000e+01,8.910894999999999788e-01
6.800000000000000000e+01,8.892679199999999895e-01
6.900000000000000000e+01,8.874638700000000435e-01
7.000000000000000000e+01,8.853830700000000498e-01
7.100000000000000000e+01,8.834623700000000524e-01
7.200000000000000000e+01,8.815888800000000192e-01
7.300000000000000000e+01,8.797544800000000054e-01
7.400000000000000000e+01,8.779386900000000216e-01
7.500000000000000000e+01,8.761254499999999723e-01
7.600000000000000000e+01,8.743097800000000364e-01
7.700000000000000000e+01,8.724902300000000333e-01
7.800000000000000000e+01,8.706685899999999645e-01
7.900000000000000000e+01,8.688495800000000102e-01
8.000000000000000000e+01,8.670363399999999610e-01
8.100000000000000000e+01,8.652322900000000150e-01
8.200000000000000000e+01,8.634381300000000259e-01
8.300000000000000000e+01,8.616526100000000410e-01
8.400000000000000000e+01,8.598727600000000137e-01
8.500000000000000000e+01,8.580943899999999847e-01
8.600000000000000000e+01,8.563130500000000200e-01
8.700000000000000000e+01,8.545247900000000341e-01
8.800000000000000000e+01,8.527267600000000281e-01
8.900000000000000000e+01,8.509184100000000139e-01
9.000000000000000000e+01,8.490998100000000104e-01
9.100000000000000000e+01,8.472728699999999558e-01
9.200000000000000000e+01,8.454400300000000090e-01
9.300000000000000000e+01,8.436036099999999482e-01
9.400000000000000000e+01,8.417651699999999515e-01
9.500000000000000000e+01,8.399256499999999681e-01
9.600000000000000000e+01,8.380842800000000148e-01
9.700000000000000000e+01,8.362400500000000125e-01
9.800000000000000000e+01,8.343907600000000091e-01
9.900000000000000000e+01,8.325339000000000489e-01
1.000000000000000000e+02,8.306670800000000021e-01
1.010000000000000000e+02,8.287885799999999970e-01
1.020000000000000000e+02,8.268975600000000314e-01
1.030000000000000000e+02,8.249937899999999491e-01
1.040000000000000000e+02,8.230778600000000500e-01
1.050000000000000000e+02,8.211504200000000475e-01
1.060000000000000000e+02,8.192127900000000240e-01
1.070000000000000000e+02,8.172651499999999958e-01
1.080000000000000000e+02,8.153078000000000269e-01
1.090000000000000000e+02,8.133403099999999553e-01
1.100000000000000000e+02,8.113614300000000501e-01
1.110000000000000000e+02,8.093698000000000281e-01
1.120000000000000000e+02,8.073634499999999825e-01
1.130000000000000000e+02,8.053410100000000238e-01
1.140000000000000000e+02,8.033010400000000217e-01
1.150000000000000000e+02,8.012428900000000409e-01
1.160000000000000000e+02,7.991659599999999530e-01
1.170000000000000000e+02,7.970702100000000012e-01
1.180000000000000000e+02,7.949559099999999878e-01
1.190000000000000000e+02,7.928225399999999645e-01
1.200000000000000000e+02,7.906699200000000261e-01
1.210000000000000000e+02,7.884975100000000126e-01
1.220000000000000000e+02,7.863040000000000029e-01
1.230000000000000000e+02,7.840882500000000421e-01
1.240000000000000000e+02,7.818486100000000549e-01
1.250000000000000000e+02,7.793484299999999809e-01
1.260000000000000000e+02,7.769311700000000043e-01
1.270000000000000000e+02,7.745303500000000341e-01
1.280000000000000000e+02,7.721293599999999868e-01
1.290000000000000000e+02,7.697161399999999931e-01
1.300000000000000000e+02,7.672842699999999905e-01
1.310000000000000000e+02,7.648296999999999457e-01
1.320000000000000000e+02,7.623485899999999926e-01
1.330000000000000000e+02,7.598380999999999608e-01
1.340000000000000000e+02,7.572954899999999601e-01
1.350000000000000000e+02,7.547184200000000009e-01
1.360000000000000000e+02,7.521053599999999451e-01
1.370000000000000000e+02,7.494547400000000081e-01
1.380000000000000000e+02,7.467658499999999533e-01
1.390000000000000000e+02,7.440385800000000049e-01
1.400000000000000000e+02,7.412729300000000521e-01
1.410000000000000000e+02,7.384692999999999952e-01
1.420000000000000000e+02,7.356284899999999682e-01
1.430000000000000000e+02,7.327514899999999498e-01
1.440000000000000000e+02,7.298394400000000060e-01
1.450000000000000000e+02,7.268936000000000286e-01
1.460000000000000000e+02,7.239155800000000029e-01
1.470000000000000000e+02,7.209073299999999573e-01
1.480000000000000000e+02,7.178713100000000402e-01
1.490000000000000000e+02,7.148098299999999794e-01
1.500000000000000000e+02,7.117260699999999884e-01
1.510000000000000000e+02,7.086228700000000158e-01
1.520000000000000000e+02,7.055034000000000027e-01
1.530000000000000000e+02,7.023710600000000470e-01
1.540000000000000000e+02,6.992288800000000526e-01
1.550000000000000000e+02,6.960801500000000086e-01
1.560000000000000000e+02,6.929277200000000247e-01
1.570000000000000000e+02,6.897747499999999921e-01
1.580000000000000000e+02,6.866238700000000250e-01
1.590000000000000000e+02,6.834779399999999505e-01
1.600000000000000000e+02,6.803392799999999907e-01
1.610000000000000000e+02,6.772102700000000031e-01
1.620000000000000000e+02,6.739022700000000254e-01
1.630000000000000000e+02,6.706803999999999544e-01
1.640000000000000000e+02,6.675137300000000273e-01
1.650000000000000000e+02,6.643894299999999475e-01
1.660000000000000000e+02,6.613004799999999683e-01
1.670000000000000000e+02,6.582430599999999909e-01
1.680000000000000000e+02,6.552150199999999813e-01
1.690000000000000000e+02,6.522153000000000533e-01
1.700000000000000000e+02,6.492435300000000131e-01
1.710000000000000000e+02,6.462997200000000220e-01
1.720000000000000000e+02,6.433842800000000306e-01
1.730000000000000000e+02,6.404977400000000376e-01
1.740000000000000000e+02,6.376410700000000320e-01
1.750000000000000000e+02,6.348150999999999655e-01
1.760000000000000000e+02,6.320210099999999942e-01
1.770000000000000000e+02,6.292603599999999631e-01
1.780000000000000000e+02,6.265345199999999837e-01
1.790000000000000000e+02,6.238453400000000260e-01
1.800000000000000000e+02,6.211947799999999464e-01
1.810000000000000000e+02,6.185849900000000012e-01
1.820000000000000000e+02,6.160183500000000478e-01
1.830000000000000000e+02,6.134977900000000428e-01
1.840000000000000000e+02,6.110262899999999719e-01
1.850000000000000000e+02,6.086073499999999914e-01
1.860000000000000000e+02,6.062450400000000128e-01
1.870000000000000000e+02,6.039437100000000225e-01
1.880000000000000000e+02,6.017084099999999713e-01
1.890000000000000000e+02,5.995448199999999783e-01
1.900000000000000000e+02,5.974595000000000322e-01
1.910000000000000000e+02,5.954596399999999567e-01
1.920000000000000000e+02,5.935532999999999504e-01
1.930000000000000000e+02,5.917495499999999575e-01
1.940000000000000000e+02,5.900582699999999958e-01
1.950000000000000000e+02,5.884901900000000241e-01
1.960000000000000000e+02,5.870565199999999706e-01
1.970000000000000000e+02,5.857681599999999822e-01
1.980000000000000000e+02,5.846351400000000531e-01
1.990000000000000000e+02,5.836648899999999918e-01
2.000000000000000000e+02,5.828606499999999802e-01
2.010000000000000000e+02,5.822196600000000277e-01
2.020000000000000000e+02,5.817316799999999732e-01
2.030000000000000000e+02,5.813792300000000246e-01
2.040000000000000000e+02,5.811395599999999995e-01
2.050000000000000000e+02,5.809875700000000087e-01
2.060000000000000000e+02,5.808991799999999595e-01
2.070000000000000000e+02,5.808533399999999958e-01
2.080000000000000000e+02,5.808331399999999700e-01
2.090000000000000000e+02,5.808261000000000118e-01
2.100000000000000000e+02,5.808243199999999495e-01
2.110000000000000000e+02,5.808240199999999964e-01
2.120000000000000000e+02,5.808240199999999964e-01
2.130000000000000000e+02,5.808240199999999964e-01
2.140000000000000000e+02,5.808240199999999964e-01
2.150000000000000000e+02,5.808240199999999964e-01
2.160000000000000000e+02,5.808240199999999964e-01
2.170000000000000000e+02,5.808240199999999964e-01
2.180000000000000000e+02,5.808240199999999964e-01
2.190000000000000000e+02,5.808240199999999964e-01
2.200000000000000000e+02,5.808240199999999964e-01
2.210000000000000000e+02,5.808240199999999964e-01
2.220000000000000000e+02,5.808240199999999964e-01
2.230000000000000000e+02,5.808240199999999964e-01
2.240000000000000000e+02,5.808240199999999964e-01
2.250000000000000000e+02,5.808240199999999964e-01
2.260000000000000000e+02,5.808240199999999964e-01
2.270000000000000000e+02,5.808240199999999964e-01
2.280000000000000000e+02,5.808240199999999964e-01
2.290000000000000000e+02,5.808240199999999964e-01
2.300000000000000000e+02,5.808240199999999964e-01
2.310000000000000000e+02,5.808240199999999964e-01
2.320000000000000000e+02,5.808240199999999964e-01
2.330000000000000000e+02,5.808240199999999964e-01
2.340000000000000000e+02,5.808240199999999964e-01
2.350000000000000000e+02,5.808240199999999964e-01
2.360000000000000000e+02,5.808240199999999964e-01
2.370000000000000000e+02,5.808240199999999964e-01
2.380000000000000000e+02,5.808240199999999964e-01
2.390000000000000000e+02,5.808240199999999964e-01
2.400000000000000000e+02,5.808240199999999964e-01
2.410000000000000000e+02,5.808240199999999964e-01
2.420000000000000000e+02,5.808240199999999964e-01
2.430000000000000000e+02,5.808240199999999964e-01
2.440000000000000000e+02,5.808240199999999964e-01
2.450000000000000000e+02,5.808240199999999964e-01
2.460000000000000000e+02,5.808240199999999964e-01
2.470000000000000000e+02,5.808240199999999964e-01
2.480000000000000000e+02,5.808240199999999964e-01
2.490000000000000000e+02,5.808240199999999964e-01
2.500000000000000000e+02,5.808240199999999964e-01
2.510000000000000000e+02,5.808240199999999964e-01
2.520000000000000000e+02,5.808240199999999964e-01
2.530000000000000000e+02,5.808240199999999964e-01
2.540000000000000000e+02,5.808240199999999964e-01
2.550000000000000000e+02,5.808240199999999964e-01
2.560000000000000000e+02,5.808240199999999964e-01
2.570000000000000000e+02,5.808240199999999964e-01
2.580000000000000000e+02,5.808240199999999964e-01
2.590000000000000000e+02,5.808240199999999964e-01
2.600000000000000000e+02,5.808240199999999964e-01
2.610000000000000000e+02,5.808240199999999964e-01
2.620000000000000000e+02,5.808240199999999964e-01
2.630000000000000000e+02,5.808240199999999964e-01
2.640000000000000000e+02,5.808240199999999964e-01
2.650000000000000000e+02,5.808240199999999964e-01
2.660000000000000000e+02,5.808240199999999964e-01
2.670000000000000000e+02,5.808240199999999964e-01
2.680000000000000000e+02,5.808240199999999964e-01
2.690000000000000000e+02,5.808240199999999964e-01
2.700000000000000000e+02,5.808240199999999964e-01
2.710000000000000000e+02,5.808240199999999964e-01
2.720000000000000000e+02,5.808240199999999964e-01
2.730000000000000000e+02,5.808240199999999964e-01
2.740000000000000000e+02,5.808240199999999964e-01
2.750000000000000000e+02,5.808240199999999964e-01
2.760000000000000000e+02,5.808240199999999964e-01
2.770000000000000000e+02,5.808240199999999964e-01
2.780000000000000000e+02,5.808240199999999964e-01
2.790000000000000000e+02,5.808240199999999964e-01
2.800000000000000000e+02,5.808240199999999964e-01
2.810000000000000000e+02,5.808240199999999964e-01
2.820000000000000000e+02,5.808240199999999964e-01
2.830000000000000000e+02,5.808240199999999964e-01
2.840000000000000000e+02,5.808240199999999964e-01
2.850000000000000000e+02,5.808240199999999964e-01
2.860000000000000000e+02,5.808240199999999964e-01
2.870000000000000000e+02,5.808240199999999964e-01
2.880000000000000000e+02,5.808240199999999964e-01
2.890000000000000000e+02,5.808240199999999964e-01
2.900000000000000000e+02,5.808240199999999964e-01
2.910000000000000000e+02,5.808240199999999964e-01
2.920000000000000000e+02,5.808240199999999964e-01
2.930000000000000000e+02,5.808240199999999964e-01
2.940000000000000000e+02,5.808240199999999964e-01
2.950000000000000000e+02,5.808240199999999964e-01
2.960000000000000000e+02,5.808240199999999964e-01
2.970000000000000000e+02,5.808240199999999964e-01
2.980000000000000000e+02,5.808240199999999964e-01
2.990000000000000000e+02,5.808240199999999964e-01
3.000000000000000000e+02,5.808240199999999964e-01
3.010000000000000000e+02,5.808240199999999964e-01
3.020000000000000000e+02,5.808240199999999964e-01
3.030000000000000000e+02,5.808240199999999964e-01
3.040000000000000000e+02,5.808240199999999964e-01
3.050000000000000000e+02,5.808240199999999964e-01
3.060000000000000000e+02,5.808240199999999964e-01
3.070000000000000000e+02,5.808240199999999964e-01
3.080000000000000000e+02,5.808240199999999964e-01
3.090000000000000000e+02,5.808240199999999964e-01
3.100000000000000000e+02,5.808240199999999964e-01
3.110000000000000000e+02,5.808240199999999964e-01
3.120000000000000000e+02,5.808240199999999964e-01
3.130000000000000000e+02,5.808240199999999964e-01
3.140000000000000000e+02,5.808240199999999964e-01
3.150000000000000000e+02,5.808240199999999964e-01
3.160000000000000000e+02,5.808240199999999964e-01
3.170000000000000000e+02,5.808240199999999964e-01
3.180000000000000000e+02,5.808240199999999964e-01
3.190000000000000000e+02,5.808240199999999964e-01
3.200000000000000000e+02,5.808240199999999964e-01
3.210000000000000000e+02,5.808240199999999964e-01
3.220000000000000000e+02,5.808240199999999964e-01
3.230000000000000000e+02,5.808240199999999964e-01
3.240000000000000000e+02,5.808240199999999964e-01
3.250000000000000000e+02,5.808240199999999964e-01
3.260000000000000000e+02,5.808240199999999964e-01
3.270000000000000000e+02,5.808240199999999964e-01
3.280000000000000000e+02,5.808240199999999964e-01
3.290000000000000000e+02,5.808240199999999964e-01
3.300000000000000000e+02,5.808240199999999964e-01
3.310000000000000000e+02,5.808240199999999964e-01
3.320000000000000000e+02,5.808240199999999964e-01
3.330000000000000000e+02,5.808240199999999964e-01
3.340000000000000000e+02,5.808240199999999964e-01
3.350000000000000000e+02,5.808240199999999964e-01
3.360000000000000000e+02,5.808240199999999964e-01
3.370000000000000000e+02,5.808240199999999964e-01
3.380000000000000000e+02,5.808240199999999964e-01
3.390000000000000000e+02,5.808240199999999964e-01
3.400000000000000000e+02,5.808240199999999964e-01
3.410000000000000000e+02,5.808240199999999964e-01
3.420000000000000000e+02,5.808240199999999964e-01
3.430000000000000000e+02,5.808240199999999964e-01
3.440000000000000000e+02,5.808240199999999964e-01
3.450000000000000000e+02,5.808240199999999964e-01
3.460000000000000000e+02,5.808240199999999964e-01
3.470000000000000000e+02,5.808240199999999964e-01
3.480000000000000000e+02,5.808240199999999964e-01
3.490000000000000000e+02,5.808240199999999964e-01
3.500000000000000000e+02,5.808240199999999964e-01
3.510000000000000000e+02,5.808240199999999964e-01
3.520000000000000000e+02,5.808240199999999964e-01
3.530000000000000000e+02,5.808240199999999964e-01
3.540000000000000000e+02,5.808240199999999964e-01
3.550000000000000000e+02,5.808240199999999964e-01
3.560000000000000000e+02,5.808240199999999964e-01
3.570000000000000000e+02,5.808240199999999964e-01
3.580000000000000000e+02,5.808240199999999964e-01
3.590000000000000000e+02,5.808240199999999964e-01
3.600000000000000000e+02,5.808240199999999964e-01
3.610000000000000000e+02,5.808240199999999964e-01
3.620000000000000000e+02,5.808240199999999964e-01
3.630000000000000000e+02,5.808240199999999964e-01
3.640000000000000000e+02,5.808240199999999964e-01
3.650000000000000000e+02,5.808240199999999964e-01
3.660000000000000000e+02,5.808240199999999964e-01
3.670000000000000000e+02,5.808240199999999964e-01
3.680000000000000000e+02,5.808240199999999964e-01
3.690000000000000000e+02,5.808240199999999964e-01
3.700000000000000000e+02,5.808240199999999964e-01
3.710000000000000000e+02,5.808240199999999964e-01
3.720000000000000000e+02,5.808240199999999964e-01
3.730000000000000000e+02,5.808240199999999964e-01
3.740000000000000000e+02,5.808240199999999964e-01
3.750000000000000000e+02,5.808240199999999964e-01
3.760000000000000000e+02,5.808240199999999964e-01
3.770000000000000000e+02,5.808240199999999964e-01
3.780000000000000000e+02,5.808240199999999964e-01
3.790000000000000000e+02,5.808240199999999964e-01
3.800000000000000000e+02,5.808240199999999964e-01
3.810000000000000000e+02,5.808240199999999964e-01
3.820000000000000000e+02,5.808240199999999964e-01
3.830000000000000000e+02,5.808240199999999964e-01
3.840000000000000000e+02,5.808240199999999964e-01
3.850000000000000000e+02,5.808240199999999964e-01
3.860000000000000000e+02,5.808240199999999964e-01
3.870000000000000000e+02,5.808240199999999964e-01
3.880000000000000000e+02,5.808240199999999964e-01
3.890000000000000000e+02,5.808240199999999964e-01
3.900000000000000000e+02,5.808240199999999964e-01
3.910000000000000000e+02,5.808240199999999964e-01
3.920000000000000000e+02,5.808240199999999964e-01
3.930000000000000000e+02,5.808240199999999964e-01
3.940000000000000000e+02,5.808240199999999964e-01
3.950000000000000000e+02,5.808240199999999964e-01
3.960000000000000000e+02,5.808240199999999964e-01
3.970000000000000000e+02,5.808240199999999964e-01
3.980000000000000000e+02,5.808240199999999964e-01
3.990000000000000000e+02,5.808240199999999964e-01
