# Time [s], Convective Heat Transfer Coefficient [W/m2K]
1.000000000000000000e+00,0.000000000000000000e+00
2.000000000000000000e+00,0.000000000000000000e+00
3.000000000000000000e+00,0.000000000000000000e+00
4.000000000000000000e+00,0.000000000000000000e+00
5.000000000000000000e+00,0.000000000000000000e+00
6.000000000000000000e+00,1.915079995362458862e-02
7.000000000000000000e+00,3.380449737731881787e-02
8.000000000000000000e+00,5.366129469656785722e-02
9.000000000000000000e+00,7.835807837898799144e-02
1.000000000000000000e+01,1.085285621253210958e-01
1.100000000000000000e+01,1.448825958571411110e-01
1.200000000000000000e+01,1.867968630017022291e-01
1.300000000000000000e+01,2.338819170943795545e-01
1.400000000000000000e+01,2.856069317548300401e-01
1.500000000000000000e+01,3.412917028220854854e-01
1.600000000000000000e+01,4.003272745553851930e-01
1.700000000000000000e+01,4.621158305548898615e-01
1.800000000000000000e+01,5.261241854758139658e-01
1.900000000000000000e+01,5.918491000830553572e-01
2.000000000000000000e+01,6.588841517178887219e-01
2.100000000000000000e+01,7.268540299056186482e-01
2.200000000000000000e+01,7.954419310648958019e-01
2.300000000000000000e+01,8.643867484377786292e-01
2.400000000000000000e+01,9.334593247566281837e-01
2.500000000000000000e+01,1.002470176255781720e+00
2.600000000000000000e+01,1.071265915338353469e+00
2.700000000000000000e+01,1.139711690054528104e+00
2.800000000000000000e+01,1.207698243707652663e+00
2.900000000000000000e+01,1.275139830192289825e+00
3.000000000000000000e+01,1.341960220432551587e+00
3.100000000000000000e+01,1.408104861938751506e+00
3.200000000000000000e+01,1.473524970568060199e+00
3.300000000000000000e+01,1.538184723703298840e+00
3.400000000000000000e+01,1.602054247479975491e+00
3.500000000000000000e+01,1.665114093476178558e+00
3.600000000000000000e+01,1.727348167270869483e+00
3.700000000000000000e+01,1.788747276947256770e+00
3.800000000000000000e+01,1.849305735164968434e+00
3.900000000000000000e+01,1.909020360872810462e+00
4.000000000000000000e+01,1.967894306175097752e+00
4.100000000000000000e+01,2.025929853268252590e+00
4.200000000000000000e+01,2.083133192367837339e+00
4.300000000000000000e+01,2.139510053261324707e+00
4.400000000000000000e+01,2.195070637084085341e+00
4.500000000000000000e+01,2.249825969509309243e+00
4.600000000000000000e+01,2.303783702560053381e+00
4.700000000000000000e+01,2.356957058273250194e+00
4.800000000000000000e+01,2.409358787677995384e+00
4.900000000000000000e+01,2.461001258141668924e+00
5.000000000000000000e+01,2.511897831267289938e+00
5.100000000000000000e+01,2.562060543159919490e+00
5.200000000000000000e+01,2.611503119046858945e+00
5.300000000000000000e+01,2.660239538700488016e+00
5.400000000000000000e+01,2.708282908716681536e+00
5.500000000000000000e+01,2.755645805828879968e+00
5.600000000000000000e+01,2.802342498305450569e+00
5.700000000000000000e+01,2.848385841277646158e+00
5.800000000000000000e+01,2.893788810003111500e+00
5.900000000000000000e+01,2.938563999319775188e+00
6.000000000000000000e+01,2.982725321456363599e+00
6.100000000000000000e+01,3.026284560356238718e+00
6.200000000000000000e+01,3.069254842038203090e+00
6.300000000000000000e+01,3.111647138091798936e+00
6.400000000000000000e+01,3.153473093380285697e+00
6.500000000000000000e+01,3.194745356933180513e+00
6.600000000000000000e+01,3.235474511375251883e+00
6.700000000000000000e+01,3.275671582173219409e+00
6.800000000000000000e+01,3.315348060633782623e+00
6.900000000000000000e+01,3.354514053547613894e+00
7.000000000000000000e+01,3.393180245154544750e+00
7.100000000000000000e+01,3.431356915558809728e+00
7.200000000000000000e+01,3.469053963896941095e+00
7.300000000000000000e+01,3.506281025182515165e+00
7.400000000000000000e+01,3.543047387424367756e+00
7.500000000000000000e+01,3.579362742286154031e+00
7.600000000000000000e+01,3.615236414783660202e+00
7.700000000000000000e+01,3.650675893171438258e+00
7.800000000000000000e+01,3.685690524483116182e+00
7.900000000000000000e+01,3.720288371346118339e+00
8.000000000000000000e+01,3.754477814228578847e+00
8.100000000000000000e+01,3.788266617344692833e+00
8.200000000000000000e+01,3.821662535763738155e+00
8.300000000000000000e+01,3.854673309149943883e+00
8.400000000000000000e+01,3.887306579289412589e+00
8.500000000000000000e+01,3.919569282932756416e+00
8.600000000000000000e+01,3.951468153281159079e+00
8.700000000000000000e+01,3.983010469125349395e+00
8.800000000000000000e+01,4.014202555328822974e+00
8.900000000000000000e+01,4.045052141043922411e+00
9.000000000000000000e+01,4.075564093326083714e+00
9.100000000000000000e+01,4.105745276898533191e+00
9.200000000000000000e+01,4.135601737597260907e+00
9.300000000000000000e+01,4.165139230364674816e+00
9.400000000000000000e+01,4.194363436777018173e+00
9.500000000000000000e+01,4.223280099181811131e+00
9.600000000000000000e+01,4.251894755730303288e+00
9.700000000000000000e+01,4.280212752241367546e+00
9.800000000000000000e+01,4.308239127073749231e+00
9.900000000000000000e+01,4.335979189771357767e+00
1.000000000000000000e+02,4.363439056114785330e+00
1.010000000000000000e+02,4.390622257601740408e+00
1.020000000000000000e+02,4.417533857071220815e+00
1.030000000000000000e+02,4.444178459109255463e+00
1.040000000000000000e+02,4.470560294992123040e+00
1.050000000000000000e+02,4.496684112040585823e+00
1.060000000000000000e+02,4.522554113299617207e+00
1.070000000000000000e+02,4.548174893194392610e+00
1.080000000000000000e+02,4.573551023653287473e+00
1.090000000000000000e+02,4.598686833718367950e+00
1.100000000000000000e+02,4.623584834474328886e+00
1.110000000000000000e+02,4.648249228398715793e+00
1.120000000000000000e+02,4.672684051064180721e+00
1.130000000000000000e+02,4.696892861316539047e+00
1.140000000000000000e+02,4.720879500756219649e+00
1.150000000000000000e+02,4.744647871455761390e+00
1.160000000000000000e+02,4.768202035978979403e+00
1.170000000000000000e+02,4.791544221198899223e+00
1.180000000000000000e+02,4.814677431416350295e+00
1.190000000000000000e+02,4.837605461174310229e+00
1.200000000000000000e+02,4.860331272578766182e+00
1.210000000000000000e+02,4.882858310412710345e+00
1.220000000000000000e+02,4.905189604464507802e+00
1.230000000000000000e+02,4.927329090152738900e+00
1.240000000000000000e+02,4.949278366690330166e+00
1.250000000000000000e+02,4.971040305056901865e+00
1.260000000000000000e+02,4.992617583910672785e+00
1.270000000000000000e+02,5.014013536033581353e+00
1.280000000000000000e+02,5.035230551094808327e+00
1.290000000000000000e+02,5.056271671937381029e+00
1.300000000000000000e+02,5.077140113707488744e+00
1.310000000000000000e+02,5.097837185131159465e+00
1.320000000000000000e+02,5.118365180243911183e+00
1.330000000000000000e+02,5.138726984539392362e+00
1.340000000000000000e+02,5.158924776432788128e+00
1.350000000000000000e+02,5.178961495122269554e+00
1.360000000000000000e+02,5.198839122532582735e+00
1.370000000000000000e+02,5.218560611076666689e+00
1.380000000000000000e+02,5.238127287726943138e+00
1.390000000000000000e+02,5.257540820016162186e+00
1.400000000000000000e+02,5.276804044340562605e+00
1.410000000000000000e+02,5.295918377879388572e+00
1.420000000000000000e+02,5.314886853224356500e+00
1.430000000000000000e+02,5.333710893034550260e+00
1.440000000000000000e+02,5.352393267741412330e+00
1.450000000000000000e+02,5.370935330256927820e+00
1.460000000000000000e+02,5.389338273776931310e+00
1.470000000000000000e+02,5.407604418172233807e+00
1.480000000000000000e+02,5.425735263691283450e+00
1.490000000000000000e+02,5.443733098365878043e+00
1.500000000000000000e+02,5.461599834288562327e+00
1.510000000000000000e+02,5.479337020048729023e+00
1.520000000000000000e+02,5.496947130992631436e+00
1.530000000000000000e+02,5.514430421871199250e+00
1.540000000000000000e+02,5.531788707409136308e+00
1.550000000000000000e+02,5.549023602965060142e+00
1.560000000000000000e+02,5.566137135378096623e+00
1.570000000000000000e+02,5.583130303564787233e+00
1.580000000000000000e+02,5.600004976088094999e+00
1.590000000000000000e+02,5.616763605521130742e+00
1.600000000000000000e+02,5.633406444950295189e+00
1.610000000000000000e+02,5.649935059654661806e+00
1.620000000000000000e+02,5.666350794188337758e+00
1.630000000000000000e+02,5.682655141361345308e+00
1.640000000000000000e+02,5.698849377702469354e+00
1.650000000000000000e+02,5.714934892259901922e+00
1.660000000000000000e+02,5.730912934077720067e+00
1.670000000000000000e+02,5.746785076977616313e+00
1.680000000000000000e+02,5.762553105032623080e+00
1.690000000000000000e+02,5.778217078704944498e+00
1.700000000000000000e+02,5.793778798823328025e+00
1.710000000000000000e+02,5.809239089268186440e+00
1.720000000000000000e+02,5.824599617167063315e+00
1.730000000000000000e+02,5.839860948742738422e+00
1.740000000000000000e+02,5.855024729246284032e+00
1.750000000000000000e+02,5.870092194489437532e+00
1.760000000000000000e+02,5.885063911050248286e+00
1.770000000000000000e+02,5.899941844615473663e+00
1.780000000000000000e+02,5.914726514312899752e+00
1.790000000000000000e+02,5.929418826724258018e+00
1.800000000000000000e+02,5.944019966972084568e+00
1.810000000000000000e+02,5.958530633676258681e+00
1.820000000000000000e+02,5.972952166405992358e+00
1.830000000000000000e+02,5.987285452768170479e+00
1.840000000000000000e+02,6.001531621770227254e+00
1.850000000000000000e+02,6.015691455958000589e+00
1.860000000000000000e+02,6.029765785959458668e+00
1.870000000000000000e+02,6.043756386755593013e+00
1.880000000000000000e+02,6.057663053126969288e+00
1.890000000000000000e+02,6.071486979238202686e+00
1.900000000000000000e+02,6.085229241183732540e+00
1.910000000000000000e+02,6.098890705339182539e+00
1.920000000000000000e+02,6.112472127112033249e+00
1.930000000000000000e+02,6.125974184647240861e+00
1.940000000000000000e+02,6.139398039591140055e+00
1.950000000000000000e+02,6.152744089764175861e+00
1.960000000000000000e+02,6.166013679112671397e+00
1.970000000000000000e+02,6.179207023442076618e+00
1.980000000000000000e+02,6.192325371414028723e+00
1.990000000000000000e+02,6.205369158830010612e+00
2.000000000000000000e+02,6.218339599913468518e+00
2.010000000000000000e+02,6.231236832186140440e+00
2.020000000000000000e+02,6.244062130470230620e+00
2.030000000000000000e+02,6.256815790545955380e+00
2.040000000000000000e+02,6.269498578573199588e+00
2.050000000000000000e+02,6.282111484355748843e+00
2.060000000000000000e+02,6.294654771549837768e+00
2.070000000000000000e+02,6.307129434027351600e+00
2.080000000000000000e+02,6.319535921148555779e+00
2.090000000000000000e+02,6.331875170366001448e+00
2.100000000000000000e+02,6.344147638019127733e+00
2.110000000000000000e+02,6.356354264757907657e+00
2.120000000000000000e+02,6.368495023208212480e+00
2.130000000000000000e+02,6.380571236638850507e+00
2.140000000000000000e+02,6.392583118696132161e+00
2.150000000000000000e+02,6.404531506544055119e+00
2.160000000000000000e+02,6.416416598260412663e+00
2.170000000000000000e+02,6.428239466068228047e+00
2.180000000000000000e+02,6.440000657340828383e+00
2.190000000000000000e+02,6.451700204211359591e+00
2.200000000000000000e+02,6.463339258140964105e+00
2.210000000000000000e+02,6.474918115378475392e+00
2.220000000000000000e+02,6.486437345145720457e+00
2.230000000000000000e+02,6.497897507588516142e+00
2.240000000000000000e+02,6.509298877699785102e+00
2.250000000000000000e+02,6.520642276256691794e+00
2.260000000000000000e+02,6.531928237312600416e+00
2.270000000000000000e+02,6.543157013181708948e+00
2.280000000000000000e+02,6.554329396747306191e+00
2.290000000000000000e+02,6.565445626042292204e+00
2.300000000000000000e+02,6.576506476265152834e+00
2.310000000000000000e+02,6.587512171802983652e+00
2.320000000000000000e+02,6.598463470862075297e+00
2.330000000000000000e+02,6.609360316812216141e+00
2.340000000000000000e+02,6.620203721251744611e+00
2.350000000000000000e+02,6.630994149249222147e+00
2.360000000000000000e+02,6.641731793625644364e+00
2.370000000000000000e+02,6.652417108382838506e+00
2.380000000000000000e+02,6.663050540867416771e+00
2.390000000000000000e+02,6.673632531904019061e+00
2.400000000000000000e+02,6.684163777933630257e+00
2.410000000000000000e+02,6.694644182286511480e+00
2.420000000000000000e+02,6.705074690200144794e+00
2.430000000000000000e+02,6.715455455691794917e+00
2.440000000000000000e+02,6.725786630106618702e+00
2.450000000000000000e+02,6.736069136115406586e+00
2.460000000000000000e+02,6.746303112797012780e+00
2.470000000000000000e+02,6.756488953232615557e+00
2.480000000000000000e+02,6.766627300700823078e+00
2.490000000000000000e+02,6.776718025375265242e+00
2.500000000000000000e+02,6.786761760682943567e+00
2.510000000000000000e+02,6.796759131860893532e+00
2.520000000000000000e+02,6.806709998143287699e+00
2.530000000000000000e+02,6.816615227405685928e+00
2.540000000000000000e+02,6.826474923193842415e+00
2.550000000000000000e+02,6.836289437664361479e+00
2.560000000000000000e+02,6.846059368035858128e+00
2.570000000000000000e+02,6.855784556914232830e+00
2.580000000000000000e+02,6.865465593085094298e+00
2.590000000000000000e+02,6.875102810406456655e+00
2.600000000000000000e+02,6.884696538365974838e+00
2.610000000000000000e+02,6.894247348442720025e+00
2.620000000000000000e+02,6.903755313976276398e+00
2.630000000000000000e+02,6.913220751821590682e+00
2.640000000000000000e+02,6.922644219031892199e+00
2.650000000000000000e+02,6.932025778806306882e+00
2.660000000000000000e+02,6.941365736021270827e+00
2.670000000000000000e+02,6.950664633994664499e+00
2.680000000000000000e+02,6.959922526358303330e+00
2.690000000000000000e+02,6.969139947640581312e+00
2.700000000000000000e+02,6.978316705014300680e+00
2.710000000000000000e+02,6.987453805892655190e+00
2.720000000000000000e+02,6.996551050968083274e+00
2.730000000000000000e+02,7.005608958004164499e+00
2.740000000000000000e+02,7.014627563081963224e+00
2.750000000000000000e+02,7.023607375967444000e+00
2.760000000000000000e+02,7.032548664010703554e+00
2.770000000000000000e+02,7.041451455240124169e+00
2.780000000000000000e+02,7.050316483385124400e+00
2.790000000000000000e+02,7.059143534666584507e+00
2.800000000000000000e+02,7.067933099917901529e+00
2.810000000000000000e+02,7.076685197107577707e+00
2.820000000000000000e+02,7.085400543052696953e+00
2.830000000000000000e+02,7.094078916640009780e+00
2.840000000000000000e+02,7.102720794545655636e+00
2.850000000000000000e+02,7.111326416864281796e+00
2.860000000000000000e+02,7.119896482743596877e+00
2.870000000000000000e+02,7.128430301960555937e+00
2.880000000000000000e+02,7.136928799151852409e+00
2.890000000000000000e+02,7.145392201889764650e+00
2.900000000000000000e+02,7.153820506419275915e+00
2.910000000000000000e+02,7.162214164976091091e+00
2.920000000000000000e+02,7.170573169796336188e+00
2.930000000000000000e+02,7.178897739893436380e+00
2.940000000000000000e+02,7.187188091820992497e+00
2.950000000000000000e+02,7.195444665806998152e+00
2.960000000000000000e+02,7.203667446468740465e+00
2.970000000000000000e+02,7.211856868282843891e+00
2.980000000000000000e+02,7.220013361378780914e+00
2.990000000000000000e+02,7.228136455386708015e+00
3.000000000000000000e+02,7.236227248632262743e+00
3.010000000000000000e+02,7.244285044786839656e+00
3.020000000000000000e+02,7.252310711256666487e+00
3.030000000000000000e+02,7.260303997025038036e+00
3.040000000000000000e+02,7.268265539247072304e+00
3.050000000000000000e+02,7.276195305811961944e+00
3.060000000000000000e+02,7.284093485139257140e+00
3.070000000000000000e+02,7.291960263643387563e+00
3.080000000000000000e+02,7.299796045441320658e+00
3.090000000000000000e+02,7.307600573196920912e+00
3.100000000000000000e+02,7.315374466375771156e+00
3.110000000000000000e+02,7.323117902268544199e+00
3.120000000000000000e+02,7.330830838497046642e+00
3.130000000000000000e+02,7.338513667420007103e+00
3.140000000000000000e+02,7.346166560857581906e+00
3.150000000000000000e+02,7.353789688860566720e+00
3.160000000000000000e+02,7.361382787698313557e+00
3.170000000000000000e+02,7.368946673341254971e+00
3.180000000000000000e+02,7.376481294204379147e+00
3.190000000000000000e+02,7.383986813494165524e+00
3.200000000000000000e+02,7.391463178503093978e+00
3.210000000000000000e+02,7.398910978118256487e+00
3.220000000000000000e+02,7.406330369369152677e+00
3.230000000000000000e+02,7.413720868781760842e+00
3.240000000000000000e+02,7.421083484302781308e+00
3.250000000000000000e+02,7.428417942767430837e+00
3.260000000000000000e+02,7.435724396298916794e+00
3.270000000000000000e+02,7.443003206826569240e+00
3.280000000000000000e+02,7.450254311363714521e+00
3.290000000000000000e+02,7.457478068087013412e+00
3.300000000000000000e+02,7.464674832108807223e+00
3.310000000000000000e+02,7.471844116809013947e+00
3.320000000000000000e+02,7.478986276111741383e+00
3.330000000000000000e+02,7.486102078709747865e+00
3.340000000000000000e+02,7.493191036274305716e+00
3.350000000000000000e+02,7.500253496254848606e+00
3.360000000000000000e+02,7.507289803208281320e+00
3.370000000000000000e+02,7.514299469578182844e+00
3.380000000000000000e+02,7.521283459674337202e+00
3.390000000000000000e+02,7.528241284550815315e+00
3.400000000000000000e+02,7.535173695611253386e+00
3.410000000000000000e+02,7.542080409522851525e+00
3.420000000000000000e+02,7.548961761011029559e+00
3.430000000000000000e+02,7.555817261930802609e+00
3.440000000000000000e+02,7.562648064792802494e+00
3.450000000000000000e+02,7.569453679101486365e+00
3.460000000000000000e+02,7.576234229449979374e+00
3.470000000000000000e+02,7.582990246439124782e+00
3.480000000000000000e+02,7.589721443786412891e+00
3.490000000000000000e+02,7.596428145559809053e+00
3.500000000000000000e+02,7.603110673297122979e+00
3.510000000000000000e+02,7.609768941748421334e+00
3.520000000000000000e+02,7.616402866020492546e+00
3.530000000000000000e+02,7.623012965902239202e+00
3.540000000000000000e+02,7.629599355154983442e+00
3.550000000000000000e+02,7.636161745023052561e+00
3.560000000000000000e+02,7.642700650129677697e+00
3.570000000000000000e+02,7.649215981151911592e+00
3.580000000000000000e+02,7.655708448057521487e+00
3.590000000000000000e+02,7.662177160664080056e+00
3.600000000000000000e+02,7.668623026061986536e+00
3.610000000000000000e+02,7.675045951419534163e+00
3.620000000000000000e+02,7.681446042700569521e+00
3.630000000000000000e+02,7.687823206884764282e+00
3.640000000000000000e+02,7.694177944556208182e+00
3.650000000000000000e+02,7.700509765733377421e+00
3.660000000000000000e+02,7.706819365959186818e+00
3.670000000000000000e+02,7.713107042486994303e+00
3.680000000000000000e+02,7.719372501094012406e+00
3.690000000000000000e+02,7.725615645389528829e+00
3.700000000000000000e+02,7.731836966837600578e+00
3.710000000000000000e+02,7.738036562540851371e+00
3.720000000000000000e+02,7.744214333593742339e+00
3.730000000000000000e+02,7.750370766156746249e+00
3.740000000000000000e+02,7.756505564830628252e+00
3.750000000000000000e+02,7.762618824414244223e+00
3.760000000000000000e+02,7.768710832872165462e+00
3.770000000000000000e+02,7.774781876172680128e+00
3.780000000000000000e+02,7.780831851602218130e+00
3.790000000000000000e+02,7.786860656897419908e+00
3.800000000000000000e+02,7.792868768513214306e+00
3.810000000000000000e+02,7.798856082396920186e+00
3.820000000000000000e+02,7.804822879288004778e+00
3.830000000000000000e+02,7.810769438031212708e+00
3.840000000000000000e+02,7.816694886086742677e+00
3.850000000000000000e+02,7.822600268974365889e+00
3.860000000000000000e+02,7.828485670687086895e+00
3.870000000000000000e+02,7.834350602373969075e+00
3.880000000000000000e+02,7.840195530122730183e+00
3.890000000000000000e+02,7.846020726914594512e+00
3.900000000000000000e+02,7.851825894318479548e+00
3.910000000000000000e+02,7.857611493876047071e+00
3.920000000000000000e+02,7.863377037658857205e+00
3.930000000000000000e+02,7.869123552753531925e+00
3.940000000000000000e+02,7.874849983664843123e+00
3.950000000000000000e+02,7.880557354281478410e+00
3.960000000000000000e+02,7.886245553078741644e+00
3.970000000000000000e+02,7.891914469016025002e+00
3.980000000000000000e+02,7.897564366892559917e+00
