# Time [s], Convective Heat Transfer Coefficient [W/m2K]
1.000000000000000000e+00,0.000000000000000000e+00
2.000000000000000000e+00,0.000000000000000000e+00
3.000000000000000000e+00,0.000000000000000000e+00
4.000000000000000000e+00,0.000000000000000000e+00
5.000000000000000000e+00,1.915079995362458862e-02
6.000000000000000000e+00,3.908348017778424249e-02
7.000000000000000000e+00,6.603611858342180174e-02
8.000000000000000000e+00,1.018667428097837779e-01
9.000000000000000000e+00,1.487914127700203093e-01
1.000000000000000000e+01,2.067349008866649074e-01
1.100000000000000000e+01,2.754175290206820614e-01
1.200000000000000000e+01,3.542874677322649934e-01
1.300000000000000000e+01,4.423907644130029571e-01
1.400000000000000000e+01,5.386096760061568345e-01
1.500000000000000000e+01,6.417486926390071345e-01
1.600000000000000000e+01,7.506665395515137451e-01
1.700000000000000000e+01,8.642723622355441560e-01
1.800000000000000000e+01,9.816004204943216127e-01
1.900000000000000000e+01,1.101781987788363226e+00
2.000000000000000000e+01,1.224069621568467658e+00
2.100000000000000000e+01,1.347816058891546209e+00
2.200000000000000000e+01,1.472472373758489939e+00
2.300000000000000000e+01,1.597566486166310584e+00
2.400000000000000000e+01,1.722710173449456761e+00
2.500000000000000000e+01,1.847572131648397287e+00
2.600000000000000000e+01,1.971877210770013322e+00
2.700000000000000000e+01,2.095395050519145208e+00
2.800000000000000000e+01,2.217937368948359911e+00
2.900000000000000000e+01,2.339350843066963836e+00
3.000000000000000000e+01,2.459513266015804334e+00
3.100000000000000000e+01,2.578316875603543057e+00
3.200000000000000000e+01,2.695686245389382840e+00
3.300000000000000000e+01,2.811556846649565067e+00
3.400000000000000000e+01,2.925882527920027787e+00
3.500000000000000000e+01,3.038626185916394551e+00
3.600000000000000000e+01,3.155926598012362749e+00
3.700000000000000000e+01,3.267521816459260542e+00
3.800000000000000000e+01,3.376476010626186852e+00
3.900000000000000000e+01,3.483420585233378386e+00
4.000000000000000000e+01,3.588475946558921770e+00
4.100000000000000000e+01,3.691730404622662221e+00
4.200000000000000000e+01,3.793236575135927158e+00
4.300000000000000000e+01,3.893036047594320870e+00
4.400000000000000000e+01,3.991166531779736459e+00
4.500000000000000000e+01,4.087655774498874628e+00
4.600000000000000000e+01,4.182537587768546672e+00
4.700000000000000000e+01,4.275838640277109803e+00
4.800000000000000000e+01,4.367588560636940898e+00
4.900000000000000000e+01,4.457813640759253460e+00
5.000000000000000000e+01,4.546537115174059451e+00
5.100000000000000000e+01,4.633786930465505272e+00
5.200000000000000000e+01,4.719587774781349943e+00
5.300000000000000000e+01,4.803963714485786518e+00
5.400000000000000000e+01,4.886940121608320808e+00
5.500000000000000000e+01,4.968537131673162577e+00
5.600000000000000000e+01,5.048779095467797795e+00
5.700000000000000000e+01,5.127689933272231215e+00
5.800000000000000000e+01,5.205294080282926394e+00
5.900000000000000000e+01,5.281613377770808526e+00
6.000000000000000000e+01,5.356672041637379422e+00
6.100000000000000000e+01,5.430492616194713129e+00
6.200000000000000000e+01,5.503099301657273124e+00
6.300000000000000000e+01,5.574515053736613268e+00
6.400000000000000000e+01,5.644764487304712475e+00
6.500000000000000000e+01,5.713871777127924823e+00
6.600000000000000000e+01,5.781860437843837630e+00
6.700000000000000000e+01,5.848753789638968748e+00
6.800000000000000000e+01,5.914575634378691937e+00
6.900000000000000000e+01,5.979350390764372136e+00
7.000000000000000000e+01,6.043101551145442230e+00
7.100000000000000000e+01,6.105851997204950976e+00
7.200000000000000000e+01,6.167623541845097535e+00
7.300000000000000000e+01,6.228440721494672871e+00
7.400000000000000000e+01,6.288325011263877329e+00
7.500000000000000000e+01,6.347298580584904926e+00
7.600000000000000000e+01,6.405384472918854932e+00
7.700000000000000000e+01,6.462602201473779395e+00
7.800000000000000000e+01,6.518970690019073366e+00
7.900000000000000000e+01,6.574510046742162217e+00
8.000000000000000000e+01,6.629239781169269818e+00
8.100000000000000000e+01,6.683179004995507100e+00
8.200000000000000000e+01,6.736345943908425227e+00
8.300000000000000000e+01,6.788758257273304508e+00
8.400000000000000000e+01,6.840433328925686673e+00
8.500000000000000000e+01,6.891388039625993223e+00
8.600000000000000000e+01,6.941639045740709335e+00
8.700000000000000000e+01,6.991200160554932985e+00
8.800000000000000000e+01,7.040086566807433499e+00
8.900000000000000000e+01,7.088314256712733297e+00
9.000000000000000000e+01,7.135897450247952634e+00
9.100000000000000000e+01,7.182850527940777496e+00
9.200000000000000000e+01,7.229187125888934418e+00
9.300000000000000000e+01,7.274921069065433343e+00
9.400000000000000000e+01,7.320063739920950496e+00
9.500000000000000000e+01,7.364627465538691631e+00
9.600000000000000000e+01,7.408624609420027873e+00
9.700000000000000000e+01,7.452067571317316563e+00
9.800000000000000000e+01,7.494967745546753157e+00
9.900000000000000000e+01,7.537335786039769836e+00
1.000000000000000000e+02,7.579182871953269007e+00
1.010000000000000000e+02,7.620519874813318495e+00
1.020000000000000000e+02,7.661356978484327840e+00
1.030000000000000000e+02,7.701701744071862699e+00
1.040000000000000000e+02,7.741564325184124407e+00
1.050000000000000000e+02,7.780954050617615358e+00
1.060000000000000000e+02,7.819879659245732917e+00
1.070000000000000000e+02,7.858350278721704996e+00
1.080000000000000000e+02,7.896373906736029902e+00
1.090000000000000000e+02,7.933958768395769745e+00
1.100000000000000000e+02,7.971112754564858349e+00
1.110000000000000000e+02,8.007843804135250210e+00
1.120000000000000000e+02,8.044159360923867297e+00
1.130000000000000000e+02,8.080066576819655566e+00
1.140000000000000000e+02,8.115571793007870127e+00
1.150000000000000000e+02,8.150682867092244877e+00
1.160000000000000000e+02,8.185406314669203098e+00
1.170000000000000000e+02,8.219748233709793794e+00
1.180000000000000000e+02,8.253714666819124801e+00
1.190000000000000000e+02,8.287312797854209379e+00
1.200000000000000000e+02,8.320547864194066889e+00
1.210000000000000000e+02,8.353425080492577592e+00
1.220000000000000000e+02,8.385950306360834716e+00
1.230000000000000000e+02,8.418130022771423526e+00
1.240000000000000000e+02,8.449968523010646493e+00
1.250000000000000000e+02,8.481470924668199629e+00
1.260000000000000000e+02,8.512642332479472884e+00
1.270000000000000000e+02,8.543487519163818433e+00
1.280000000000000000e+02,8.574011416085252080e+00
1.290000000000000000e+02,8.604228754019638714e+00
1.300000000000000000e+02,8.634129022665208097e+00
1.310000000000000000e+02,8.663719289150769498e+00
1.320000000000000000e+02,8.693005321793553009e+00
1.330000000000000000e+02,8.721991943153749816e+00
1.340000000000000000e+02,8.750683368342173196e+00
1.350000000000000000e+02,8.779085200316838922e+00
1.360000000000000000e+02,8.807201368274476749e+00
1.370000000000000000e+02,8.835035531548626864e+00
1.380000000000000000e+02,8.862591684967332739e+00
1.390000000000000000e+02,8.889872668098785624e+00
1.400000000000000000e+02,8.916880053865032352e+00
1.410000000000000000e+02,8.943617260064078422e+00
1.420000000000000000e+02,8.970086003304119870e+00
1.430000000000000000e+02,8.996289531227919412e+00
1.440000000000000000e+02,9.022229414808110803e+00
1.450000000000000000e+02,9.047908885360268272e+00
1.460000000000000000e+02,9.073330228623648352e+00
1.470000000000000000e+02,9.098496367041741806e+00
1.480000000000000000e+02,9.123409436362770464e+00
1.490000000000000000e+02,9.148072206190239086e+00
1.500000000000000000e+02,9.172487646016367790e+00
1.510000000000000000e+02,9.196656844460420643e+00
1.520000000000000000e+02,9.220583464630633941e+00
1.530000000000000000e+02,9.244269431712570650e+00
1.540000000000000000e+02,9.267716068124487450e+00
1.550000000000000000e+02,9.290926142969219370e+00
1.560000000000000000e+02,9.313901947253008018e+00
1.570000000000000000e+02,9.336643694698816276e+00
1.580000000000000000e+02,9.359153714918889477e+00
1.590000000000000000e+02,9.381433343747861642e+00
1.600000000000000000e+02,9.403484403194676489e+00
1.610000000000000000e+02,9.425308004364541858e+00
1.620000000000000000e+02,9.446905613333749230e+00
1.630000000000000000e+02,9.468276562213590708e+00
1.640000000000000000e+02,9.489422646686275442e+00
1.650000000000000000e+02,9.510344576792601146e+00
1.660000000000000000e+02,9.531042645112247413e+00
1.670000000000000000e+02,9.551517633800061802e+00
1.680000000000000000e+02,9.571770037394864872e+00
1.690000000000000000e+02,9.591799941542566543e+00
1.700000000000000000e+02,9.611607411408424895e+00
1.710000000000000000e+02,9.631192239410250266e+00
1.720000000000000000e+02,9.650554201776433416e+00
1.730000000000000000e+02,9.669694060029486948e+00
1.740000000000000000e+02,9.688610299025340211e+00
1.750000000000000000e+02,9.707303021746465532e+00
1.760000000000000000e+02,9.725770576348327978e+00
1.770000000000000000e+02,9.744013164186725362e+00
1.780000000000000000e+02,9.762029979457963691e+00
1.790000000000000000e+02,9.779819227293051753e+00
1.800000000000000000e+02,9.797380579910111464e+00
1.810000000000000000e+02,9.814712233203556124e+00
1.820000000000000000e+02,9.831812627380450920e+00
1.830000000000000000e+02,9.848681045190547323e+00
1.840000000000000000e+02,9.865315191243563930e+00
1.850000000000000000e+02,9.881713495315057827e+00
1.860000000000000000e+02,9.897875338253038890e+00
1.870000000000000000e+02,9.913797939048334840e+00
1.880000000000000000e+02,9.929479831555175551e+00
1.890000000000000000e+02,9.944918712127893912e+00
1.900000000000000000e+02,9.960112749472827431e+00
1.910000000000000000e+02,9.975060340992504493e+00
1.920000000000000000e+02,9.989759521832329625e+00
1.930000000000000000e+02,1.000420855392637876e+01
1.940000000000000000e+02,1.001840568836144918e+01
1.950000000000000000e+02,1.003234893184865939e+01
1.960000000000000000e+02,1.004603662892325211e+01
1.970000000000000000e+02,1.005946745623876559e+01
1.980000000000000000e+02,1.007264041718189773e+01
1.990000000000000000e+02,1.008555391614082097e+01
2.000000000000000000e+02,1.009826373616209771e+01
2.010000000000000000e+02,1.011069293090367793e+01
2.020000000000000000e+02,1.012286363204628081e+01
2.030000000000000000e+02,1.013478210841253713e+01
2.040000000000000000e+02,1.014644680419075407e+01
2.050000000000000000e+02,1.015785308097503936e+01
2.060000000000000000e+02,1.016899551461709805e+01
2.070000000000000000e+02,1.017987049921990916e+01
2.080000000000000000e+02,1.019047701437705022e+01
2.090000000000000000e+02,1.020081704693510183e+01
2.100000000000000000e+02,1.021089264146567288e+01
2.110000000000000000e+02,1.022070926226755283e+01
2.120000000000000000e+02,1.023027162379563748e+01
2.130000000000000000e+02,1.023958436980018227e+01
2.140000000000000000e+02,1.024865441643642505e+01
2.150000000000000000e+02,1.025748737447777081e+01
2.160000000000000000e+02,1.026608900712977501e+01
2.170000000000000000e+02,1.027446600734812954e+01
2.180000000000000000e+02,1.028262466424763488e+01
2.190000000000000000e+02,1.029057131105865963e+01
2.200000000000000000e+02,1.029831309986982646e+01
2.210000000000000000e+02,1.030585656522843685e+01
2.220000000000000000e+02,1.031320895185567998e+01
2.230000000000000000e+02,1.032037744269428536e+01
2.240000000000000000e+02,1.032736960083165734e+01
2.250000000000000000e+02,1.033419271168894760e+01
2.260000000000000000e+02,1.034085411561252776e+01
2.270000000000000000e+02,1.034736252173120263e+01
2.280000000000000000e+02,1.035372483492434270e+01
2.290000000000000000e+02,1.035994944106351845e+01
2.300000000000000000e+02,1.036604391239931999e+01
2.310000000000000000e+02,1.037201577600476377e+01
2.320000000000000000e+02,1.037787349400913151e+01
2.330000000000000000e+02,1.038362363723677717e+01
2.340000000000000000e+02,1.038927436768338275e+01
2.350000000000000000e+02,1.039483402289663339e+01
2.360000000000000000e+02,1.040030884381451592e+01
2.370000000000000000e+02,1.040570655460615335e+01
2.380000000000000000e+02,1.041103408802930907e+01
2.390000000000000000e+02,1.041629856147843824e+01
2.400000000000000000e+02,1.042150609129762273e+01
2.410000000000000000e+02,1.042666373666872737e+01
2.420000000000000000e+02,1.043177723660842737e+01
2.430000000000000000e+02,1.043685359615666464e+01
2.440000000000000000e+02,1.044189775246332452e+01
2.450000000000000000e+02,1.044691548112750645e+01
2.460000000000000000e+02,1.045191242803962162e+01
2.470000000000000000e+02,1.045689378906863531e+01
2.480000000000000000e+02,1.046186548884585577e+01
2.490000000000000000e+02,1.046683075817734299e+01
2.500000000000000000e+02,1.047179473710693109e+01
2.510000000000000000e+02,1.047676201296550857e+01
2.520000000000000000e+02,1.048248645020662906e+01
2.530000000000000000e+02,1.048781099428348185e+01
2.540000000000000000e+02,1.049300043006921079e+01
2.550000000000000000e+02,1.049811909737372950e+01
2.560000000000000000e+02,1.050318502751552785e+01
2.570000000000000000e+02,1.050822593349320044e+01
2.580000000000000000e+02,1.051326550276392879e+01
2.590000000000000000e+02,1.051832267643381336e+01
2.600000000000000000e+02,1.052341040320322740e+01
2.610000000000000000e+02,1.052853862440164079e+01
2.620000000000000000e+02,1.053371397131025766e+01
2.630000000000000000e+02,1.053894357486572986e+01
2.640000000000000000e+02,1.054422927163505364e+01
2.650000000000000000e+02,1.054957478218295286e+01
2.660000000000000000e+02,1.055498359973560518e+01
2.670000000000000000e+02,1.056045825614652856e+01
2.680000000000000000e+02,1.056600022163072339e+01
2.690000000000000000e+02,1.057161242390190736e+01
2.700000000000000000e+02,1.057729599657999664e+01
2.710000000000000000e+02,1.058305279694142875e+01
2.720000000000000000e+02,1.058888728100347265e+01
2.730000000000000000e+02,1.059480054447271336e+01
2.740000000000000000e+02,1.060079461191337558e+01
2.750000000000000000e+02,1.060687211910285477e+01
2.760000000000000000e+02,1.061303630914813212e+01
2.770000000000000000e+02,1.061928957519050343e+01
2.780000000000000000e+02,1.062563730110870175e+01
2.790000000000000000e+02,1.063207966208410582e+01
2.800000000000000000e+02,1.063862086070173874e+01
2.810000000000000000e+02,1.064526527972334868e+01
2.820000000000000000e+02,1.065201479772777304e+01
2.830000000000000000e+02,1.065887653196500473e+01
2.840000000000000000e+02,1.066585343974224465e+01
2.850000000000000000e+02,1.067294855778272478e+01
2.860000000000000000e+02,1.068016643774529939e+01
2.870000000000000000e+02,1.068751497979793186e+01
2.880000000000000000e+02,1.069499742549720267e+01
2.890000000000000000e+02,1.070261821398528035e+01
2.900000000000000000e+02,1.071038572769067798e+01
2.910000000000000000e+02,1.071830461976187721e+01
2.920000000000000000e+02,1.072638051982013785e+01
2.930000000000000000e+02,1.073461900917418355e+01
2.940000000000000000e+02,1.074302845938190210e+01
2.950000000000000000e+02,1.075161636257841558e+01
2.960000000000000000e+02,1.076039206546968252e+01
2.970000000000000000e+02,1.076936453068510069e+01
2.980000000000000000e+02,1.077853870913548917e+01
2.990000000000000000e+02,1.078792432225515974e+01
3.000000000000000000e+02,1.079753431146714604e+01
3.010000000000000000e+02,1.080737327904380507e+01
3.020000000000000000e+02,1.081745656693622415e+01
3.030000000000000000e+02,1.082779467610433599e+01
3.040000000000000000e+02,1.083839719269901991e+01
3.050000000000000000e+02,1.084927766492451617e+01
3.060000000000000000e+02,1.086044730468809405e+01
3.070000000000000000e+02,1.087192391798750712e+01
3.080000000000000000e+02,1.088372066004658656e+01
3.090000000000000000e+02,1.089585061180969738e+01
3.100000000000000000e+02,1.090832982199044032e+01
3.110000000000000000e+02,1.092117745969581222e+01
3.120000000000000000e+02,1.093440215617800249e+01
3.130000000000000000e+02,1.094802380330034453e+01
3.140000000000000000e+02,1.096206541481458707e+01
3.150000000000000000e+02,1.097653684395212714e+01
3.160000000000000000e+02,1.099146061966290411e+01
3.170000000000000000e+02,1.100685031037012607e+01
3.180000000000000000e+02,1.102598782315826575e+01
3.190000000000000000e+02,1.104266200827403033e+01
3.200000000000000000e+02,1.105922846781201230e+01
3.210000000000000000e+02,1.107636748582902086e+01
3.220000000000000000e+02,1.109407882169634441e+01
3.230000000000000000e+02,1.111236337178095290e+01
3.240000000000000000e+02,1.113121766941550739e+01
3.250000000000000000e+02,1.115062350799911783e+01
3.260000000000000000e+02,1.117055552367473581e+01
3.270000000000000000e+02,1.119098826002382907e+01
3.280000000000000000e+02,1.121188790541914493e+01
3.290000000000000000e+02,1.123321637043413901e+01
3.300000000000000000e+02,1.125491587349175937e+01
3.310000000000000000e+02,1.127693494482078229e+01
3.320000000000000000e+02,1.129919945883423438e+01
3.330000000000000000e+02,1.132164178931703979e+01
3.340000000000000000e+02,1.134417678978985755e+01
3.350000000000000000e+02,1.136672082719172749e+01
3.360000000000000000e+02,1.138919447347935510e+01
3.370000000000000000e+02,1.141151730130892439e+01
3.380000000000000000e+02,1.143361756503550453e+01
3.390000000000000000e+02,1.145542817908030386e+01
3.400000000000000000e+02,1.147689691278035262e+01
3.410000000000000000e+02,1.149798537694633360e+01
3.420000000000000000e+02,1.151866098157045926e+01
3.430000000000000000e+02,1.153890692024716280e+01
3.440000000000000000e+02,1.155870873477883976e+01
3.450000000000000000e+02,1.157806963264761180e+01
3.460000000000000000e+02,1.159699600050995194e+01
3.470000000000000000e+02,1.161549700797148610e+01
3.480000000000000000e+02,1.163358975755840419e+01
3.490000000000000000e+02,1.165128933946719059e+01
3.500000000000000000e+02,1.166861334231917091e+01
3.510000000000000000e+02,1.168557873945851178e+01
3.520000000000000000e+02,1.170220883142182267e+01
3.530000000000000000e+02,1.171851654429427647e+01
3.540000000000000000e+02,1.173451954472072067e+01
3.550000000000000000e+02,1.175023221289644759e+01
3.560000000000000000e+02,1.176566941430155211e+01
3.570000000000000000e+02,1.178084455963568900e+01
3.580000000000000000e+02,1.179576946093959045e+01
3.590000000000000000e+02,1.181045511188751362e+01
3.600000000000000000e+02,1.182491069748125412e+01
3.610000000000000000e+02,1.183914528992055892e+01
3.620000000000000000e+02,1.185316968599355114e+01
3.630000000000000000e+02,1.186699231680487365e+01
3.640000000000000000e+02,1.188061679017549999e+01
3.650000000000000000e+02,1.189405121516392683e+01
3.660000000000000000e+02,1.190730270387340006e+01
3.670000000000000000e+02,1.192037623126107171e+01
3.680000000000000000e+02,1.193327687959371985e+01
3.690000000000000000e+02,1.194600975652996944e+01
3.700000000000000000e+02,1.195858138765169087e+01
3.710000000000000000e+02,1.197099472012365240e+01
3.720000000000000000e+02,1.198325356283635834e+01
3.730000000000000000e+02,1.199536371732056139e+01
3.740000000000000000e+02,1.200732654450917458e+01
3.750000000000000000e+02,1.201914743706652544e+01
3.760000000000000000e+02,1.203082858257615051e+01
3.770000000000000000e+02,1.204237335427404076e+01
3.780000000000000000e+02,1.205378581683674000e+01
3.790000000000000000e+02,1.206506774512149960e+01
3.800000000000000000e+02,1.207622282005515046e+01
3.810000000000000000e+02,1.208725260543652880e+01
3.820000000000000000e+02,1.209815984677877587e+01
3.830000000000000000e+02,1.210894710384208750e+01
3.840000000000000000e+02,1.211961731060474001e+01
3.850000000000000000e+02,1.213017178352455261e+01
3.860000000000000000e+02,1.214061277735887856e+01
3.870000000000000000e+02,1.215094252597586078e+01
3.880000000000000000e+02,1.216116245137037311e+01
3.890000000000000000e+02,1.217127601547477234e+01
3.900000000000000000e+02,1.218128270795658707e+01
3.910000000000000000e+02,1.219118603397928347e+01
3.920000000000000000e+02,1.220098687646568436e+01
3.930000000000000000e+02,1.221068767851238412e+01
3.940000000000000000e+02,1.222028796316741506e+01
3.950000000000000000e+02,1.222979147863542337e+01
3.960000000000000000e+02,1.223919913264290749e+01
3.970000000000000000e+02,1.224851182350989376e+01
3.980000000000000000e+02,1.225773153106417190e+01
