# Time [s], Thickness [m]
1.000000000000000000e+00,8.000000400000000303e-03
2.000000000000000000e+00,8.000000400000000303e-03
3.000000000000000000e+00,8.000000400000000303e-03
4.000000000000000000e+00,8.000000400000000303e-03
5.000000000000000000e+00,8.000000400000000303e-03
6.000000000000000000e+00,8.000000400000000303e-03
7.000000000000000000e+00,8.000000400000000303e-03
8.000000000000000000e+00,8.000000400000000303e-03
9.000000000000000000e+00,8.000000400000000303e-03
1.000000000000000000e+01,8.000000400000000303e-03
1.100000000000000000e+01,7.999999400000000829e-03
1.200000000000000000e+01,7.999999400000000829e-03
1.300000000000000000e+01,7.999999400000000829e-03
1.400000000000000000e+01,7.999997599999999348e-03
1.500000000000000000e+01,7.999995700000000001e-03
1.600000000000000000e+01,7.999991099999999300e-03
1.700000000000000000e+01,7.999983599999999778e-03
1.800000000000000000e+01,7.999971499999999555e-03
1.900000000000000000e+01,7.999950999999999937e-03
2.000000000000000000e+01,7.999919399999999570e-03
2.100000000000000000e+01,7.999870900000000812e-03
2.200000000000000000e+01,7.999798299999999474e-03
2.300000000000000000e+01,7.999694899999999775e-03
2.400000000000000000e+01,7.999548699999999360e-03
2.500000000000000000e+01,7.999348499999999612e-03
2.600000000000000000e+01,7.999079299999999754e-03
2.700000000000000000e+01,7.998722600000000849e-03
2.800000000000000000e+01,7.998261600000000637e-03
2.900000000000000000e+01,7.997674899999999629e-03
3.000000000000000000e+01,7.996940100000000592e-03
3.100000000000000000e+01,7.996035699999999233e-03
3.200000000000000000e+01,7.994943299999999684e-03
3.300000000000000000e+01,7.993641299999999783e-03
3.400000000000000000e+01,7.992114899999999689e-03
3.500000000000000000e+01,7.990356500000000278e-03
3.600000000000000000e+01,7.988350499999999701e-03
3.700000000000000000e+01,7.986101299999999459e-03
3.800000000000000000e+01,7.983614700000000661e-03
3.900000000000000000e+01,7.980881299999999234e-03
4.000000000000000000e+01,7.977926200000000703e-03
4.100000000000000000e+01,7.974764299999999306e-03
4.200000000000000000e+01,7.971385500000000707e-03
4.300000000000000000e+01,7.967830599999999736e-03
4.400000000000000000e+01,7.964116499999999987e-03
4.500000000000000000e+01,7.959601499999999913e-03
4.600000000000000000e+01,7.955551099999999543e-03
4.700000000000000000e+01,7.951292199999999630e-03
4.800000000000000000e+01,7.946970899999999255e-03
4.900000000000000000e+01,7.942548000000000663e-03
5.000000000000000000e+01,7.938066500000000303e-03
5.100000000000000000e+01,7.933472299999999242e-03
5.200000000000000000e+01,7.928830600000000631e-03
5.300000000000000000e+01,7.924141399999999266e-03
5.400000000000000000e+01,7.919369299999999556e-03
5.500000000000000000e+01,7.914564600000000005e-03
5.600000000000000000e+01,7.909729100000000360e-03
5.700000000000000000e+01,7.904826699999999151e-03
5.800000000000000000e+01,7.899900899999999504e-03
5.900000000000000000e+01,7.894952800000000492e-03
6.000000000000000000e+01,7.889949699999999205e-03
6.100000000000000000e+01,7.884929000000000590e-03
6.200000000000000000e+01,7.879891400000000115e-03
6.300000000000000000e+01,7.874812900000000004e-03
6.400000000000000000e+01,7.869721399999999797e-03
6.500000000000000000e+01,7.864620500000000722e-03
6.600000000000000000e+01,7.859494499999999592e-03
6.700000000000000000e+01,7.854361100000000276e-03
6.800000000000000000e+01,7.849226699999999751e-03
6.900000000000000000e+01,7.844078399999999257e-03
7.000000000000000000e+01,7.838929999999999162e-03
7.100000000000000000e+01,7.833785399999999496e-03
7.200000000000000000e+01,7.828634200000000182e-03
7.300000000000000000e+01,7.823485899999999688e-03
7.400000000000000000e+01,7.818343999999999641e-03
7.500000000000000000e+01,7.813200399999999449e-03
7.600000000000000000e+01,7.808059899999999880e-03
7.700000000000000000e+01,7.802925100000000086e-03
7.800000000000000000e+01,7.797790700000000429e-03
7.900000000000000000e+01,7.792659999999999865e-03
8.000000000000000000e+01,7.787534500000000207e-03
8.100000000000000000e+01,7.782411799999999769e-03
8.200000000000000000e+01,7.777292699999999691e-03
8.300000000000000000e+01,7.772180299999999729e-03
8.400000000000000000e+01,7.767071900000000265e-03
8.500000000000000000e+01,7.761968799999999571e-03
8.600000000000000000e+01,7.756871599999999589e-03
8.700000000000000000e+01,7.751779599999999645e-03
8.800000000000000000e+01,7.746692700000000140e-03
8.900000000000000000e+01,7.741612400000000282e-03
9.000000000000000000e+01,7.736536199999999655e-03
9.100000000000000000e+01,7.731463800000000323e-03
9.200000000000000000e+01,7.726396899999999832e-03
9.300000000000000000e+01,7.721332400000000158e-03
9.400000000000000000e+01,7.716271099999999841e-03
9.500000000000000000e+01,7.711212599999999612e-03
9.600000000000000000e+01,7.706155999999999597e-03
9.700000000000000000e+01,7.701100300000000322e-03
9.800000000000000000e+01,7.696046500000000394e-03
9.900000000000000000e+01,7.690992699999999599e-03
1.000000000000000000e+02,7.685939299999999808e-03
1.010000000000000000e+02,7.680885999999999617e-03
1.020000000000000000e+02,7.675832100000000088e-03
1.030000000000000000e+02,7.670777400000000287e-03
1.040000000000000000e+02,7.665721200000000408e-03
1.050000000000000000e+02,7.660663699999999653e-03
1.060000000000000000e+02,7.655603799999999813e-03
1.070000000000000000e+02,7.650541099999999886e-03
1.080000000000000000e+02,7.645475199999999735e-03
1.090000000000000000e+02,7.640405099999999887e-03
1.100000000000000000e+02,7.635330800000000341e-03
1.110000000000000000e+02,7.630251299999999889e-03
1.120000000000000000e+02,7.625165899999999594e-03
1.130000000000000000e+02,7.620073899999999650e-03
1.140000000000000000e+02,7.614975300000000058e-03
1.150000000000000000e+02,7.609868399999999804e-03
1.160000000000000000e+02,7.604753599999999891e-03
1.170000000000000000e+02,7.599630399999999716e-03
1.180000000000000000e+02,7.594497399999999669e-03
1.190000000000000000e+02,7.589355100000000354e-03
1.200000000000000000e+02,7.584202600000000162e-03
1.210000000000000000e+02,7.579038399999999884e-03
1.220000000000000000e+02,7.573863499999999860e-03
1.230000000000000000e+02,7.568676499999999613e-03
1.240000000000000000e+02,7.563476900000000273e-03
1.250000000000000000e+02,7.557834999999999727e-03
1.260000000000000000e+02,7.552142300000000072e-03
1.270000000000000000e+02,7.546550100000000427e-03
1.280000000000000000e+02,7.541037599999999771e-03
1.290000000000000000e+02,7.535544199999999991e-03
1.300000000000000000e+02,7.530080199999999828e-03
1.310000000000000000e+02,7.524616100000000064e-03
1.320000000000000000e+02,7.519154800000000388e-03
1.330000000000000000e+02,7.513686500000000060e-03
1.340000000000000000e+02,7.508207999999999722e-03
1.350000000000000000e+02,7.502717400000000030e-03
1.360000000000000000e+02,7.497210500000000416e-03
1.370000000000000000e+02,7.491688199999999888e-03
1.380000000000000000e+02,7.486145900000000346e-03
1.390000000000000000e+02,7.480584600000000396e-03
1.400000000000000000e+02,7.475002199999999757e-03
1.410000000000000000e+02,7.469398000000000357e-03
1.420000000000000000e+02,7.463770500000000384e-03
1.430000000000000000e+02,7.458118700000000365e-03
1.440000000000000000e+02,7.452441800000000026e-03
1.450000000000000000e+02,7.446739400000000099e-03
1.460000000000000000e+02,7.441010300000000174e-03
1.470000000000000000e+02,7.435253400000000311e-03
1.480000000000000000e+02,7.429467999999999836e-03
1.490000000000000000e+02,7.423653300000000212e-03
1.500000000000000000e+02,7.417808300000000230e-03
1.510000000000000000e+02,7.411932100000000016e-03
1.520000000000000000e+02,7.406023799999999699e-03
1.530000000000000000e+02,7.400082900000000408e-03
1.540000000000000000e+02,7.394107500000000194e-03
1.550000000000000000e+02,7.388097700000000392e-03
1.560000000000000000e+02,7.382052499999999795e-03
1.570000000000000000e+02,7.375969999999999922e-03
1.580000000000000000e+02,7.369849799999999770e-03
1.590000000000000000e+02,7.363691000000000333e-03
1.600000000000000000e+02,7.357492600000000403e-03
1.610000000000000000e+02,7.351253200000000369e-03
1.620000000000000000e+02,7.344971399999999755e-03
1.630000000000000000e+02,7.338646800000000157e-03
1.640000000000000000e+02,7.332277899999999765e-03
1.650000000000000000e+02,7.325863900000000040e-03
1.660000000000000000e+02,7.319403300000000036e-03
1.670000000000000000e+02,7.312895300000000348e-03
1.680000000000000000e+02,7.306337799999999827e-03
1.690000000000000000e+02,7.299730600000000139e-03
1.700000000000000000e+02,7.293072099999999870e-03
1.710000000000000000e+02,7.286360999999999880e-03
1.720000000000000000e+02,7.279595800000000089e-03
1.730000000000000000e+02,7.272776199999999962e-03
1.740000000000000000e+02,7.265899800000000415e-03
1.750000000000000000e+02,7.258966599999999714e-03
1.760000000000000000e+02,7.251974700000000246e-03
1.770000000000000000e+02,7.244923599999999672e-03
1.780000000000000000e+02,7.237811099999999845e-03
1.790000000000000000e+02,7.230637600000000033e-03
1.800000000000000000e+02,7.223401200000000022e-03
1.810000000000000000e+02,7.216100999999999939e-03
1.820000000000000000e+02,7.208736099999999911e-03
1.830000000000000000e+02,7.201306099999999800e-03
1.840000000000000000e+02,7.193810299999999804e-03
1.850000000000000000e+02,7.186248000000000115e-03
1.860000000000000000e+02,7.178618599999999662e-03
1.870000000000000000e+02,7.170922100000000181e-03
1.880000000000000000e+02,7.163158600000000403e-03
1.890000000000000000e+02,7.155058399999999867e-03
1.900000000000000000e+02,7.146954100000000101e-03
1.910000000000000000e+02,7.138826000000000026e-03
1.920000000000000000e+02,7.130661499999999681e-03
1.930000000000000000e+02,7.122454200000000353e-03
1.940000000000000000e+02,7.114199499999999607e-03
1.950000000000000000e+02,7.105893900000000152e-03
1.960000000000000000e+02,7.097536699999999581e-03
1.970000000000000000e+02,7.089126400000000418e-03
1.980000000000000000e+02,7.080663499999999798e-03
1.990000000000000000e+02,7.072147400000000118e-03
2.000000000000000000e+02,7.063579700000000190e-03
2.010000000000000000e+02,7.054962199999999760e-03
2.020000000000000000e+02,7.046295299999999831e-03
2.030000000000000000e+02,7.037582300000000228e-03
2.040000000000000000e+02,7.028825100000000298e-03
2.050000000000000000e+02,7.020025499999999787e-03
2.060000000000000000e+02,7.011187299999999990e-03
2.070000000000000000e+02,7.002312699999999925e-03
2.080000000000000000e+02,6.993404600000000144e-03
2.090000000000000000e+02,6.984466200000000007e-03
2.100000000000000000e+02,6.975500800000000202e-03
2.110000000000000000e+02,6.966511300000000420e-03
2.120000000000000000e+02,6.957501199999999685e-03
2.130000000000000000e+02,6.948473900000000023e-03
2.140000000000000000e+02,6.939431700000000050e-03
2.150000000000000000e+02,6.930378699999999864e-03
2.160000000000000000e+02,6.921317399999999884e-03
2.170000000000000000e+02,6.912251000000000332e-03
2.180000000000000000e+02,6.903182699999999700e-03
2.190000000000000000e+02,6.894115400000000275e-03
2.200000000000000000e+02,6.885051300000000207e-03
2.210000000000000000e+02,6.875993199999999583e-03
2.220000000000000000e+02,6.866944500000000430e-03
2.230000000000000000e+02,6.857906500000000155e-03
2.240000000000000000e+02,6.848882399999999850e-03
2.250000000000000000e+02,6.839874200000000196e-03
2.260000000000000000e+02,6.830884100000000209e-03
2.270000000000000000e+02,6.821913599999999966e-03
2.280000000000000000e+02,6.812964999999999820e-03
2.290000000000000000e+02,6.804039700000000246e-03
2.300000000000000000e+02,6.795139999999999861e-03
2.310000000000000000e+02,6.786267300000000009e-03
2.320000000000000000e+02,6.777422499999999697e-03
2.330000000000000000e+02,6.768607500000000006e-03
2.340000000000000000e+02,6.759638899999999978e-03
2.350000000000000000e+02,6.750740100000000334e-03
2.360000000000000000e+02,6.741900500000000060e-03
2.370000000000000000e+02,6.733114400000000249e-03
2.380000000000000000e+02,6.724378599999999810e-03
2.390000000000000000e+02,6.715690699999999659e-03
2.400000000000000000e+02,6.707049900000000391e-03
2.410000000000000000e+02,6.698455699999999666e-03
2.420000000000000000e+02,6.689907099999999746e-03
2.430000000000000000e+02,6.681404099999999763e-03
2.440000000000000000e+02,6.672947200000000322e-03
2.450000000000000000e+02,6.664536399999999687e-03
2.460000000000000000e+02,6.656171800000000062e-03
2.470000000000000000e+02,6.647854100000000384e-03
2.480000000000000000e+02,6.639583999999999590e-03
2.490000000000000000e+02,6.631361300000000215e-03
2.500000000000000000e+02,6.623187099999999598e-03
2.510000000000000000e+02,6.615062199999999747e-03
2.520000000000000000e+02,6.606987699999999734e-03
2.530000000000000000e+02,6.598963900000000098e-03
2.540000000000000000e+02,6.590991699999999842e-03
2.550000000000000000e+02,6.583072700000000381e-03
2.560000000000000000e+02,6.575207700000000252e-03
2.570000000000000000e+02,6.567398099999999933e-03
2.580000000000000000e+02,6.559644800000000164e-03
2.590000000000000000e+02,6.551949300000000156e-03
2.600000000000000000e+02,6.544313399999999656e-03
2.610000000000000000e+02,6.536738000000000270e-03
2.620000000000000000e+02,6.529224999999999612e-03
2.630000000000000000e+02,6.521776299999999631e-03
2.640000000000000000e+02,6.514393700000000072e-03
2.650000000000000000e+02,6.507079600000000019e-03
2.660000000000000000e+02,6.499835300000000350e-03
2.670000000000000000e+02,6.492663600000000285e-03
2.680000000000000000e+02,6.485566499999999637e-03
2.690000000000000000e+02,6.478547099999999899e-03
2.700000000000000000e+02,6.471608299999999890e-03
2.710000000000000000e+02,6.464752399999999961e-03
2.720000000000000000e+02,6.457982600000000337e-03
2.730000000000000000e+02,6.451302699999999710e-03
2.740000000000000000e+02,6.444715900000000039e-03
2.750000000000000000e+02,6.438226000000000018e-03
2.760000000000000000e+02,6.431837099999999745e-03
2.770000000000000000e+02,6.425553500000000251e-03
2.780000000000000000e+02,6.419379700000000036e-03
2.790000000000000000e+02,6.413321500000000210e-03
2.800000000000000000e+02,6.407382900000000402e-03
2.810000000000000000e+02,6.401569999999999656e-03
2.820000000000000000e+02,6.395889000000000088e-03
2.830000000000000000e+02,6.390345300000000069e-03
2.840000000000000000e+02,6.384946399999999987e-03
2.850000000000000000e+02,6.379698399999999756e-03
2.860000000000000000e+02,6.374609199999999899e-03
2.870000000000000000e+02,6.369685800000000203e-03
2.880000000000000000e+02,6.364905700000000367e-03
2.890000000000000000e+02,6.360307299999999608e-03
2.900000000000000000e+02,6.355903599999999758e-03
2.910000000000000000e+02,6.351701900000000268e-03
2.920000000000000000e+02,6.347710300000000000e-03
2.930000000000000000e+02,6.343934699999999663e-03
2.940000000000000000e+02,6.340381200000000037e-03
2.950000000000000000e+02,6.337054499999999688e-03
2.960000000000000000e+02,6.333957900000000175e-03
2.970000000000000000e+02,6.331093099999999911e-03
2.980000000000000000e+02,6.328459800000000093e-03
2.990000000000000000e+02,6.326055599999999904e-03
3.000000000000000000e+02,6.323875900000000376e-03
3.010000000000000000e+02,6.321913600000000390e-03
3.020000000000000000e+02,6.320158499999999936e-03
3.030000000000000000e+02,6.318599500000000001e-03
3.040000000000000000e+02,6.317223000000000283e-03
3.050000000000000000e+02,6.316015000000000344e-03
3.060000000000000000e+02,6.314959799999999603e-03
3.070000000000000000e+02,6.314041599999999609e-03
3.080000000000000000e+02,6.313246199999999857e-03
3.090000000000000000e+02,6.312558400000000368e-03
3.100000000000000000e+02,6.311965200000000178e-03
3.110000000000000000e+02,6.311453399999999991e-03
3.120000000000000000e+02,6.311012900000000266e-03
3.130000000000000000e+02,6.310632899999999920e-03
3.140000000000000000e+02,6.310305599999999765e-03
3.150000000000000000e+02,6.310022900000000073e-03
3.160000000000000000e+02,6.309778400000000398e-03
3.170000000000000000e+02,6.309567000000000300e-03
3.180000000000000000e+02,6.309383499999999742e-03
3.190000000000000000e+02,6.309223800000000361e-03
3.200000000000000000e+02,6.309084599999999730e-03
3.210000000000000000e+02,6.308962599999999761e-03
3.220000000000000000e+02,6.308855999999999839e-03
3.230000000000000000e+02,6.308762400000000013e-03
3.240000000000000000e+02,6.308679900000000070e-03
3.250000000000000000e+02,6.308607299999999599e-03
3.260000000000000000e+02,6.308542999999999790e-03
3.270000000000000000e+02,6.308486200000000370e-03
3.280000000000000000e+02,6.308435499999999994e-03
3.290000000000000000e+02,6.308390300000000193e-03
3.300000000000000000e+02,6.308349799999999827e-03
3.310000000000000000e+02,6.308313900000000161e-03
3.320000000000000000e+02,6.308281300000000320e-03
3.330000000000000000e+02,6.308252500000000040e-03
3.340000000000000000e+02,6.308225899999999643e-03
3.350000000000000000e+02,6.308202199999999801e-03
3.360000000000000000e+02,6.308181199999999579e-03
3.370000000000000000e+02,6.308161700000000302e-03
3.380000000000000000e+02,6.308143999999999904e-03
3.390000000000000000e+02,6.308128100000000120e-03
3.400000000000000000e+02,6.308113199999999809e-03
3.410000000000000000e+02,6.308100199999999713e-03
3.420000000000000000e+02,6.308087599999999753e-03
3.430000000000000000e+02,6.308076900000000008e-03
3.440000000000000000e+02,6.308066699999999999e-03
3.450000000000000000e+02,6.308056900000000126e-03
3.460000000000000000e+02,6.308048499999999864e-03
3.470000000000000000e+02,6.308040600000000206e-03
3.480000000000000000e+02,6.308033099999999817e-03
3.490000000000000000e+02,6.308026100000000032e-03
3.500000000000000000e+02,6.308020099999999721e-03
3.510000000000000000e+02,6.308013999999999809e-03
3.520000000000000000e+02,6.308008900000000238e-03
3.530000000000000000e+02,6.308003799999999800e-03
3.540000000000000000e+02,6.307999100000000366e-03
3.550000000000000000e+02,6.307994499999999664e-03
3.560000000000000000e+02,6.307990799999999704e-03
3.570000000000000000e+02,6.307987000000000143e-03
3.580000000000000000e+02,6.307983300000000182e-03
3.590000000000000000e+02,6.307980000000000358e-03
3.600000000000000000e+02,6.307976800000000134e-03
3.610000000000000000e+02,6.307974000000000046e-03
3.620000000000000000e+02,6.307971199999999959e-03
3.630000000000000000e+02,6.307968899999999608e-03
3.640000000000000000e+02,6.307966100000000388e-03
3.650000000000000000e+02,6.307963699999999570e-03
3.660000000000000000e+02,6.307961899999999823e-03
3.670000000000000000e+02,6.307959600000000340e-03
3.680000000000000000e+02,6.307957700000000126e-03
3.690000000000000000e+02,6.307955799999999912e-03
3.700000000000000000e+02,6.307954000000000165e-03
3.710000000000000000e+02,6.307952599999999688e-03
3.720000000000000000e+02,6.307950700000000341e-03
3.730000000000000000e+02,6.307949299999999863e-03
3.740000000000000000e+02,6.307947399999999649e-03
3.750000000000000000e+02,6.307946099999999640e-03
3.760000000000000000e+02,6.307944700000000030e-03
3.770000000000000000e+02,6.307943699999999689e-03
3.780000000000000000e+02,6.307942300000000078e-03
3.790000000000000000e+02,6.307941400000000205e-03
3.800000000000000000e+02,6.307940500000000332e-03
3.810000000000000000e+02,6.307939499999999991e-03
3.820000000000000000e+02,6.307938600000000118e-03
3.830000000000000000e+02,6.307937700000000245e-03
3.840000000000000000e+02,6.307936699999999904e-03
3.850000000000000000e+02,6.307935800000000030e-03
3.860000000000000000e+02,6.307935300000000294e-03
3.870000000000000000e+02,6.307934400000000420e-03
3.880000000000000000e+02,6.307933899999999816e-03
3.890000000000000000e+02,6.307932999999999943e-03
3.900000000000000000e+02,6.307932500000000206e-03
3.910000000000000000e+02,6.307932100000000070e-03
3.920000000000000000e+02,6.307931600000000333e-03
3.930000000000000000e+02,6.307930699999999592e-03
3.940000000000000000e+02,6.307930199999999855e-03
3.950000000000000000e+02,6.307929799999999719e-03
3.960000000000000000e+02,6.307929299999999982e-03
3.970000000000000000e+02,6.307928800000000245e-03
3.980000000000000000e+02,6.307928400000000109e-03
3.990000000000000000e+02,6.307927900000000372e-03
