# Time [s], Convective Heat Transfer Coefficient [W/m2K]
1.000000000000000000e+00,0.000000000000000000e+00
2.000000000000000000e+00,0.000000000000000000e+00
3.000000000000000000e+00,0.000000000000000000e+00
4.000000000000000000e+00,0.000000000000000000e+00
5.000000000000000000e+00,2.762023300960968902e-02
6.000000000000000000e+00,4.825699198029582276e-02
7.000000000000000000e+00,7.797490316849942094e-02
8.000000000000000000e+00,1.179277144177088982e-01
9.000000000000000000e+00,1.690224868832458649e-01
1.000000000000000000e+01,2.314601128155568954e-01
1.100000000000000000e+01,3.048840930540636651e-01
1.200000000000000000e+01,3.885298704508531320e-01
1.300000000000000000e+01,4.813352046710893117e-01
1.400000000000000000e+01,5.821189391741621311e-01
1.500000000000000000e+01,6.896282283077818098e-01
1.600000000000000000e+01,8.027090876993678847e-01
1.700000000000000000e+01,9.202679299283900161e-01
1.800000000000000000e+01,1.041341298954722161e+00
1.900000000000000000e+01,1.165079306108134594e+00
2.000000000000000000e+01,1.290743507385470279e+00
2.100000000000000000e+01,1.417708048535816889e+00
2.200000000000000000e+01,1.545440205693630276e+00
2.300000000000000000e+01,1.673489361637817474e+00
2.400000000000000000e+01,1.801471427936756964e+00
2.500000000000000000e+01,1.929064949967431275e+00
2.600000000000000000e+01,2.056016276675737053e+00
2.700000000000000000e+01,2.182095766952210525e+00
2.800000000000000000e+01,2.307122765818777399e+00
2.900000000000000000e+01,2.430953362132532991e+00
3.000000000000000000e+01,2.553461405932353490e+00
3.100000000000000000e+01,2.674555388765281982e+00
3.200000000000000000e+01,2.794156568160735432e+00
3.300000000000000000e+01,2.912204434667333253e+00
3.400000000000000000e+01,3.028657291240488103e+00
3.500000000000000000e+01,3.143482090268637119e+00
3.600000000000000000e+01,3.256657379782844419e+00
3.700000000000000000e+01,3.374261926552870605e+00
3.800000000000000000e+01,3.486187977788517411e+00
3.900000000000000000e+01,3.595445115431764815e+00
4.000000000000000000e+01,3.702675186053859147e+00
4.100000000000000000e+01,3.807994743690223505e+00
4.200000000000000000e+01,3.911492779795897157e+00
4.300000000000000000e+01,4.013224140200289725e+00
4.400000000000000000e+01,4.113233625698947016e+00
4.500000000000000000e+01,4.211558169053663647e+00
4.600000000000000000e+01,4.308226387275174041e+00
4.700000000000000000e+01,4.403273535539043770e+00
4.800000000000000000e+01,4.496727183890516066e+00
4.900000000000000000e+01,4.588613549845007356e+00
5.000000000000000000e+01,4.678959907416984976e+00
5.100000000000000000e+01,4.767795406007155457e+00
5.200000000000000000e+01,4.855138474724085107e+00
5.300000000000000000e+01,4.941014276311393338e+00
5.400000000000000000e+01,5.025451403139021167e+00
5.500000000000000000e+01,5.108466890924745485e+00
5.600000000000000000e+01,5.190088646305683895e+00
5.700000000000000000e+01,5.270340184655627702e+00
5.800000000000000000e+01,5.349242141409910722e+00
5.900000000000000000e+01,5.426823272514209151e+00
6.000000000000000000e+01,5.503105486295557291e+00
6.100000000000000000e+01,5.578113527844872799e+00
6.200000000000000000e+01,5.651872969928465551e+00
6.300000000000000000e+01,5.724409484125686731e+00
6.400000000000000000e+01,5.795749587242947420e+00
6.500000000000000000e+01,5.865918192963182065e+00
6.600000000000000000e+01,5.934940499429325556e+00
6.700000000000000000e+01,6.002843041077460917e+00
6.800000000000000000e+01,6.069654100109905137e+00
6.900000000000000000e+01,6.135393872900854362e+00
7.000000000000000000e+01,6.200088403535595205e+00
7.100000000000000000e+01,6.263765049463501988e+00
7.200000000000000000e+01,6.326448789718416066e+00
7.300000000000000000e+01,6.388159051020180890e+00
7.400000000000000000e+01,6.448921583369782162e+00
7.500000000000000000e+01,6.508760926442278105e+00
7.600000000000000000e+01,6.567695623400419791e+00
7.700000000000000000e+01,6.625748788656169452e+00
7.800000000000000000e+01,6.682941546916306486e+00
7.900000000000000000e+01,6.739293193924911662e+00
8.000000000000000000e+01,6.794825904065707078e+00
8.100000000000000000e+01,6.849555264311342206e+00
8.200000000000000000e+01,6.903502576292011916e+00
8.300000000000000000e+01,6.956682804926270336e+00
8.400000000000000000e+01,7.009114821221882785e+00
8.500000000000000000e+01,7.060817121857301260e+00
8.600000000000000000e+01,7.111804153777713466e+00
8.700000000000000000e+01,7.162092760724326546e+00
8.800000000000000000e+01,7.211697516045546763e+00
8.900000000000000000e+01,7.260635095923737126e+00
9.000000000000000000e+01,7.308918662993374227e+00
9.100000000000000000e+01,7.356563936144991267e+00
9.200000000000000000e+01,7.403582622183724204e+00
9.300000000000000000e+01,7.449990049928244318e+00
9.400000000000000000e+01,7.495796199442837704e+00
9.500000000000000000e+01,7.541015700385158560e+00
9.600000000000000000e+01,7.585659218087181799e+00
9.700000000000000000e+01,7.629739115155127926e+00
9.800000000000000000e+01,7.673267169504669027e+00
9.900000000000000000e+01,7.716253233237968523e+00
1.000000000000000000e+02,7.758708840482016811e+00
1.010000000000000000e+02,7.800643270992278389e+00
1.020000000000000000e+02,7.842068240038027938e+00
1.030000000000000000e+02,7.882990238568650554e+00
1.040000000000000000e+02,7.923420498282756519e+00
1.050000000000000000e+02,7.963368478037136988e+00
1.060000000000000000e+02,8.002841954345718989e+00
1.070000000000000000e+02,8.041851087161136391e+00
1.080000000000000000e+02,8.080402211968403137e+00
1.090000000000000000e+02,8.118503882780942149e+00
1.100000000000000000e+02,8.156166242589950599e+00
1.110000000000000000e+02,8.193393978480683515e+00
1.120000000000000000e+02,8.230194517889493966e+00
1.130000000000000000e+02,8.266576709066642437e+00
1.140000000000000000e+02,8.302547534790544859e+00
1.150000000000000000e+02,8.338112026030291446e+00
1.160000000000000000e+02,8.373277018508657576e+00
1.170000000000000000e+02,8.408049091732415548e+00
1.180000000000000000e+02,8.442435402250497489e+00
1.190000000000000000e+02,8.476440240735174214e+00
1.200000000000000000e+02,8.510069996099041134e+00
1.210000000000000000e+02,8.543330347881770592e+00
1.220000000000000000e+02,8.576238709012372397e+00
1.230000000000000000e+02,8.608782242866004353e+00
1.240000000000000000e+02,8.640971673001129005e+00
1.250000000000000000e+02,8.672811153115853600e+00
1.260000000000000000e+02,8.704307469674805731e+00
1.270000000000000000e+02,8.735467187557240720e+00
1.280000000000000000e+02,8.766296964531948177e+00
1.290000000000000000e+02,8.796804003799861604e+00
1.300000000000000000e+02,8.826993633533593453e+00
1.310000000000000000e+02,8.856872506052539507e+00
1.320000000000000000e+02,8.886444849309549809e+00
1.330000000000000000e+02,8.915714904574867816e+00
1.340000000000000000e+02,8.944685171166156579e+00
1.350000000000000000e+02,8.973358643627927123e+00
1.360000000000000000e+02,9.001737207220724457e+00
1.370000000000000000e+02,9.029824113409043562e+00
1.380000000000000000e+02,9.057621654970871461e+00
1.390000000000000000e+02,9.085131762856704540e+00
1.400000000000000000e+02,9.112357144977588419e+00
1.410000000000000000e+02,9.139299441464622475e+00
1.420000000000000000e+02,9.165959674085447872e+00
1.430000000000000000e+02,9.192342004346617301e+00
1.440000000000000000e+02,9.218447996632709973e+00
1.450000000000000000e+02,9.244279431406555503e+00
1.460000000000000000e+02,9.269837481877303276e+00
1.470000000000000000e+02,9.295125304853984360e+00
1.480000000000000000e+02,9.320144483633873378e+00
1.490000000000000000e+02,9.344895606533855315e+00
1.500000000000000000e+02,9.369381626627880877e+00
1.510000000000000000e+02,9.393602759361435517e+00
1.520000000000000000e+02,9.417561304328767591e+00
1.530000000000000000e+02,9.441258046756741962e+00
1.540000000000000000e+02,9.464694386196468301e+00
1.550000000000000000e+02,9.487871281019604197e+00
1.560000000000000000e+02,9.510788870864724132e+00
1.570000000000000000e+02,9.533447912744628994e+00
1.580000000000000000e+02,9.555849253364435469e+00
1.590000000000000000e+02,9.577994209685900984e+00
1.600000000000000000e+02,9.599880874466231617e+00
1.610000000000000000e+02,9.621509752603195409e+00
1.620000000000000000e+02,9.642880685050469580e+00
1.630000000000000000e+02,9.663993364431213706e+00
1.640000000000000000e+02,9.684846963296651623e+00
1.650000000000000000e+02,9.705440020293561787e+00
1.660000000000000000e+02,9.725772061403702651e+00
1.670000000000000000e+02,9.745841113631524166e+00
1.680000000000000000e+02,9.765646189647879893e+00
1.690000000000000000e+02,9.785185432951779561e+00
1.700000000000000000e+02,9.804456742938093328e+00
1.710000000000000000e+02,9.823457778326003975e+00
1.720000000000000000e+02,9.842186202009813201e+00
1.730000000000000000e+02,9.860640281402215379e+00
1.740000000000000000e+02,9.878817796220150882e+00
1.750000000000000000e+02,9.896714133768680810e+00
1.760000000000000000e+02,9.914328641772634398e+00
1.770000000000000000e+02,9.931658029356702500e+00
1.780000000000000000e+02,9.948698303788209074e+00
1.790000000000000000e+02,9.965447726981597754e+00
1.800000000000000000e+02,9.981902311408729744e+00
1.810000000000000000e+02,9.998059719572600201e+00
1.820000000000000000e+02,1.001391748430198270e+01
1.830000000000000000e+02,1.002947207808206365e+01
1.840000000000000000e+02,1.004472066766724581e+01
1.850000000000000000e+02,1.005966167976744607e+01
1.860000000000000000e+02,1.007429224326244466e+01
1.870000000000000000e+02,1.008861085159934490e+01
1.880000000000000000e+02,1.010266505441527229e+01
1.890000000000000000e+02,1.011639431584160143e+01
1.900000000000000000e+02,1.012981901890639413e+01
1.910000000000000000e+02,1.014294710582035464e+01
1.920000000000000000e+02,1.015577674296600286e+01
1.930000000000000000e+02,1.016830176655510520e+01
1.940000000000000000e+02,1.018051546043014177e+01
1.950000000000000000e+02,1.019241202351059528e+01
1.960000000000000000e+02,1.020399037764315153e+01
1.970000000000000000e+02,1.021525175602225488e+01
1.980000000000000000e+02,1.022619945361120664e+01
1.990000000000000000e+02,1.023683880614079200e+01
2.000000000000000000e+02,1.024717572190634129e+01
2.010000000000000000e+02,1.025721712399153596e+01
2.020000000000000000e+02,1.026697016632752124e+01
2.030000000000000000e+02,1.027644190257510459e+01
2.040000000000000000e+02,1.028564128229911567e+01
2.050000000000000000e+02,1.029457681840101735e+01
2.060000000000000000e+02,1.030325692592266762e+01
2.070000000000000000e+02,1.031169124791107095e+01
2.080000000000000000e+02,1.031988977015847553e+01
2.090000000000000000e+02,1.032786227405183155e+01
2.100000000000000000e+02,1.033561987644725377e+01
2.110000000000000000e+02,1.034317185065285827e+01
2.120000000000000000e+02,1.035053067002630556e+01
2.130000000000000000e+02,1.035770620616019499e+01
2.140000000000000000e+02,1.036470901976586312e+01
2.150000000000000000e+02,1.037155112112453637e+01
2.160000000000000000e+02,1.037824335560190825e+01
2.170000000000000000e+02,1.038479574005857309e+01
2.180000000000000000e+02,1.039122050638135697e+01
2.190000000000000000e+02,1.039752721792185142e+01
2.200000000000000000e+02,1.040372797939214067e+01
2.210000000000000000e+02,1.040983126656096580e+01
2.220000000000000000e+02,1.041584777601717349e+01
2.230000000000000000e+02,1.042178771954287697e+01
2.240000000000000000e+02,1.042765867532152413e+01
2.250000000000000000e+02,1.043347280880835548e+01
2.260000000000000000e+02,1.043923664371375715e+01
2.270000000000000000e+02,1.044495903416074079e+01
2.280000000000000000e+02,1.045064965199749629e+01
2.290000000000000000e+02,1.045631448616007653e+01
2.300000000000000000e+02,1.046196238698137471e+01
2.310000000000000000e+02,1.046759992291288199e+01
2.320000000000000000e+02,1.047323342065061880e+01
2.330000000000000000e+02,1.047887067217750001e+01
2.340000000000000000e+02,1.048451634773796748e+01
2.350000000000000000e+02,1.049110357216444633e+01
2.360000000000000000e+02,1.049724710467650368e+01
2.370000000000000000e+02,1.050325559200506831e+01
2.380000000000000000e+02,1.050920252156593016e+01
2.390000000000000000e+02,1.051510683768745125e+01
2.400000000000000000e+02,1.052099786812392779e+01
2.410000000000000000e+02,1.052690153442905086e+01
2.420000000000000000e+02,1.053283625578924543e+01
2.430000000000000000e+02,1.053881773308271974e+01
2.440000000000000000e+02,1.054485643632159153e+01
2.450000000000000000e+02,1.055096068267868503e+01
2.460000000000000000e+02,1.055713601758903408e+01
2.470000000000000000e+02,1.056338900663751978e+01
2.480000000000000000e+02,1.056972356129312374e+01
2.490000000000000000e+02,1.057614503545867990e+01
2.500000000000000000e+02,1.058265822996717986e+01
2.510000000000000000e+02,1.058926666431372077e+01
2.520000000000000000e+02,1.059597477337263349e+01
2.530000000000000000e+02,1.060278238202183054e+01
2.540000000000000000e+02,1.060969991723155026e+01
2.550000000000000000e+02,1.061672995560143029e+01
2.560000000000000000e+02,1.062387494878089100e+01
2.570000000000000000e+02,1.063114385244644566e+01
2.580000000000000000e+02,1.063853873809988926e+01
2.590000000000000000e+02,1.064606465142014535e+01
2.600000000000000000e+02,1.065372721823883495e+01
2.610000000000000000e+02,1.066153438967712042e+01
2.620000000000000000e+02,1.066949015058440686e+01
2.630000000000000000e+02,1.067760368534539417e+01
2.640000000000000000e+02,1.068588154525818368e+01
2.650000000000000000e+02,1.069433002051806803e+01
2.660000000000000000e+02,1.070295759265768432e+01
2.670000000000000000e+02,1.071177328201864043e+01
2.680000000000000000e+02,1.072078867712027517e+01
2.690000000000000000e+02,1.073000987692443431e+01
2.700000000000000000e+02,1.073944321811272218e+01
2.710000000000000000e+02,1.074910671876402013e+01
2.720000000000000000e+02,1.075900842827239678e+01
2.730000000000000000e+02,1.076916114864179974e+01
2.740000000000000000e+02,1.077957956396383921e+01
2.750000000000000000e+02,1.079027569091920924e+01
2.760000000000000000e+02,1.080126672429525847e+01
2.770000000000000000e+02,1.081256426256115866e+01
2.780000000000000000e+02,1.082418025252339433e+01
2.790000000000000000e+02,1.083614113456489214e+01
2.800000000000000000e+02,1.084846568861111038e+01
2.810000000000000000e+02,1.086116778462845645e+01
2.820000000000000000e+02,1.087427385093971210e+01
2.830000000000000000e+02,1.088780039066389271e+01
2.840000000000000000e+02,1.090177979463116920e+01
2.850000000000000000e+02,1.091622809280459983e+01
2.860000000000000000e+02,1.093117395045285534e+01
2.870000000000000000e+02,1.094664665413060867e+01
2.880000000000000000e+02,1.096267237252875582e+01
2.890000000000000000e+02,1.097927592049481582e+01
2.900000000000000000e+02,1.099649227086633019e+01
2.910000000000000000e+02,1.101434609757423289e+01
2.920000000000000000e+02,1.103286863857792532e+01
2.930000000000000000e+02,1.105206918283319872e+01
2.940000000000000000e+02,1.107198144877275148e+01
2.950000000000000000e+02,1.109262648931319006e+01
2.960000000000000000e+02,1.111401506657570160e+01
2.970000000000000000e+02,1.113614631393008736e+01
2.980000000000000000e+02,1.115901773285171927e+01
2.990000000000000000e+02,1.118260687804973230e+01
3.000000000000000000e+02,1.120687626394247971e+01
3.010000000000000000e+02,1.123177029202600785e+01
3.020000000000000000e+02,1.125723076204882567e+01
3.030000000000000000e+02,1.128648705883219527e+01
3.040000000000000000e+02,1.131324469369640795e+01
3.050000000000000000e+02,1.133971130863343468e+01
3.060000000000000000e+02,1.136629199042666194e+01
3.070000000000000000e+02,1.139278572651004495e+01
3.080000000000000000e+02,1.141909388028977546e+01
3.090000000000000000e+02,1.144507904722664016e+01
3.100000000000000000e+02,1.147064204484784966e+01
3.110000000000000000e+02,1.149569177067621162e+01
3.120000000000000000e+02,1.152017265498692389e+01
3.130000000000000000e+02,1.154405286740243675e+01
3.140000000000000000e+02,1.156731407566837611e+01
3.150000000000000000e+02,1.158996038700068176e+01
3.160000000000000000e+02,1.161201061034041260e+01
3.170000000000000000e+02,1.163348760817953398e+01
3.180000000000000000e+02,1.165442556534203256e+01
3.190000000000000000e+02,1.167485581107929882e+01
3.200000000000000000e+02,1.169481314276064587e+01
3.210000000000000000e+02,1.171433033183893002e+01
3.220000000000000000e+02,1.173343367435172624e+01
3.230000000000000000e+02,1.175215455713992441e+01
3.240000000000000000e+02,1.177051308721006073e+01
3.250000000000000000e+02,1.178853192742896994e+01
3.260000000000000000e+02,1.180622887829911427e+01
3.270000000000000000e+02,1.182361503460801266e+01
3.280000000000000000e+02,1.184070866685972057e+01
3.290000000000000000e+02,1.185752238614241527e+01
3.300000000000000000e+02,1.187406871027487121e+01
3.310000000000000000e+02,1.189035617859088312e+01
3.320000000000000000e+02,1.190639486021039417e+01
3.330000000000000000e+02,1.192219543095445999e+01
3.340000000000000000e+02,1.193776185836308379e+01
3.350000000000000000e+02,1.195310615699542112e+01
3.360000000000000000e+02,1.196823545737204242e+01
3.370000000000000000e+02,1.198315353791952198e+01
3.380000000000000000e+02,1.199786729253532336e+01
3.390000000000000000e+02,1.201238361130639198e+01
3.400000000000000000e+02,1.202670735924096945e+01
3.410000000000000000e+02,1.204084487380831980e+01
3.420000000000000000e+02,1.205479726316942468e+01
3.430000000000000000e+02,1.206857364827461510e+01
3.440000000000000000e+02,1.208217238871272059e+01
3.450000000000000000e+02,1.209560048729241544e+01
3.460000000000000000e+02,1.210886231781165101e+01
3.470000000000000000e+02,1.212196196540117654e+01
3.480000000000000000e+02,1.213490275363703041e+01
3.490000000000000000e+02,1.214768876068012204e+01
3.500000000000000000e+02,1.216032037905890917e+01
3.510000000000000000e+02,1.217279988433181792e+01
3.520000000000000000e+02,1.218513259868270637e+01
3.530000000000000000e+02,1.219731946475536866e+01
3.540000000000000000e+02,1.220936502124763301e+01
3.550000000000000000e+02,1.222126960894352621e+01
3.560000000000000000e+02,1.223303606103081265e+01
3.570000000000000000e+02,1.224466647836594824e+01
3.580000000000000000e+02,1.225616356167223486e+01
3.590000000000000000e+02,1.226752990630186702e+01
3.600000000000000000e+02,1.227876575205688248e+01
3.610000000000000000e+02,1.228987458510125386e+01
3.620000000000000000e+02,1.230085722934059156e+01
3.630000000000000000e+02,1.231171658139434477e+01
3.640000000000000000e+02,1.232245420057183871e+01
3.650000000000000000e+02,1.233307124440018754e+01
3.660000000000000000e+02,1.234357008570977854e+01
3.670000000000000000e+02,1.235395054428297179e+01
3.680000000000000000e+02,1.236421725944819983e+01
3.690000000000000000e+02,1.237436894784968722e+01
3.700000000000000000e+02,1.238440852691990202e+01
3.710000000000000000e+02,1.239433652768531147e+01
3.720000000000000000e+02,1.240415484206834584e+01
3.730000000000000000e+02,1.241386534499912564e+01
3.740000000000000000e+02,1.242346997067554781e+01
3.750000000000000000e+02,1.243296874344504133e+01
3.760000000000000000e+02,1.244236251461642695e+01
3.770000000000000000e+02,1.245165371129126264e+01
3.780000000000000000e+02,1.246084315847444124e+01
3.790000000000000000e+02,1.246993265062755540e+01
3.800000000000000000e+02,1.247892268963811091e+01
3.810000000000000000e+02,1.248781452101981060e+01
3.820000000000000000e+02,1.249661050353477343e+01
3.830000000000000000e+02,1.250531050857850346e+01
3.840000000000000000e+02,1.251391582470594166e+01
3.850000000000000000e+02,1.252242549009722161e+01
3.860000000000000000e+02,1.253084353920671568e+01
3.870000000000000000e+02,1.253917167323240101e+01
3.880000000000000000e+02,1.254740935031723126e+01
3.890000000000000000e+02,1.255555729039686774e+01
3.900000000000000000e+02,1.256361642875850926e+01
3.910000000000000000e+02,1.257158932204704804e+01
3.920000000000000000e+02,1.257947577369562353e+01
3.930000000000000000e+02,1.258727610216391390e+01
3.940000000000000000e+02,1.259499246601775013e+01
3.950000000000000000e+02,1.260262656801383230e+01
3.960000000000000000e+02,1.261017686071177835e+01
3.970000000000000000e+02,1.261764621282100585e+01
3.980000000000000000e+02,1.262503512650581250e+01
