# Time [s], Temperature [C]
1.000000000000000000e+00,2.499997099999999861e+01
2.000000000000000000e+00,7.261216000000000292e+01
3.000000000000000000e+00,9.917057800000000611e+01
4.000000000000000000e+00,1.205591399999999993e+02
5.000000000000000000e+00,1.382919599999999889e+02
6.000000000000000000e+00,1.537567400000000077e+02
7.000000000000000000e+00,1.675204200000000014e+02
8.000000000000000000e+00,1.799869099999999946e+02
9.000000000000000000e+00,1.914105099999999879e+02
1.000000000000000000e+01,2.019709200000000067e+02
1.100000000000000000e+01,2.118065300000000093e+02
1.200000000000000000e+01,2.210211799999999869e+02
1.300000000000000000e+01,2.297020899999999983e+02
1.400000000000000000e+01,2.379202699999999879e+02
1.500000000000000000e+01,2.457382200000000125e+02
1.600000000000000000e+01,2.532112600000000100e+02
1.700000000000000000e+01,2.603788099999999872e+02
1.800000000000000000e+01,2.672621500000000196e+02
1.900000000000000000e+01,2.738634000000000128e+02
2.000000000000000000e+01,2.801820999999999913e+02
2.100000000000000000e+01,2.862137099999999919e+02
2.200000000000000000e+01,2.919710400000000163e+02
2.300000000000000000e+01,2.974731800000000135e+02
2.400000000000000000e+01,3.027291000000000167e+02
2.500000000000000000e+01,3.077545799999999758e+02
2.600000000000000000e+01,3.125764800000000037e+02
2.700000000000000000e+01,3.171790199999999800e+02
2.800000000000000000e+01,3.215747999999999820e+02
2.900000000000000000e+01,3.258045999999999935e+02
3.000000000000000000e+01,3.298158599999999865e+02
3.100000000000000000e+01,3.336267100000000028e+02
3.200000000000000000e+01,3.373160700000000247e+02
3.300000000000000000e+01,3.407715799999999717e+02
3.400000000000000000e+01,3.440376299999999787e+02
3.500000000000000000e+01,3.472648899999999799e+02
3.600000000000000000e+01,3.502342499999999745e+02
3.700000000000000000e+01,3.530463899999999740e+02
3.800000000000000000e+01,3.559412199999999871e+02
3.900000000000000000e+01,3.585482799999999770e+02
4.000000000000000000e+01,3.610502900000000182e+02
4.100000000000000000e+01,3.637824699999999893e+02
4.200000000000000000e+01,3.661727900000000204e+02
4.300000000000000000e+01,3.685242900000000077e+02
4.400000000000000000e+01,3.712477099999999837e+02
4.500000000000000000e+01,3.735443099999999959e+02
4.600000000000000000e+01,3.758676100000000133e+02
4.700000000000000000e+01,3.786778299999999717e+02
4.800000000000000000e+01,3.809491300000000251e+02
4.900000000000000000e+01,3.833214699999999766e+02
5.000000000000000000e+01,3.862412100000000237e+02
5.100000000000000000e+01,3.885085799999999949e+02
5.200000000000000000e+01,3.909480300000000170e+02
5.300000000000000000e+01,3.939371300000000247e+02
5.400000000000000000e+01,3.961960799999999949e+02
5.500000000000000000e+01,3.986745599999999854e+02
5.600000000000000000e+01,4.016559799999999996e+02
5.700000000000000000e+01,4.038774099999999976e+02
5.800000000000000000e+01,4.063533600000000092e+02
5.900000000000000000e+01,4.092506099999999947e+02
6.000000000000000000e+01,4.114341699999999946e+02
6.100000000000000000e+01,4.138580000000000041e+02
6.200000000000000000e+01,4.166324500000000057e+02
6.300000000000000000e+01,4.187696799999999939e+02
6.400000000000000000e+01,4.211380300000000148e+02
6.500000000000000000e+01,4.237747200000000021e+02
6.600000000000000000e+01,4.258685600000000022e+02
6.700000000000000000e+01,4.281653699999999958e+02
6.800000000000000000e+01,4.306676299999999742e+02
6.900000000000000000e+01,4.327279700000000275e+02
7.000000000000000000e+01,4.349243500000000040e+02
7.100000000000000000e+01,4.373055100000000266e+02
7.200000000000000000e+01,4.392882099999999923e+02
7.300000000000000000e+01,4.414176899999999932e+02
7.400000000000000000e+01,4.436339699999999766e+02
7.500000000000000000e+01,4.455606399999999780e+02
7.600000000000000000e+01,4.475725699999999847e+02
7.700000000000000000e+01,4.496743500000000040e+02
7.800000000000000000e+01,4.515169399999999769e+02
7.900000000000000000e+01,4.534357899999999972e+02
8.000000000000000000e+01,4.554114999999999895e+02
8.100000000000000000e+01,4.571818499999999972e+02
8.200000000000000000e+01,4.590143400000000042e+02
8.300000000000000000e+01,4.608794599999999946e+02
8.400000000000000000e+01,4.625958899999999971e+02
8.500000000000000000e+01,4.643389599999999859e+02
8.600000000000000000e+01,4.661200900000000047e+02
8.700000000000000000e+01,4.677553700000000276e+02
8.800000000000000000e+01,4.694305400000000077e+02
8.900000000000000000e+01,4.711231700000000160e+02
9.000000000000000000e+01,4.727008099999999899e+02
9.100000000000000000e+01,4.742873200000000224e+02
9.200000000000000000e+01,4.759047499999999786e+02
9.300000000000000000e+01,4.774059399999999869e+02
9.400000000000000000e+01,4.789454000000000065e+02
9.500000000000000000e+01,4.804618800000000078e+02
9.600000000000000000e+01,4.819315500000000156e+02
9.700000000000000000e+01,4.833884300000000280e+02
9.800000000000000000e+01,4.848580900000000042e+02
9.900000000000000000e+01,4.862409700000000043e+02
1.000000000000000000e+02,4.876641200000000254e+02
1.010000000000000000e+02,4.890539600000000178e+02
1.020000000000000000e+02,4.904231300000000147e+02
1.030000000000000000e+02,4.917471300000000269e+02
1.040000000000000000e+02,4.931253399999999942e+02
1.050000000000000000e+02,4.943917500000000018e+02
1.060000000000000000e+02,5.057431300000000078e+02
1.070000000000000000e+02,4.854152799999999957e+02
1.080000000000000000e+02,4.983123199999999997e+02
1.090000000000000000e+02,4.892441400000000158e+02
1.100000000000000000e+02,4.992882999999999925e+02
1.110000000000000000e+02,4.926492900000000077e+02
1.120000000000000000e+02,5.012408100000000104e+02
1.130000000000000000e+02,4.957122800000000211e+02
1.140000000000000000e+02,5.034780900000000088e+02
1.150000000000000000e+02,4.985098600000000033e+02
1.160000000000000000e+02,5.058162199999999871e+02
1.170000000000000000e+02,5.011542999999999779e+02
1.180000000000000000e+02,5.081479199999999992e+02
1.190000000000000000e+02,5.036895099999999843e+02
1.200000000000000000e+02,5.104838599999999929e+02
1.210000000000000000e+02,5.060897800000000188e+02
1.220000000000000000e+02,5.128152499999999918e+02
1.230000000000000000e+02,5.083840599999999768e+02
1.240000000000000000e+02,5.151099199999999882e+02
1.250000000000000000e+02,5.106105699999999956e+02
1.260000000000000000e+02,5.173860499999999547e+02
1.270000000000000000e+02,5.127276600000000144e+02
1.280000000000000000e+02,5.196609499999999571e+02
1.290000000000000000e+02,5.147838699999999790e+02
1.300000000000000000e+02,5.218949599999999691e+02
1.310000000000000000e+02,5.167616600000000062e+02
1.320000000000000000e+02,5.241252399999999625e+02
1.330000000000000000e+02,5.186505700000000161e+02
1.340000000000000000e+02,5.263584600000000364e+02
1.350000000000000000e+02,5.204673500000000104e+02
1.360000000000000000e+02,5.285900900000000320e+02
1.370000000000000000e+02,5.221991000000000440e+02
1.380000000000000000e+02,5.308209200000000010e+02
1.390000000000000000e+02,5.238469800000000305e+02
1.400000000000000000e+02,5.330736699999999928e+02
1.410000000000000000e+02,5.254083900000000540e+02
1.420000000000000000e+02,5.353442999999999756e+02
1.430000000000000000e+02,5.268652299999999968e+02
1.440000000000000000e+02,5.376586899999999787e+02
1.450000000000000000e+02,5.282180200000000241e+02
1.460000000000000000e+02,5.400285000000000082e+02
1.470000000000000000e+02,5.294489099999999553e+02
1.480000000000000000e+02,5.424479999999999791e+02
1.490000000000000000e+02,5.305497400000000425e+02
1.500000000000000000e+02,5.449573400000000447e+02
1.510000000000000000e+02,5.314846800000000258e+02
1.520000000000000000e+02,5.475700699999999870e+02
1.530000000000000000e+02,5.322495699999999488e+02
1.540000000000000000e+02,5.503214100000000144e+02
1.550000000000000000e+02,5.328189700000000357e+02
1.560000000000000000e+02,5.532307100000000446e+02
1.570000000000000000e+02,5.331372699999999440e+02
1.580000000000000000e+02,5.563485699999999952e+02
1.590000000000000000e+02,5.331677200000000312e+02
1.600000000000000000e+02,5.597177699999999732e+02
1.610000000000000000e+02,5.328721299999999701e+02
1.620000000000000000e+02,5.633951399999999694e+02
1.630000000000000000e+02,5.321571699999999510e+02
1.640000000000000000e+02,5.674725300000000061e+02
1.650000000000000000e+02,5.309302999999999884e+02
1.660000000000000000e+02,5.720329000000000406e+02
1.670000000000000000e+02,5.291102300000000014e+02
1.680000000000000000e+02,5.771840799999999945e+02
1.690000000000000000e+02,5.265391799999999876e+02
1.700000000000000000e+02,5.830730600000000550e+02
1.710000000000000000e+02,5.230439499999999953e+02
1.720000000000000000e+02,5.898715200000000323e+02
1.730000000000000000e+02,5.184108899999999949e+02
1.740000000000000000e+02,5.977921099999999797e+02
1.750000000000000000e+02,5.123514999999999873e+02
1.760000000000000000e+02,6.053928799999999910e+02
1.770000000000000000e+02,5.045465100000000120e+02
1.780000000000000000e+02,6.159937700000000405e+02
1.790000000000000000e+02,4.948274799999999800e+02
1.800000000000000000e+02,6.284085099999999784e+02
1.810000000000000000e+02,4.826616500000000087e+02
1.820000000000000000e+02,5.786959799999999632e+02
1.830000000000000000e+02,5.562182599999999866e+02
1.840000000000000000e+02,5.683114600000000110e+02
1.850000000000000000e+02,5.631452600000000075e+02
1.860000000000000000e+02,5.648596199999999499e+02
1.870000000000000000e+02,5.679804100000000062e+02
1.880000000000000000e+02,5.626452600000000075e+02
1.890000000000000000e+02,5.725818500000000313e+02
1.900000000000000000e+02,5.605275900000000320e+02
1.910000000000000000e+02,5.774351799999999457e+02
1.920000000000000000e+02,5.580389400000000251e+02
1.930000000000000000e+02,5.828132299999999759e+02
1.940000000000000000e+02,5.548646199999999453e+02
1.950000000000000000e+02,5.889764999999999873e+02
1.960000000000000000e+02,5.506867099999999482e+02
1.970000000000000000e+02,5.962335799999999608e+02
1.980000000000000000e+02,5.451636999999999489e+02
1.990000000000000000e+02,6.049155899999999519e+02
2.000000000000000000e+02,5.378409400000000460e+02
2.010000000000000000e+02,6.154821799999999712e+02
2.020000000000000000e+02,5.281255499999999756e+02
2.030000000000000000e+02,6.284624599999999646e+02
2.040000000000000000e+02,5.152641599999999471e+02
2.050000000000000000e+02,6.445845900000000483e+02
2.060000000000000000e+02,4.981734900000000152e+02
2.070000000000000000e+02,5.968314800000000560e+02
2.080000000000000000e+02,5.721765699999999697e+02
2.090000000000000000e+02,5.851229899999999589e+02
2.100000000000000000e+02,5.797045299999999770e+02
2.110000000000000000e+02,5.803670700000000124e+02
2.120000000000000000e+02,5.854511700000000474e+02
2.130000000000000000e+02,5.764819899999999961e+02
2.140000000000000000e+02,5.914554399999999532e+02
2.150000000000000000e+02,5.721438000000000557e+02
2.160000000000000000e+02,5.984031999999999698e+02
2.170000000000000000e+02,5.666322599999999738e+02
2.180000000000000000e+02,6.068526000000000522e+02
2.190000000000000000e+02,5.593028000000000475e+02
2.200000000000000000e+02,6.174010600000000295e+02
2.210000000000000000e+02,5.493886099999999715e+02
2.220000000000000000e+02,6.307811900000000378e+02
2.230000000000000000e+02,5.358880000000000337e+02
2.240000000000000000e+02,6.478183000000000220e+02
2.250000000000000000e+02,5.172549999999999955e+02
2.260000000000000000e+02,6.699139400000000251e+02
2.270000000000000000e+02,5.623475300000000061e+02
2.280000000000000000e+02,5.978682900000000018e+02
2.290000000000000000e+02,5.827227799999999434e+02
2.300000000000000000e+02,5.918362399999999752e+02
2.310000000000000000e+02,5.914192500000000337e+02
2.320000000000000000e+02,5.873418000000000347e+02
2.330000000000000000e+02,5.990542599999999993e+02
2.340000000000000000e+02,5.820960700000000543e+02
2.350000000000000000e+02,6.075871600000000399e+02
2.360000000000000000e+02,5.751329299999999876e+02
2.370000000000000000e+02,6.180983899999999949e+02
2.380000000000000000e+02,5.655126999999999953e+02
2.390000000000000000e+02,6.316148699999999963e+02
2.400000000000000000e+02,5.520685999999999467e+02
2.410000000000000000e+02,6.494195600000000468e+02
2.420000000000000000e+02,5.331044900000000553e+02
2.430000000000000000e+02,6.137558599999999842e+02
2.440000000000000000e+02,5.931736499999999523e+02
2.450000000000000000e+02,6.018919700000000148e+02
2.460000000000000000e+02,6.008689600000000155e+02
2.470000000000000000e+02,5.958295900000000529e+02
2.480000000000000000e+02,6.079206500000000233e+02
2.490000000000000000e+02,5.896894499999999653e+02
2.500000000000000000e+02,6.164072300000000268e+02
2.510000000000000000e+02,5.818198899999999867e+02
2.520000000000000000e+02,6.274365800000000490e+02
2.530000000000000000e+02,5.709367099999999482e+02
2.540000000000000000e+02,6.422197300000000268e+02
2.550000000000000000e+02,5.554785200000000032e+02
2.560000000000000000e+02,6.623486299999999574e+02
2.570000000000000000e+02,5.332423099999999749e+02
2.580000000000000000e+02,6.237333399999999983e+02
2.590000000000000000e+02,5.992193600000000515e+02
2.600000000000000000e+02,6.105045800000000327e+02
2.610000000000000000e+02,6.077420700000000124e+02
2.620000000000000000e+02,6.035082999999999629e+02
2.630000000000000000e+02,6.157860699999999952e+02
2.640000000000000000e+02,5.961892100000000028e+02
2.650000000000000000e+02,6.258222700000000032e+02
2.660000000000000000e+02,5.865033600000000433e+02
2.670000000000000000e+02,6.393417399999999589e+02
2.680000000000000000e+02,5.727291300000000547e+02
2.690000000000000000e+02,6.580995500000000220e+02
2.700000000000000000e+02,5.525792199999999639e+02
2.710000000000000000e+02,6.275262500000000045e+02
2.720000000000000000e+02,6.076674199999999928e+02
2.730000000000000000e+02,6.154108300000000327e+02
2.740000000000000000e+02,6.158381299999999783e+02
2.750000000000000000e+02,6.084821200000000090e+02
2.760000000000000000e+02,6.241821899999999914e+02
2.770000000000000000e+02,6.007625100000000202e+02
2.780000000000000000e+02,6.351019900000000007e+02
2.790000000000000000e+02,5.901136500000000069e+02
2.800000000000000000e+02,6.503275099999999611e+02
2.810000000000000000e+02,5.744591100000000097e+02
2.820000000000000000e+02,6.292815600000000131e+02
2.830000000000000000e+02,6.154172399999999925e+02
2.840000000000000000e+02,6.199656999999999698e+02
2.850000000000000000e+02,6.225623199999999997e+02
2.860000000000000000e+02,6.145707400000000007e+02
2.870000000000000000e+02,6.303373400000000402e+02
2.880000000000000000e+02,6.081313499999999976e+02
2.890000000000000000e+02,6.407982200000000148e+02
2.900000000000000000e+02,5.987137500000000045e+02
2.910000000000000000e+02,6.556582600000000411e+02
2.920000000000000000e+02,5.842143600000000561e+02
2.930000000000000000e+02,6.773126200000000381e+02
2.940000000000000000e+02,6.099563600000000179e+02
2.950000000000000000e+02,6.314470199999999522e+02
2.960000000000000000e+02,6.247925400000000309e+02
2.970000000000000000e+02,6.270996699999999464e+02
2.980000000000000000e+02,6.340070200000000114e+02
2.990000000000000000e+02,6.223496099999999842e+02
3.000000000000000000e+02,6.449180900000000065e+02
3.010000000000000000e+02,6.147312600000000202e+02
3.020000000000000000e+02,6.601574100000000271e+02
3.030000000000000000e+02,6.018888500000000477e+02
3.040000000000000000e+02,6.826981799999999794e+02
3.050000000000000000e+02,6.246702299999999468e+02
3.060000000000000000e+02,6.420370500000000220e+02
3.070000000000000000e+02,6.393876299999999446e+02
3.080000000000000000e+02,6.380260600000000295e+02
3.090000000000000000e+02,6.498905600000000504e+02
3.100000000000000000e+02,6.325457800000000361e+02
3.110000000000000000e+02,6.632294299999999794e+02
3.120000000000000000e+02,6.226221299999999701e+02
3.130000000000000000e+02,6.828519900000000007e+02
3.140000000000000000e+02,6.399029500000000326e+02
3.150000000000000000e+02,6.519055200000000241e+02
3.160000000000000000e+02,6.521563700000000381e+02
3.170000000000000000e+02,6.484138199999999870e+02
3.180000000000000000e+02,6.618851300000000037e+02
3.190000000000000000e+02,6.427841799999999921e+02
3.200000000000000000e+02,6.749886500000000069e+02
3.210000000000000000e+02,6.320598099999999704e+02
3.220000000000000000e+02,6.951722999999999502e+02
3.230000000000000000e+02,6.488312399999999798e+02
3.240000000000000000e+02,6.631320200000000114e+02
3.250000000000000000e+02,6.608018799999999828e+02
3.260000000000000000e+02,6.591541099999999460e+02
3.270000000000000000e+02,6.703095100000000457e+02
3.280000000000000000e+02,6.527589699999999766e+02
3.290000000000000000e+02,6.837638500000000477e+02
3.300000000000000000e+02,6.406368400000000065e+02
3.310000000000000000e+02,7.056548500000000104e+02
3.320000000000000000e+02,6.572474399999999832e+02
3.330000000000000000e+02,6.708122600000000375e+02
3.340000000000000000e+02,6.695656099999999924e+02
3.350000000000000000e+02,6.654556300000000419e+02
3.360000000000000000e+02,6.800964999999999918e+02
3.370000000000000000e+02,6.568065800000000536e+02
3.380000000000000000e+02,6.961897599999999784e+02
3.390000000000000000e+02,6.675407099999999900e+02
3.400000000000000000e+02,6.728326399999999694e+02
3.410000000000000000e+02,6.766332999999999629e+02
3.420000000000000000e+02,6.681261600000000271e+02
3.430000000000000000e+02,6.856058299999999690e+02
3.440000000000000000e+02,6.600439499999999953e+02
3.450000000000000000e+02,6.998867800000000443e+02
3.460000000000000000e+02,6.449767500000000382e+02
3.470000000000000000e+02,6.899216900000000123e+02
3.480000000000000000e+02,6.739709500000000162e+02
3.490000000000000000e+02,6.811010700000000497e+02
3.500000000000000000e+02,6.812726400000000240e+02
3.510000000000000000e+02,6.741793800000000374e+02
3.520000000000000000e+02,6.918856200000000172e+02
3.530000000000000000e+02,6.630037800000000061e+02
3.540000000000000000e+02,7.108353299999999990e+02
3.550000000000000000e+02,6.751789599999999609e+02
3.560000000000000000e+02,6.814760099999999738e+02
3.570000000000000000e+02,6.850211799999999585e+02
3.580000000000000000e+02,6.749124100000000226e+02
3.590000000000000000e+02,6.955828199999999697e+02
3.600000000000000000e+02,6.639813799999999446e+02
3.610000000000000000e+02,7.138129300000000512e+02
3.620000000000000000e+02,6.759516599999999471e+02
3.630000000000000000e+02,6.854921900000000505e+02
3.640000000000000000e+02,6.849423799999999574e+02
3.650000000000000000e+02,6.797409099999999853e+02
3.660000000000000000e+02,6.941737699999999904e+02
3.670000000000000000e+02,6.702667800000000398e+02
3.680000000000000000e+02,7.102761199999999917e+02
3.690000000000000000e+02,6.804098500000000058e+02
3.700000000000000000e+02,6.857375500000000557e+02
3.710000000000000000e+02,6.884548999999999523e+02
3.720000000000000000e+02,6.798238499999999931e+02
3.730000000000000000e+02,6.976091300000000501e+02
3.740000000000000000e+02,6.699309100000000399e+02
3.750000000000000000e+02,7.139217499999999745e+02
3.760000000000000000e+02,6.804882800000000316e+02
3.770000000000000000e+02,6.886630199999999604e+02
3.780000000000000000e+02,6.882365700000000288e+02
3.790000000000000000e+02,6.830950900000000274e+02
3.800000000000000000e+02,6.967399900000000343e+02
3.810000000000000000e+02,6.739813199999999824e+02
3.820000000000000000e+02,7.120755000000000337e+02
3.830000000000000000e+02,6.836509399999999914e+02
3.840000000000000000e+02,6.887076399999999694e+02
3.850000000000000000e+02,6.909693600000000515e+02
3.860000000000000000e+02,6.827817999999999756e+02
3.870000000000000000e+02,6.997792399999999589e+02
3.880000000000000000e+02,6.729923099999999749e+02
3.890000000000000000e+02,7.159855300000000398e+02
3.900000000000000000e+02,6.834871200000000044e+02
3.910000000000000000e+02,6.911139500000000453e+02
3.920000000000000000e+02,6.908042000000000371e+02
3.930000000000000000e+02,6.852848500000000058e+02
3.940000000000000000e+02,6.994079000000000406e+02
3.950000000000000000e+02,6.758563199999999824e+02
3.960000000000000000e+02,6.958766500000000406e+02
3.970000000000000000e+02,6.910098900000000413e+02
3.980000000000000000e+02,6.885237399999999752e+02
3.990000000000000000e+02,6.965903299999999945e+02
