# Time [s], Convective Heat Transfer Coefficient [W/m2K]
1.000000000000000000e+00,0.000000000000000000e+00
2.000000000000000000e+00,0.000000000000000000e+00
3.000000000000000000e+00,0.000000000000000000e+00
4.000000000000000000e+00,0.000000000000000000e+00
5.000000000000000000e+00,3.040000000141642594e-02
6.000000000000000000e+00,5.599727877995352293e-02
7.000000000000000000e+00,9.134052410503813724e-02
8.000000000000000000e+00,1.397988032396012825e-01
9.000000000000000000e+00,2.014806844158616161e-01
1.000000000000000000e+01,2.765854128900849251e-01
1.100000000000000000e+01,3.647032150650320048e-01
1.200000000000000000e+01,4.648188655527543123e-01
1.300000000000000000e+01,5.756530940954353026e-01
1.400000000000000000e+01,6.957662776245795433e-01
1.500000000000000000e+01,8.236983951640763912e-01
1.600000000000000000e+01,9.669686297985847778e-01
1.700000000000000000e+01,1.110211010199750659e+00
1.800000000000000000e+01,1.256021823251253222e+00
1.900000000000000000e+01,1.404097111195907965e+00
2.000000000000000000e+01,1.553761232583044771e+00
2.100000000000000000e+01,1.704397018704526534e+00
2.200000000000000000e+01,1.855449231541800970e+00
2.300000000000000000e+01,2.006438964654986723e+00
2.400000000000000000e+01,2.156954715836813197e+00
2.500000000000000000e+01,2.306633556213928404e+00
2.600000000000000000e+01,2.455173232875472511e+00
2.700000000000000000e+01,2.602315864748970142e+00
2.800000000000000000e+01,2.747841890372524798e+00
2.900000000000000000e+01,2.891572421241083823e+00
3.000000000000000000e+01,3.033359444979404795e+00
3.100000000000000000e+01,3.173101103021069402e+00
3.200000000000000000e+01,3.310717455006488397e+00
3.300000000000000000e+01,3.446152476125658115e+00
3.400000000000000000e+01,3.579378457656602563e+00
3.500000000000000000e+01,3.710375345275786163e+00
3.600000000000000000e+01,3.839139242105349403e+00
3.700000000000000000e+01,3.965674824638091067e+00
3.800000000000000000e+01,4.089997189543324474e+00
3.900000000000000000e+01,4.212127051961630286e+00
4.000000000000000000e+01,4.332084645519539201e+00
4.100000000000000000e+01,4.449905692452486683e+00
4.200000000000000000e+01,4.565624322308438288e+00
4.300000000000000000e+01,4.679275626955266887e+00
4.400000000000000000e+01,4.790905219288105421e+00
4.500000000000000000e+01,4.900550805151492995e+00
4.600000000000000000e+01,5.008256570168925670e+00
4.700000000000000000e+01,5.114064088731918645e+00
4.800000000000000000e+01,5.218010571282141186e+00
4.900000000000000000e+01,5.320142317825407474e+00
5.000000000000000000e+01,5.420496083668840726e+00
5.100000000000000000e+01,5.519112983027818942e+00
5.200000000000000000e+01,5.616034797840677051e+00
5.300000000000000000e+01,5.711304452640874274e+00
5.400000000000000000e+01,5.804959300097779717e+00
5.500000000000000000e+01,5.897035303922567806e+00
5.600000000000000000e+01,5.987572443735431627e+00
5.700000000000000000e+01,6.076609459600771146e+00
5.800000000000000000e+01,6.164177840910602946e+00
5.900000000000000000e+01,6.250309910016589754e+00
6.000000000000000000e+01,6.335039438357844332e+00
6.100000000000000000e+01,6.418400331810165227e+00
6.200000000000000000e+01,6.500420566689995461e+00
6.300000000000000000e+01,6.581130373785898158e+00
6.400000000000000000e+01,6.660564508942474760e+00
6.500000000000000000e+01,6.738815311197774882e+00
6.600000000000000000e+01,6.815808718797566002e+00
6.700000000000000000e+01,6.891599273522137636e+00
6.800000000000000000e+01,6.966223121131528195e+00
6.900000000000000000e+01,7.039706287367530457e+00
7.000000000000000000e+01,7.112076555444420300e+00
7.100000000000000000e+01,7.183365078187200936e+00
7.200000000000000000e+01,7.253598243263480683e+00
7.300000000000000000e+01,7.322802471531924873e+00
7.400000000000000000e+01,7.391002911337442249e+00
7.500000000000000000e+01,7.458222486742108082e+00
7.600000000000000000e+01,7.524481873705355817e+00
7.700000000000000000e+01,7.589804354996610769e+00
7.800000000000000000e+01,7.654207997739306713e+00
7.900000000000000000e+01,7.717710004580540684e+00
8.000000000000000000e+01,7.780326966563093194e+00
8.100000000000000000e+01,7.842073379430149593e+00
8.200000000000000000e+01,7.902965170240935144e+00
8.300000000000000000e+01,7.963013673945949833e+00
8.400000000000000000e+01,8.022233604974100984e+00
8.500000000000000000e+01,8.080638861017419572e+00
8.600000000000000000e+01,8.138243283100088377e+00
8.700000000000000000e+01,8.195061003866165095e+00
8.800000000000000000e+01,8.251105220912918981e+00
8.900000000000000000e+01,8.306388935298912202e+00
9.000000000000000000e+01,8.360924124839566929e+00
9.100000000000000000e+01,8.414721642372740007e+00
9.200000000000000000e+01,8.467790631172091409e+00
9.300000000000000000e+01,8.520141691316958088e+00
9.400000000000000000e+01,8.571783921290370145e+00
9.500000000000000000e+01,8.622726264680927954e+00
9.600000000000000000e+01,8.672978295133713544e+00
9.700000000000000000e+01,8.722549255729193263e+00
9.800000000000000000e+01,8.771448076617069489e+00
9.900000000000000000e+01,8.819683842940674978e+00
1.000000000000000000e+02,8.867264743911363212e+00
1.010000000000000000e+02,8.914200329594850203e+00
1.020000000000000000e+02,8.960497795472450733e+00
1.030000000000000000e+02,9.006164267449516814e+00
1.040000000000000000e+02,9.051205804459664606e+00
1.050000000000000000e+02,9.095628299021232266e+00
1.060000000000000000e+02,9.139436643283072925e+00
1.070000000000000000e+02,9.182638384539359322e+00
1.080000000000000000e+02,9.225237686768760881e+00
1.090000000000000000e+02,9.267240118917202452e+00
1.100000000000000000e+02,9.308650969658943453e+00
1.110000000000000000e+02,9.349477535855140076e+00
1.120000000000000000e+02,9.389723459889829371e+00
1.130000000000000000e+02,9.429395072464721750e+00
1.140000000000000000e+02,9.468495796401271036e+00
1.150000000000000000e+02,9.507029503172340412e+00
1.160000000000000000e+02,9.544996639213410461e+00
1.170000000000000000e+02,9.582397928202517789e+00
1.180000000000000000e+02,9.619233597830540106e+00
1.190000000000000000e+02,9.655500632797663130e+00
1.200000000000000000e+02,9.691196006469157354e+00
1.210000000000000000e+02,9.726319644658218522e+00
1.220000000000000000e+02,9.760876035027971298e+00
1.230000000000000000e+02,9.794874431452518238e+00
1.240000000000000000e+02,9.828323118152363591e+00
1.250000000000000000e+02,9.861213075438374887e+00
1.260000000000000000e+02,9.893515439091883579e+00
1.270000000000000000e+02,9.925199233677945543e+00
1.280000000000000000e+02,9.956237546922336534e+00
1.290000000000000000e+02,9.986610538849914676e+00
1.300000000000000000e+02,1.001630519852101209e+01
1.310000000000000000e+02,1.004530491164211803e+01
1.320000000000000000e+02,1.007359381038359558e+01
1.330000000000000000e+02,1.010115764640920410e+01
1.340000000000000000e+02,1.012797870257328725e+01
1.350000000000000000e+02,1.015404006005058157e+01
1.360000000000000000e+02,1.017932509871941527e+01
1.370000000000000000e+02,1.020381779975377157e+01
1.380000000000000000e+02,1.022750393494887611e+01
1.390000000000000000e+02,1.025037133354093655e+01
1.400000000000000000e+02,1.027241347358524237e+01
1.410000000000000000e+02,1.029362448211226777e+01
1.420000000000000000e+02,1.031400659102292749e+01
1.430000000000000000e+02,1.033356580509237688e+01
1.440000000000000000e+02,1.035231270703468986e+01
1.450000000000000000e+02,1.037026575808986983e+01
1.460000000000000000e+02,1.038744749151429936e+01
1.470000000000000000e+02,1.040388501263288745e+01
1.480000000000000000e+02,1.041961243860153097e+01
1.490000000000000000e+02,1.043466792863980430e+01
1.500000000000000000e+02,1.044909281204615326e+01
1.510000000000000000e+02,1.046293522606855397e+01
1.520000000000000000e+02,1.047624324825805786e+01
1.530000000000000000e+02,1.048906909496678175e+01
1.540000000000000000e+02,1.050146614449913152e+01
1.550000000000000000e+02,1.051348981395131155e+01
1.560000000000000000e+02,1.052519303140353202e+01
1.570000000000000000e+02,1.053662819526645933e+01
1.580000000000000000e+02,1.054784689210305615e+01
1.590000000000000000e+02,1.055889866769572727e+01
1.600000000000000000e+02,1.057110481257195644e+01
1.610000000000000000e+02,1.058278135892546423e+01
1.620000000000000000e+02,1.059415091024435540e+01
1.630000000000000000e+02,1.060524070353905302e+01
1.640000000000000000e+02,1.061616474587633085e+01
1.650000000000000000e+02,1.062710625899813266e+01
1.660000000000000000e+02,1.063817641128265912e+01
1.670000000000000000e+02,1.064942959982087523e+01
1.680000000000000000e+02,1.066090079397695867e+01
1.690000000000000000e+02,1.067262052525727434e+01
1.700000000000000000e+02,1.068461122936034080e+01
1.710000000000000000e+02,1.069689601906271470e+01
1.720000000000000000e+02,1.070949999048089474e+01
1.730000000000000000e+02,1.072244570513123563e+01
1.740000000000000000e+02,1.073576498636008125e+01
1.750000000000000000e+02,1.074948824961451166e+01
1.760000000000000000e+02,1.076365136716714588e+01
1.770000000000000000e+02,1.077828508932588569e+01
1.780000000000000000e+02,1.079343668765825370e+01
1.790000000000000000e+02,1.080914974775537551e+01
1.800000000000000000e+02,1.082547446317146012e+01
1.810000000000000000e+02,1.084247136554888513e+01
1.820000000000000000e+02,1.086019749614372643e+01
1.830000000000000000e+02,1.087872715399408285e+01
1.840000000000000000e+02,1.089813888876040160e+01
1.850000000000000000e+02,1.091852030785081595e+01
1.860000000000000000e+02,1.093997920196218310e+01
1.870000000000000000e+02,1.096262600804501020e+01
1.880000000000000000e+02,1.098658146810744007e+01
1.890000000000000000e+02,1.101200634091330244e+01
1.900000000000000000e+02,1.103905207342400452e+01
1.910000000000000000e+02,1.106791703985561526e+01
1.920000000000000000e+02,1.109880682605309232e+01
1.930000000000000000e+02,1.113193555063904228e+01
1.940000000000000000e+02,1.116753141479674660e+01
1.950000000000000000e+02,1.120584848865034644e+01
1.960000000000000000e+02,1.124707634002857048e+01
1.970000000000000000e+02,1.129136154584051432e+01
1.980000000000000000e+02,1.133871057024486539e+01
1.990000000000000000e+02,1.138891741437108607e+01
2.000000000000000000e+02,1.144148335240838144e+01
2.010000000000000000e+02,1.149554472477244005e+01
2.020000000000000000e+02,1.154995402362313506e+01
2.030000000000000000e+02,1.160348528572801463e+01
2.040000000000000000e+02,1.165517170056402740e+01
2.050000000000000000e+02,1.170448656435627655e+01
2.060000000000000000e+02,1.175136482502309399e+01
2.070000000000000000e+02,1.179598028989719616e+01
2.080000000000000000e+02,1.183859422681601181e+01
2.090000000000000000e+02,1.187945701372222018e+01
2.100000000000000000e+02,1.191877880509212417e+01
2.110000000000000000e+02,1.195673230357022909e+01
2.120000000000000000e+02,1.199344921695491983e+01
2.130000000000000000e+02,1.202905083221333804e+01
2.140000000000000000e+02,1.206362351715801040e+01
2.150000000000000000e+02,1.209724890805058983e+01
2.160000000000000000e+02,1.212999357437184145e+01
2.170000000000000000e+02,1.216191988436266769e+01
2.180000000000000000e+02,1.219307886724343426e+01
2.190000000000000000e+02,1.222351322643840454e+01
2.200000000000000000e+02,1.225326047765293147e+01
2.210000000000000000e+02,1.228236009575393162e+01
2.220000000000000000e+02,1.231084261233326771e+01
2.230000000000000000e+02,1.233873638664625183e+01
2.240000000000000000e+02,1.236607051021555570e+01
2.250000000000000000e+02,1.239286665700562651e+01
2.260000000000000000e+02,1.241914806534260052e+01
2.270000000000000000e+02,1.244493400278113882e+01
2.280000000000000000e+02,1.247024603460619652e+01
2.290000000000000000e+02,1.249509689362013098e+01
2.300000000000000000e+02,1.251950694668063413e+01
2.310000000000000000e+02,1.254348895291494159e+01
2.320000000000000000e+02,1.256705785355027061e+01
2.330000000000000000e+02,1.259022638150069184e+01
2.340000000000000000e+02,1.261300459393531703e+01
2.350000000000000000e+02,1.263540637833663816e+01
2.360000000000000000e+02,1.265743996512729375e+01
2.370000000000000000e+02,1.267911720585525437e+01
2.380000000000000000e+02,1.270044720229577173e+01
2.390000000000000000e+02,1.272143650177992846e+01
2.400000000000000000e+02,1.274209808272529543e+01
2.410000000000000000e+02,1.276243795910432688e+01
2.420000000000000000e+02,1.278246353400012403e+01
2.430000000000000000e+02,1.280218200921082605e+01
2.440000000000000000e+02,1.282159875338471267e+01
2.450000000000000000e+02,1.284072152075422402e+01
2.460000000000000000e+02,1.285955723270655682e+01
2.470000000000000000e+02,1.287811008685985925e+01
2.480000000000000000e+02,1.289638877726273414e+01
2.490000000000000000e+02,1.291439520308762390e+01
2.500000000000000000e+02,1.293213835390843336e+01
2.510000000000000000e+02,1.294962039287004885e+01
2.520000000000000000e+02,1.296684670618469148e+01
2.530000000000000000e+02,1.298382391730620000e+01
2.540000000000000000e+02,1.300055440114107519e+01
2.550000000000000000e+02,1.301704497557184226e+01
2.560000000000000000e+02,1.303329747456599108e+01
2.570000000000000000e+02,1.304931609826619976e+01
2.580000000000000000e+02,1.306510505321789317e+01
2.590000000000000000e+02,1.308067135850345331e+01
2.600000000000000000e+02,1.309601368851879322e+01
2.610000000000000000e+02,1.311113935929916963e+01
2.620000000000000000e+02,1.312605104905232523e+01
2.630000000000000000e+02,1.314075308881167459e+01
2.640000000000000000e+02,1.315524725115763793e+01
2.650000000000000000e+02,1.316953736873700542e+01
2.660000000000000000e+02,1.318362715745618630e+01
2.670000000000000000e+02,1.319752042031564443e+01
2.680000000000000000e+02,1.321121943777803587e+01
2.690000000000000000e+02,1.322472592130773172e+01
2.700000000000000000e+02,1.323804462669825810e+01
2.710000000000000000e+02,1.325117792439404063e+01
2.720000000000000000e+02,1.326412928376021227e+01
2.730000000000000000e+02,1.327690020831329498e+01
2.740000000000000000e+02,1.328949522625996948e+01
2.750000000000000000e+02,1.330191465137636087e+01
2.760000000000000000e+02,1.331416380182447945e+01
2.770000000000000000e+02,1.332624366060719368e+01
2.780000000000000000e+02,1.333815617937105813e+01
2.790000000000000000e+02,1.334990518962366401e+01
2.800000000000000000e+02,1.336149192813532416e+01
2.810000000000000000e+02,1.337292029649006686e+01
2.820000000000000000e+02,1.338419121904843756e+01
2.830000000000000000e+02,1.339530782229749661e+01
2.840000000000000000e+02,1.340627157422785487e+01
2.850000000000000000e+02,1.341708613490847135e+01
2.860000000000000000e+02,1.342775285962075671e+01
2.870000000000000000e+02,1.343827328085060557e+01
2.880000000000000000e+02,1.344864968966076901e+01
2.890000000000000000e+02,1.345888429009288600e+01
2.900000000000000000e+02,1.346897971645672598e+01
2.910000000000000000e+02,1.347893767749173222e+01
2.920000000000000000e+02,1.348875960695823650e+01
2.930000000000000000e+02,1.349844807930453428e+01
2.940000000000000000e+02,1.350800442812570346e+01
2.950000000000000000e+02,1.351743189445025273e+01
2.960000000000000000e+02,1.352673023978336708e+01
2.970000000000000000e+02,1.353590273427789192e+01
2.980000000000000000e+02,1.354495185830773174e+01
2.990000000000000000e+02,1.355387688681757119e+01
3.000000000000000000e+02,1.356268141984460307e+01
3.010000000000000000e+02,1.357136706258080672e+01
3.020000000000000000e+02,1.357993470806993130e+01
3.030000000000000000e+02,1.358838625362011143e+01
3.040000000000000000e+02,1.359672453145634741e+01
3.050000000000000000e+02,1.360494912928914779e+01
3.060000000000000000e+02,1.361306285322270959e+01
3.070000000000000000e+02,1.362106672435413302e+01
3.080000000000000000e+02,1.362896269942241112e+01
3.090000000000000000e+02,1.363675240663047283e+01
3.100000000000000000e+02,1.364443765079717252e+01
3.110000000000000000e+02,1.365201840274380629e+01
3.120000000000000000e+02,1.365949726407636255e+01
3.130000000000000000e+02,1.366687506595825496e+01
3.140000000000000000e+02,1.367415394652975991e+01
3.150000000000000000e+02,1.368133496766485280e+01
3.160000000000000000e+02,1.368841924536408605e+01
3.170000000000000000e+02,1.369540819925557251e+01
3.180000000000000000e+02,1.370230292772784431e+01
3.190000000000000000e+02,1.370910514399355584e+01
3.200000000000000000e+02,1.371581636428935624e+01
3.210000000000000000e+02,1.372243672789935687e+01
3.220000000000000000e+02,1.372896885446108328e+01
3.230000000000000000e+02,1.373541293056974588e+01
3.240000000000000000e+02,1.374177044076762755e+01
3.250000000000000000e+02,1.374804304683164524e+01
3.260000000000000000e+02,1.375423134958571580e+01
3.270000000000000000e+02,1.376033674849205291e+01
3.280000000000000000e+02,1.376636026460888829e+01
3.290000000000000000e+02,1.377230346811485973e+01
3.300000000000000000e+02,1.377816705782749196e+01
3.310000000000000000e+02,1.378395123469824490e+01
3.320000000000000000e+02,1.378965878197195849e+01
3.330000000000000000e+02,1.379528988780164944e+01
3.340000000000000000e+02,1.380084547486845636e+01
3.350000000000000000e+02,1.380632689042162120e+01
3.360000000000000000e+02,1.381173467743045968e+01
3.370000000000000000e+02,1.381707011073728530e+01
3.380000000000000000e+02,1.382233415273509891e+01
3.390000000000000000e+02,1.382752837302230908e+01
3.400000000000000000e+02,1.383265262146369601e+01
3.410000000000000000e+02,1.383770894718267463e+01
3.420000000000000000e+02,1.384269737543028533e+01
3.430000000000000000e+02,1.384761890623624581e+01
3.440000000000000000e+02,1.385247471794673224e+01
3.450000000000000000e+02,1.385726580092983617e+01
3.460000000000000000e+02,1.386199326291983169e+01
3.470000000000000000e+02,1.386665698937555824e+01
3.480000000000000000e+02,1.387125893290329515e+01
3.490000000000000000e+02,1.387579951936550238e+01
3.500000000000000000e+02,1.388027929347559919e+01
3.510000000000000000e+02,1.388469946493968799e+01
3.520000000000000000e+02,1.388906093549206311e+01
3.530000000000000000e+02,1.389336411801204108e+01
3.540000000000000000e+02,1.389760948355989001e+01
3.550000000000000000e+02,1.390179871208945528e+01
3.560000000000000000e+02,1.390593184372859703e+01
3.570000000000000000e+02,1.391001006671096007e+01
3.580000000000000000e+02,1.391403383964586205e+01
3.590000000000000000e+02,1.391800404186625606e+01
3.600000000000000000e+02,1.392192112672845816e+01
3.610000000000000000e+02,1.392578657156764699e+01
3.620000000000000000e+02,1.392960022041371104e+01
3.630000000000000000e+02,1.393336282099177126e+01
3.640000000000000000e+02,1.393707560044704508e+01
3.650000000000000000e+02,1.394073930040132936e+01
3.660000000000000000e+02,1.394435369667725766e+01
3.670000000000000000e+02,1.394792030953298578e+01
3.680000000000000000e+02,1.395143921176784652e+01
3.690000000000000000e+02,1.395491161720477891e+01
3.700000000000000000e+02,1.395833747462669194e+01
3.710000000000000000e+02,1.396171775291530714e+01
3.720000000000000000e+02,1.396505311808508942e+01
3.730000000000000000e+02,1.396834441402223526e+01
3.740000000000000000e+02,1.397159170262803229e+01
3.750000000000000000e+02,1.397479582410909060e+01
3.760000000000000000e+02,1.397795749652329000e+01
3.770000000000000000e+02,1.398107677712424746e+01
3.780000000000000000e+02,1.398415485965872840e+01
3.790000000000000000e+02,1.398719173837402785e+01
3.800000000000000000e+02,1.399018830394978075e+01
3.810000000000000000e+02,1.399314484702443373e+01
3.820000000000000000e+02,1.399606261320928624e+01
3.830000000000000000e+02,1.399894129232684215e+01
3.840000000000000000e+02,1.400178224594270837e+01
3.850000000000000000e+02,1.400458456475845281e+01
3.860000000000000000e+02,1.400735008477085408e+01
3.870000000000000000e+02,1.401007884933495440e+01
3.880000000000000000e+02,1.401277161656625836e+01
3.890000000000000000e+02,1.401542807019155390e+01
3.900000000000000000e+02,1.401804968099972726e+01
3.910000000000000000e+02,1.402063619014176687e+01
3.920000000000000000e+02,1.402318864824062672e+01
3.930000000000000000e+02,1.402570679476818860e+01
3.940000000000000000e+02,1.402819203465793585e+01
3.950000000000000000e+02,1.403064374861281216e+01
3.960000000000000000e+02,1.403306304160138041e+01
3.970000000000000000e+02,1.403545036296483950e+01
3.980000000000000000e+02,1.403780598279355019e+01
