# Time [s], Thickness [m]
1.000000000000000000e+00,8.000000400000000303e-03
2.000000000000000000e+00,8.000000400000000303e-03
3.000000000000000000e+00,8.000000400000000303e-03
4.000000000000000000e+00,8.000000400000000303e-03
5.000000000000000000e+00,8.000000400000000303e-03
6.000000000000000000e+00,8.000000400000000303e-03
7.000000000000000000e+00,8.000000400000000303e-03
8.000000000000000000e+00,8.000000400000000303e-03
9.000000000000000000e+00,8.000000400000000303e-03
1.000000000000000000e+01,8.000000400000000303e-03
1.100000000000000000e+01,8.000000400000000303e-03
1.200000000000000000e+01,7.999999400000000829e-03
1.300000000000000000e+01,7.999999400000000829e-03
1.400000000000000000e+01,7.999999400000000829e-03
1.500000000000000000e+01,7.999998499999999221e-03
1.600000000000000000e+01,7.999996699999999475e-03
1.700000000000000000e+01,7.999992900000000781e-03
1.800000000000000000e+01,7.999987300000000606e-03
1.900000000000000000e+01,7.999977099999999730e-03
2.000000000000000000e+01,7.999958499999999459e-03
2.100000000000000000e+01,7.999929600000000446e-03
2.200000000000000000e+01,7.999884000000000508e-03
2.300000000000000000e+01,7.999813200000000651e-03
2.400000000000000000e+01,7.999709799999999219e-03
2.500000000000000000e+01,7.999560799999999583e-03
2.600000000000000000e+01,7.999350299999999359e-03
2.700000000000000000e+01,7.999060699999999483e-03
2.800000000000000000e+01,7.998671400000000736e-03
2.900000000000000000e+01,7.998157299999999331e-03
3.000000000000000000e+01,7.997491400000000805e-03
3.100000000000000000e+01,7.996645800000000415e-03
3.200000000000000000e+01,7.995593400000000628e-03
3.300000000000000000e+01,7.994305300000000697e-03
3.400000000000000000e+01,7.992758399999999250e-03
3.500000000000000000e+01,7.990933999999999884e-03
3.600000000000000000e+01,7.988819899999999308e-03
3.700000000000000000e+01,7.986408699999999333e-03
3.800000000000000000e+01,7.983700399999999961e-03
3.900000000000000000e+01,7.980478900000000791e-03
4.000000000000000000e+01,7.977223999999999773e-03
4.100000000000000000e+01,7.973683999999999980e-03
4.200000000000000000e+01,7.969920499999999866e-03
4.300000000000000000e+01,7.965927899999999257e-03
4.400000000000000000e+01,7.961736100000000108e-03
4.500000000000000000e+01,7.957375600000000243e-03
4.600000000000000000e+01,7.952865199999999135e-03
4.700000000000000000e+01,7.948229100000000699e-03
4.800000000000000000e+01,7.943502599999999192e-03
4.900000000000000000e+01,7.938698900000000849e-03
5.000000000000000000e+01,7.933837399999999276e-03
5.100000000000000000e+01,7.928953500000000473e-03
5.200000000000000000e+01,7.924050099999999791e-03
5.300000000000000000e+01,7.919141100000000669e-03
5.400000000000000000e+01,7.914253499999999303e-03
5.500000000000000000e+01,7.909382700000000196e-03
5.600000000000000000e+01,7.904535199999999928e-03
5.700000000000000000e+01,7.899723900000000729e-03
5.800000000000000000e+01,7.894939700000000796e-03
5.900000000000000000e+01,7.890179799999999175e-03
6.000000000000000000e+01,7.885444900000000007e-03
6.100000000000000000e+01,7.880724000000000409e-03
6.200000000000000000e+01,7.876005999999999632e-03
6.300000000000000000e+01,7.871288800000000863e-03
6.400000000000000000e+01,7.866563300000000564e-03
6.500000000000000000e+01,7.861819100000000393e-03
6.600000000000000000e+01,7.857058199999999298e-03
6.700000000000000000e+01,7.852275900000000447e-03
6.800000000000000000e+01,7.847472100000000769e-03
6.900000000000000000e+01,7.842651600000000167e-03
7.000000000000000000e+01,7.837817099999999995e-03
7.100000000000000000e+01,7.832973300000000555e-03
7.200000000000000000e+01,7.828127600000000033e-03
7.300000000000000000e+01,7.823284700000000466e-03
7.400000000000000000e+01,7.818449300000000421e-03
7.500000000000000000e+01,7.813624999999999390e-03
7.600000000000000000e+01,7.808816199999999742e-03
7.700000000000000000e+01,7.804022600000000073e-03
7.800000000000000000e+01,7.799244999999999789e-03
7.900000000000000000e+01,7.794481199999999874e-03
8.000000000000000000e+01,7.789729199999999645e-03
8.100000000000000000e+01,7.784985000000000342e-03
8.200000000000000000e+01,7.780245499999999606e-03
8.300000000000000000e+01,7.775505999999999737e-03
8.400000000000000000e+01,7.770762799999999908e-03
8.500000000000000000e+01,7.766013500000000166e-03
8.600000000000000000e+01,7.761254900000000290e-03
8.700000000000000000e+01,7.756486499999999673e-03
8.800000000000000000e+01,7.751707899999999915e-03
8.900000000000000000e+01,7.746919500000000285e-03
9.000000000000000000e+01,7.742123200000000129e-03
9.100000000000000000e+01,7.737320800000000061e-03
9.200000000000000000e+01,7.732514799999999633e-03
9.300000000000000000e+01,7.727706800000000258e-03
9.400000000000000000e+01,7.722899299999999752e-03
9.500000000000000000e+01,7.718093700000000328e-03
9.600000000000000000e+01,7.713291300000000260e-03
9.700000000000000000e+01,7.708491799999999880e-03
9.800000000000000000e+01,7.703694999999999987e-03
9.900000000000000000e+01,7.698900499999999578e-03
1.000000000000000000e+02,7.694106099999999636e-03
1.010000000000000000e+02,7.689309800000000347e-03
1.020000000000000000e+02,7.684509699999999763e-03
1.030000000000000000e+02,7.679703199999999598e-03
1.040000000000000000e+02,7.674888700000000175e-03
1.050000000000000000e+02,7.670063500000000138e-03
1.060000000000000000e+02,7.665227200000000220e-03
1.070000000000000000e+02,7.660378199999999874e-03
1.080000000000000000e+02,7.655516299999999899e-03
1.090000000000000000e+02,7.650641300000000228e-03
1.100000000000000000e+02,7.645753699999999729e-03
1.110000000000000000e+02,7.640854499999999612e-03
1.120000000000000000e+02,7.635943600000000275e-03
1.130000000000000000e+02,7.631022500000000063e-03
1.140000000000000000e+02,7.626091100000000240e-03
1.150000000000000000e+02,7.621150900000000020e-03
1.160000000000000000e+02,7.616201399999999663e-03
1.170000000000000000e+02,7.611242600000000039e-03
1.180000000000000000e+02,7.606273999999999674e-03
1.190000000000000000e+02,7.601295099999999701e-03
1.200000000000000000e+02,7.596304600000000108e-03
1.210000000000000000e+02,7.591301600000000156e-03
1.220000000000000000e+02,7.586284500000000167e-03
1.230000000000000000e+02,7.581252099999999730e-03
1.240000000000000000e+02,7.576203000000000104e-03
1.250000000000000000e+02,7.571135599999999875e-03
1.260000000000000000e+02,7.566050199999999580e-03
1.270000000000000000e+02,7.560945099999999940e-03
1.280000000000000000e+02,7.555318999999999577e-03
1.290000000000000000e+02,7.549790699999999605e-03
1.300000000000000000e+02,7.544288399999999825e-03
1.310000000000000000e+02,7.538833699999999798e-03
1.320000000000000000e+02,7.533415199999999971e-03
1.330000000000000000e+02,7.528018200000000104e-03
1.340000000000000000e+02,7.522635199999999807e-03
1.350000000000000000e+02,7.517258199999999821e-03
1.360000000000000000e+02,7.511880700000000098e-03
1.370000000000000000e+02,7.506496700000000327e-03
1.380000000000000000e+02,7.501102499999999680e-03
1.390000000000000000e+02,7.495692899999999853e-03
1.400000000000000000e+02,7.490265200000000359e-03
1.410000000000000000e+02,7.484815500000000302e-03
1.420000000000000000e+02,7.479341700000000266e-03
1.430000000000000000e+02,7.473841299999999833e-03
1.440000000000000000e+02,7.468312999999999861e-03
1.450000000000000000e+02,7.462754400000000399e-03
1.460000000000000000e+02,7.457166000000000315e-03
1.470000000000000000e+02,7.451545900000000264e-03
1.480000000000000000e+02,7.445893700000000108e-03
1.490000000000000000e+02,7.440209899999999585e-03
1.500000000000000000e+02,7.434493900000000224e-03
1.510000000000000000e+02,7.428745300000000155e-03
1.520000000000000000e+02,7.422963599999999641e-03
1.530000000000000000e+02,7.417148900000000017e-03
1.540000000000000000e+02,7.411300200000000074e-03
1.550000000000000000e+02,7.405417499999999813e-03
1.560000000000000000e+02,7.399499900000000227e-03
1.570000000000000000e+02,7.393545900000000372e-03
1.580000000000000000e+02,7.387554699999999974e-03
1.590000000000000000e+02,7.381525800000000165e-03
1.600000000000000000e+02,7.375458300000000203e-03
1.610000000000000000e+02,7.369350200000000274e-03
1.620000000000000000e+02,7.363201100000000242e-03
1.630000000000000000e+02,7.357010199999999833e-03
1.640000000000000000e+02,7.350776300000000374e-03
1.650000000000000000e+02,7.344498300000000188e-03
1.660000000000000000e+02,7.338176000000000074e-03
1.670000000000000000e+02,7.331807600000000286e-03
1.680000000000000000e+02,7.325393099999999956e-03
1.690000000000000000e+02,7.318931199999999943e-03
1.700000000000000000e+02,7.312421199999999573e-03
1.710000000000000000e+02,7.305861900000000173e-03
1.720000000000000000e+02,7.299252800000000270e-03
1.730000000000000000e+02,7.292591999999999651e-03
1.740000000000000000e+02,7.285879500000000050e-03
1.750000000000000000e+02,7.279112899999999782e-03
1.760000000000000000e+02,7.272292399999999782e-03
1.770000000000000000e+02,7.265415499999999631e-03
1.780000000000000000e+02,7.258482299999999797e-03
1.790000000000000000e+02,7.251491300000000202e-03
1.800000000000000000e+02,7.244441199999999970e-03
1.810000000000000000e+02,7.237331500000000230e-03
1.820000000000000000e+02,7.230160799999999638e-03
1.830000000000000000e+02,7.222928600000000192e-03
1.840000000000000000e+02,7.215634500000000021e-03
1.850000000000000000e+02,7.208277499999999650e-03
1.860000000000000000e+02,7.200857199999999812e-03
1.870000000000000000e+02,7.193373500000000038e-03
1.880000000000000000e+02,7.185826099999999793e-03
1.890000000000000000e+02,7.178214399999999738e-03
1.900000000000000000e+02,7.170538399999999875e-03
1.910000000000000000e+02,7.162798700000000407e-03
1.920000000000000000e+02,7.154995100000000399e-03
1.930000000000000000e+02,7.147128200000000056e-03
1.940000000000000000e+02,7.139198499999999982e-03
1.950000000000000000e+02,7.130809099999999706e-03
1.960000000000000000e+02,7.122476099999999581e-03
1.970000000000000000e+02,7.114157500000000030e-03
1.980000000000000000e+02,7.105833899999999641e-03
1.990000000000000000e+02,7.097492000000000384e-03
2.000000000000000000e+02,7.089124999999999940e-03
2.010000000000000000e+02,7.080726800000000133e-03
2.020000000000000000e+02,7.072295099999999744e-03
2.030000000000000000e+02,7.063827899999999826e-03
2.040000000000000000e+02,7.055324499999999707e-03
2.050000000000000000e+02,7.046784700000000186e-03
2.060000000000000000e+02,7.038209600000000336e-03
2.070000000000000000e+02,7.029600000000000432e-03
2.080000000000000000e+02,7.020957300000000081e-03
2.090000000000000000e+02,7.012284399999999841e-03
2.100000000000000000e+02,7.003582999999999857e-03
2.110000000000000000e+02,6.994856100000000285e-03
2.120000000000000000e+02,6.986105799999999671e-03
2.130000000000000000e+02,6.977335500000000044e-03
2.140000000000000000e+02,6.968548100000000224e-03
2.150000000000000000e+02,6.959746600000000366e-03
2.160000000000000000e+02,6.950934399999999895e-03
2.170000000000000000e+02,6.942113899999999629e-03
2.180000000000000000e+02,6.933289100000000066e-03
2.190000000000000000e+02,6.924462000000000152e-03
2.200000000000000000e+02,6.915636799999999584e-03
2.210000000000000000e+02,6.906815299999999845e-03
2.220000000000000000e+02,6.898000799999999891e-03
2.230000000000000000e+02,6.889196099999999809e-03
2.240000000000000000e+02,6.880403499999999950e-03
2.250000000000000000e+02,6.871625800000000402e-03
2.260000000000000000e+02,6.862865299999999780e-03
2.270000000000000000e+02,6.854124399999999770e-03
2.280000000000000000e+02,6.845405300000000255e-03
2.290000000000000000e+02,6.836710499999999920e-03
2.300000000000000000e+02,6.828041299999999640e-03
2.310000000000000000e+02,6.819399999999999767e-03
2.320000000000000000e+02,6.810788499999999648e-03
2.330000000000000000e+02,6.802208300000000228e-03
2.340000000000000000e+02,6.793661000000000318e-03
2.350000000000000000e+02,6.785148300000000063e-03
2.360000000000000000e+02,6.776671899999999610e-03
2.370000000000000000e+02,6.768232199999999962e-03
2.380000000000000000e+02,6.759831200000000068e-03
2.390000000000000000e+02,6.751470300000000403e-03
2.400000000000000000e+02,6.743150300000000374e-03
2.410000000000000000e+02,6.734872200000000322e-03
2.420000000000000000e+02,6.726636999999999721e-03
2.430000000000000000e+02,6.718446500000000050e-03
2.440000000000000000e+02,6.710057099999999775e-03
2.450000000000000000e+02,6.701767400000000104e-03
2.460000000000000000e+02,6.693563900000000337e-03
2.470000000000000000e+02,6.685438099999999745e-03
2.480000000000000000e+02,6.677385000000000091e-03
2.490000000000000000e+02,6.669400699999999613e-03
2.500000000000000000e+02,6.661482600000000025e-03
2.510000000000000000e+02,6.653628800000000246e-03
2.520000000000000000e+02,6.645837800000000198e-03
2.530000000000000000e+02,6.638109700000000349e-03
2.540000000000000000e+02,6.630443500000000358e-03
2.550000000000000000e+02,6.622838800000000088e-03
2.560000000000000000e+02,6.615295999999999677e-03
2.570000000000000000e+02,6.607815199999999591e-03
2.580000000000000000e+02,6.600396700000000366e-03
2.590000000000000000e+02,6.593041600000000210e-03
2.600000000000000000e+02,6.585750300000000126e-03
2.610000000000000000e+02,6.578523699999999988e-03
2.620000000000000000e+02,6.571363200000000272e-03
2.630000000000000000e+02,6.564269299999999849e-03
2.640000000000000000e+02,6.557244299999999936e-03
2.650000000000000000e+02,6.550288799999999870e-03
2.660000000000000000e+02,6.543404400000000197e-03
2.670000000000000000e+02,6.536593200000000332e-03
2.680000000000000000e+02,6.529856900000000422e-03
2.690000000000000000e+02,6.523197500000000280e-03
2.700000000000000000e+02,6.516617300000000258e-03
2.710000000000000000e+02,6.510117999999999634e-03
2.720000000000000000e+02,6.503702099999999695e-03
2.730000000000000000e+02,6.497372399999999659e-03
2.740000000000000000e+02,6.491131600000000015e-03
2.750000000000000000e+02,6.484982599999999583e-03
2.760000000000000000e+02,6.478928000000000118e-03
2.770000000000000000e+02,6.472971299999999775e-03
2.780000000000000000e+02,6.467116499999999921e-03
2.790000000000000000e+02,6.461366100000000105e-03
2.800000000000000000e+02,6.455725100000000299e-03
2.810000000000000000e+02,6.450196299999999723e-03
2.820000000000000000e+02,6.444785300000000286e-03
2.830000000000000000e+02,6.439495400000000078e-03
2.840000000000000000e+02,6.434332600000000277e-03
2.850000000000000000e+02,6.429301099999999713e-03
2.860000000000000000e+02,6.424406500000000297e-03
2.870000000000000000e+02,6.419654500000000069e-03
2.880000000000000000e+02,6.415050900000000139e-03
2.890000000000000000e+02,6.410601499999999883e-03
2.900000000000000000e+02,6.406313299999999954e-03
2.910000000000000000e+02,6.402192200000000194e-03
2.920000000000000000e+02,6.398245200000000389e-03
2.930000000000000000e+02,6.394478999999999788e-03
2.940000000000000000e+02,6.390900799999999979e-03
2.950000000000000000e+02,6.387517300000000210e-03
2.960000000000000000e+02,6.384334999999999663e-03
2.970000000000000000e+02,6.381360299999999652e-03
2.980000000000000000e+02,6.378598499999999817e-03
2.990000000000000000e+02,6.376055099999999864e-03
3.000000000000000000e+02,6.373733300000000018e-03
3.010000000000000000e+02,6.371635500000000230e-03
3.020000000000000000e+02,6.369761699999999631e-03
3.030000000000000000e+02,6.368109999999999743e-03
3.040000000000000000e+02,6.366676200000000001e-03
3.050000000000000000e+02,6.365451999999999742e-03
3.060000000000000000e+02,6.364426999999999758e-03
3.070000000000000000e+02,6.363587000000000410e-03
3.080000000000000000e+02,6.362915000000000237e-03
3.090000000000000000e+02,6.362392100000000168e-03
3.100000000000000000e+02,6.361996800000000243e-03
3.110000000000000000e+02,6.361707599999999636e-03
3.120000000000000000e+02,6.361503600000000327e-03
3.130000000000000000e+02,6.361364900000000301e-03
3.140000000000000000e+02,6.361274499999999832e-03
3.150000000000000000e+02,6.361218200000000149e-03
3.160000000000000000e+02,6.361184599999999967e-03
3.170000000000000000e+02,6.361165999999999696e-03
3.180000000000000000e+02,6.361155799999999687e-03
3.190000000000000000e+02,6.361150599999999648e-03
3.200000000000000000e+02,6.361147900000000029e-03
3.210000000000000000e+02,6.361146899999999688e-03
3.220000000000000000e+02,6.361146500000000419e-03
3.230000000000000000e+02,6.361145999999999814e-03
3.240000000000000000e+02,6.361145999999999814e-03
3.250000000000000000e+02,6.361145999999999814e-03
3.260000000000000000e+02,6.361145999999999814e-03
3.270000000000000000e+02,6.361145999999999814e-03
3.280000000000000000e+02,6.361145999999999814e-03
3.290000000000000000e+02,6.361145999999999814e-03
3.300000000000000000e+02,6.361145999999999814e-03
3.310000000000000000e+02,6.361145999999999814e-03
3.320000000000000000e+02,6.361145999999999814e-03
3.330000000000000000e+02,6.361145999999999814e-03
3.340000000000000000e+02,6.361145999999999814e-03
3.350000000000000000e+02,6.361145999999999814e-03
3.360000000000000000e+02,6.361145999999999814e-03
3.370000000000000000e+02,6.361145999999999814e-03
3.380000000000000000e+02,6.361145999999999814e-03
3.390000000000000000e+02,6.361145999999999814e-03
3.400000000000000000e+02,6.361145999999999814e-03
3.410000000000000000e+02,6.361145999999999814e-03
3.420000000000000000e+02,6.361145999999999814e-03
3.430000000000000000e+02,6.361145999999999814e-03
3.440000000000000000e+02,6.361145999999999814e-03
3.450000000000000000e+02,6.361145999999999814e-03
3.460000000000000000e+02,6.361145999999999814e-03
3.470000000000000000e+02,6.361145999999999814e-03
3.480000000000000000e+02,6.361145999999999814e-03
3.490000000000000000e+02,6.361145999999999814e-03
3.500000000000000000e+02,6.361145999999999814e-03
3.510000000000000000e+02,6.361145999999999814e-03
3.520000000000000000e+02,6.361145999999999814e-03
3.530000000000000000e+02,6.361145999999999814e-03
3.540000000000000000e+02,6.361145999999999814e-03
3.550000000000000000e+02,6.361145999999999814e-03
3.560000000000000000e+02,6.361145999999999814e-03
3.570000000000000000e+02,6.361145999999999814e-03
3.580000000000000000e+02,6.361145999999999814e-03
3.590000000000000000e+02,6.361145999999999814e-03
3.600000000000000000e+02,6.361145999999999814e-03
3.610000000000000000e+02,6.361145999999999814e-03
3.620000000000000000e+02,6.361145999999999814e-03
3.630000000000000000e+02,6.361145999999999814e-03
3.640000000000000000e+02,6.361145999999999814e-03
3.650000000000000000e+02,6.361145999999999814e-03
3.660000000000000000e+02,6.361145999999999814e-03
3.670000000000000000e+02,6.361145999999999814e-03
3.680000000000000000e+02,6.361145999999999814e-03
3.690000000000000000e+02,6.361145999999999814e-03
3.700000000000000000e+02,6.361145999999999814e-03
3.710000000000000000e+02,6.361145999999999814e-03
3.720000000000000000e+02,6.361145999999999814e-03
3.730000000000000000e+02,6.361145999999999814e-03
3.740000000000000000e+02,6.361145999999999814e-03
3.750000000000000000e+02,6.361145999999999814e-03
3.760000000000000000e+02,6.361145999999999814e-03
3.770000000000000000e+02,6.361145999999999814e-03
3.780000000000000000e+02,6.361145999999999814e-03
3.790000000000000000e+02,6.361145999999999814e-03
3.800000000000000000e+02,6.361145999999999814e-03
3.810000000000000000e+02,6.361145999999999814e-03
3.820000000000000000e+02,6.361145999999999814e-03
3.830000000000000000e+02,6.361145999999999814e-03
3.840000000000000000e+02,6.361145999999999814e-03
3.850000000000000000e+02,6.361145999999999814e-03
3.860000000000000000e+02,6.361145999999999814e-03
3.870000000000000000e+02,6.361145999999999814e-03
3.880000000000000000e+02,6.361145999999999814e-03
3.890000000000000000e+02,6.361145999999999814e-03
3.900000000000000000e+02,6.361145999999999814e-03
3.910000000000000000e+02,6.361145999999999814e-03
3.920000000000000000e+02,6.361145999999999814e-03
3.930000000000000000e+02,6.361145999999999814e-03
3.940000000000000000e+02,6.361145999999999814e-03
3.950000000000000000e+02,6.361145999999999814e-03
3.960000000000000000e+02,6.361145999999999814e-03
3.970000000000000000e+02,6.361145999999999814e-03
3.980000000000000000e+02,6.361145999999999814e-03
3.990000000000000000e+02,6.361145999999999814e-03
