# Time [s], Thickness [m]
1.000000000000000000e+00,8.000000400000000303e-03
2.000000000000000000e+00,8.000000400000000303e-03
3.000000000000000000e+00,8.000000400000000303e-03
4.000000000000000000e+00,8.000000400000000303e-03
5.000000000000000000e+00,8.000000400000000303e-03
6.000000000000000000e+00,7.999999400000000829e-03
7.000000000000000000e+00,7.999994800000000128e-03
8.000000000000000000e+00,7.999969600000000208e-03
9.000000000000000000e+00,7.999855099999999761e-03
1.000000000000000000e+01,7.999455600000000138e-03
1.100000000000000000e+01,7.998357500000000814e-03
1.200000000000000000e+01,7.995883900000000377e-03
1.300000000000000000e+01,7.991346499999999603e-03
1.400000000000000000e+01,7.984690399999999286e-03
1.500000000000000000e+01,7.976807699999999626e-03
1.600000000000000000e+01,7.968472299999999550e-03
1.700000000000000000e+01,7.960149999999999171e-03
1.800000000000000000e+01,7.952107999999999399e-03
1.900000000000000000e+01,7.943835099999999386e-03
2.000000000000000000e+01,7.935160800000000403e-03
2.100000000000000000e+01,7.921293399999999527e-03
2.200000000000000000e+01,7.913081900000000501e-03
2.300000000000000000e+01,7.904359099999999291e-03
2.400000000000000000e+01,7.894924799999999618e-03
2.500000000000000000e+01,7.885852800000000759e-03
2.600000000000000000e+01,7.876619700000000307e-03
2.700000000000000000e+01,7.867639900000000797e-03
2.800000000000000000e+01,7.858541800000000410e-03
2.900000000000000000e+01,7.849311499999999178e-03
3.000000000000000000e+01,7.839901399999999951e-03
3.100000000000000000e+01,7.830401000000000722e-03
3.200000000000000000e+01,7.820923800000000731e-03
3.300000000000000000e+01,7.811568700000000309e-03
3.400000000000000000e+01,7.802361199999999913e-03
3.500000000000000000e+01,7.793237500000000338e-03
3.600000000000000000e+01,7.784127299999999729e-03
3.700000000000000000e+01,7.774969599999999835e-03
3.800000000000000000e+01,7.765757400000000005e-03
3.900000000000000000e+01,7.756534500000000429e-03
4.000000000000000000e+01,7.747364700000000312e-03
4.100000000000000000e+01,7.738292699999999719e-03
4.200000000000000000e+01,7.729325900000000305e-03
4.300000000000000000e+01,7.720440200000000357e-03
4.400000000000000000e+01,7.711590299999999606e-03
4.500000000000000000e+01,7.702742700000000074e-03
4.600000000000000000e+01,7.693888200000000357e-03
4.700000000000000000e+01,7.685043400000000045e-03
4.800000000000000000e+01,7.676239599999999837e-03
4.900000000000000000e+01,7.667505600000000011e-03
5.000000000000000000e+01,7.658852300000000383e-03
5.100000000000000000e+01,7.650271099999999755e-03
5.200000000000000000e+01,7.641740600000000369e-03
5.300000000000000000e+01,7.633238599999999860e-03
5.400000000000000000e+01,7.624749099999999710e-03
5.500000000000000000e+01,7.616274499999999871e-03
5.600000000000000000e+01,7.607827000000000166e-03
5.700000000000000000e+01,7.599423200000000184e-03
5.800000000000000000e+01,7.591075299999999748e-03
5.900000000000000000e+01,7.582786499999999950e-03
6.000000000000000000e+01,7.574549899999999739e-03
6.100000000000000000e+01,7.566351899999999679e-03
6.200000000000000000e+01,7.558180000000000280e-03
6.300000000000000000e+01,7.549668699999999635e-03
6.400000000000000000e+01,7.541218799999999979e-03
6.500000000000000000e+01,7.532810800000000299e-03
6.600000000000000000e+01,7.524495499999999705e-03
6.700000000000000000e+01,7.516266800000000019e-03
6.800000000000000000e+01,7.508112600000000150e-03
6.900000000000000000e+01,7.500019400000000266e-03
7.000000000000000000e+01,7.491971400000000184e-03
7.100000000000000000e+01,7.483954999999999601e-03
7.200000000000000000e+01,7.475960999999999718e-03
7.300000000000000000e+01,7.467984700000000232e-03
7.400000000000000000e+01,7.460028399999999761e-03
7.500000000000000000e+01,7.452094000000000253e-03
7.600000000000000000e+01,7.444184300000000060e-03
7.700000000000000000e+01,7.436300600000000059e-03
7.800000000000000000e+01,7.428438899999999755e-03
7.900000000000000000e+01,7.420594800000000248e-03
8.000000000000000000e+01,7.412761000000000350e-03
8.100000000000000000e+01,7.404931800000000286e-03
8.200000000000000000e+01,7.397104499999999569e-03
8.300000000000000000e+01,7.389278200000000060e-03
8.400000000000000000e+01,7.381453599999999830e-03
8.500000000000000000e+01,7.373631900000000156e-03
8.600000000000000000e+01,7.365813899999999574e-03
8.700000000000000000e+01,7.357998800000000415e-03
8.800000000000000000e+01,7.350182200000000311e-03
8.900000000000000000e+01,7.342360899999999906e-03
9.000000000000000000e+01,7.334530399999999832e-03
9.100000000000000000e+01,7.326686800000000062e-03
9.200000000000000000e+01,7.318827299999999640e-03
9.300000000000000000e+01,7.310952100000000370e-03
9.400000000000000000e+01,7.303059100000000234e-03
9.500000000000000000e+01,7.295149400000000041e-03
9.600000000000000000e+01,7.287221499999999713e-03
9.700000000000000000e+01,7.279272199999999894e-03
9.800000000000000000e+01,7.271299099999999765e-03
9.900000000000000000e+01,7.263297699999999961e-03
1.000000000000000000e+02,7.255264600000000189e-03
1.010000000000000000e+02,7.247197000000000361e-03
1.020000000000000000e+02,7.239092100000000390e-03
1.030000000000000000e+02,7.230948200000000131e-03
1.040000000000000000e+02,7.222763299999999768e-03
1.050000000000000000e+02,7.214535000000000219e-03
1.060000000000000000e+02,7.206261599999999601e-03
1.070000000000000000e+02,7.197938899999999952e-03
1.080000000000000000e+02,7.189563500000000114e-03
1.090000000000000000e+02,7.181130800000000251e-03
1.100000000000000000e+02,7.172422900000000219e-03
1.110000000000000000e+02,7.163717899999999875e-03
1.120000000000000000e+02,7.154976500000000128e-03
1.130000000000000000e+02,7.146184300000000406e-03
1.140000000000000000e+02,7.137329300000000085e-03
1.150000000000000000e+02,7.128404500000000248e-03
1.160000000000000000e+02,7.119402300000000038e-03
1.170000000000000000e+02,7.110315800000000137e-03
1.180000000000000000e+02,7.101138100000000362e-03
1.190000000000000000e+02,7.091863099999999934e-03
1.200000000000000000e+02,7.082483700000000333e-03
1.210000000000000000e+02,7.072993999999999983e-03
1.220000000000000000e+02,7.063386999999999964e-03
1.230000000000000000e+02,7.053654599999999684e-03
1.240000000000000000e+02,7.043789100000000421e-03
1.250000000000000000e+02,7.033782100000000176e-03
1.260000000000000000e+02,7.023623700000000344e-03
1.270000000000000000e+02,7.013303700000000050e-03
1.280000000000000000e+02,7.002812800000000025e-03
1.290000000000000000e+02,6.992138499999999909e-03
1.300000000000000000e+02,6.981269899999999889e-03
1.310000000000000000e+02,6.970195099999999810e-03
1.320000000000000000e+02,6.958899999999999635e-03
1.330000000000000000e+02,6.947372599999999607e-03
1.340000000000000000e+02,6.935598799999999689e-03
1.350000000000000000e+02,6.923565599999999785e-03
1.360000000000000000e+02,6.911260500000000404e-03
1.370000000000000000e+02,6.898671900000000190e-03
1.380000000000000000e+02,6.885790299999999808e-03
1.390000000000000000e+02,6.872607900000000068e-03
1.400000000000000000e+02,6.859120399999999937e-03
1.410000000000000000e+02,6.845327099999999609e-03
1.420000000000000000e+02,6.831232500000000187e-03
1.430000000000000000e+02,6.816845400000000332e-03
1.440000000000000000e+02,6.802181699999999831e-03
1.450000000000000000e+02,6.787037499999999841e-03
1.460000000000000000e+02,6.771726999999999955e-03
1.470000000000000000e+02,6.756254500000000336e-03
1.480000000000000000e+02,6.740644100000000097e-03
1.490000000000000000e+02,6.724929900000000023e-03
1.500000000000000000e+02,6.709153800000000091e-03
1.510000000000000000e+02,6.693358499999999683e-03
1.520000000000000000e+02,6.677591200000000150e-03
1.530000000000000000e+02,6.661897100000000425e-03
1.540000000000000000e+02,6.646320699999999637e-03
1.550000000000000000e+02,6.630905900000000179e-03
1.560000000000000000e+02,6.615693199999999816e-03
1.570000000000000000e+02,6.600722699999999644e-03
1.580000000000000000e+02,6.586031499999999740e-03
1.590000000000000000e+02,6.571656099999999973e-03
1.600000000000000000e+02,6.557630400000000193e-03
1.610000000000000000e+02,6.543987400000000378e-03
1.620000000000000000e+02,6.530757100000000349e-03
1.630000000000000000e+02,6.517968100000000320e-03
1.640000000000000000e+02,6.505647199999999887e-03
1.650000000000000000e+02,6.493816599999999682e-03
1.660000000000000000e+02,6.482495900000000318e-03
1.670000000000000000e+02,6.471700000000000369e-03
1.680000000000000000e+02,6.461440100000000186e-03
1.690000000000000000e+02,6.451721799999999944e-03
1.700000000000000000e+02,6.442545400000000179e-03
1.710000000000000000e+02,6.433906999999999994e-03
1.720000000000000000e+02,6.425798400000000063e-03
1.730000000000000000e+02,6.418206699999999890e-03
1.740000000000000000e+02,6.411107699999999895e-03
1.750000000000000000e+02,6.404487900000000247e-03
1.760000000000000000e+02,6.398326299999999855e-03
1.770000000000000000e+02,6.392600000000000018e-03
1.780000000000000000e+02,6.387285000000000358e-03
1.790000000000000000e+02,6.382355000000000146e-03
1.800000000000000000e+02,6.377785900000000271e-03
1.810000000000000000e+02,6.373552099999999811e-03
1.820000000000000000e+02,6.369629899999999789e-03
1.830000000000000000e+02,6.365995400000000297e-03
1.840000000000000000e+02,6.362627299999999708e-03
1.850000000000000000e+02,6.359504099999999799e-03
1.860000000000000000e+02,6.356607200000000298e-03
1.870000000000000000e+02,6.353918000000000066e-03
1.880000000000000000e+02,6.351419700000000314e-03
1.890000000000000000e+02,6.349097500000000331e-03
1.900000000000000000e+02,6.346936299999999739e-03
1.910000000000000000e+02,6.344923300000000245e-03
1.920000000000000000e+02,6.343046700000000426e-03
1.930000000000000000e+02,6.341295799999999670e-03
1.940000000000000000e+02,6.339659899999999966e-03
1.950000000000000000e+02,6.338130699999999784e-03
1.960000000000000000e+02,6.336698800000000256e-03
1.970000000000000000e+02,6.335357699999999599e-03
1.980000000000000000e+02,6.334099499999999890e-03
1.990000000000000000e+02,6.332918499999999618e-03
2.000000000000000000e+02,6.331808399999999670e-03
2.010000000000000000e+02,6.330764400000000146e-03
2.020000000000000000e+02,6.329781399999999739e-03
2.030000000000000000e+02,6.328855199999999619e-03
2.040000000000000000e+02,6.327981100000000352e-03
2.050000000000000000e+02,6.327155499999999842e-03
2.060000000000000000e+02,6.326375999999999875e-03
2.070000000000000000e+02,6.325638399999999884e-03
2.080000000000000000e+02,6.324939899999999782e-03
2.090000000000000000e+02,6.324278699999999823e-03
2.100000000000000000e+02,6.323651399999999714e-03
2.110000000000000000e+02,6.323055799999999574e-03
2.120000000000000000e+02,6.322490499999999791e-03
2.130000000000000000e+02,6.321953600000000152e-03
2.140000000000000000e+02,6.321442299999999702e-03
2.150000000000000000e+02,6.320956200000000039e-03
2.160000000000000000e+02,6.320493299999999613e-03
2.170000000000000000e+02,6.320051800000000414e-03
2.180000000000000000e+02,6.319630900000000433e-03
2.190000000000000000e+02,6.319228999999999992e-03
2.200000000000000000e+02,6.318845299999999686e-03
2.210000000000000000e+02,6.318478800000000041e-03
2.220000000000000000e+02,6.318128699999999917e-03
2.230000000000000000e+02,6.317793399999999636e-03
2.240000000000000000e+02,6.317472600000000396e-03
2.250000000000000000e+02,6.317165199999999654e-03
2.260000000000000000e+02,6.316870900000000344e-03
2.270000000000000000e+02,6.316588300000000253e-03
2.280000000000000000e+02,6.316317699999999917e-03
2.290000000000000000e+02,6.316057400000000058e-03
2.300000000000000000e+02,6.315807799999999944e-03
2.310000000000000000e+02,6.315567999999999703e-03
2.320000000000000000e+02,6.315337499999999597e-03
2.330000000000000000e+02,6.315116299999999627e-03
2.340000000000000000e+02,6.314903000000000183e-03
2.350000000000000000e+02,6.314697699999999997e-03
2.360000000000000000e+02,6.314499799999999732e-03
2.370000000000000000e+02,6.314309799999999993e-03
2.380000000000000000e+02,6.314126300000000303e-03
2.390000000000000000e+02,6.313949400000000260e-03
2.400000000000000000e+02,6.313778499999999662e-03
2.410000000000000000e+02,6.313614099999999979e-03
2.420000000000000000e+02,6.313454799999999867e-03
2.430000000000000000e+02,6.313301599999999666e-03
2.440000000000000000e+02,6.313153099999999768e-03
2.450000000000000000e+02,6.313009700000000307e-03
2.460000000000000000e+02,6.312871400000000417e-03
2.470000000000000000e+02,6.312737199999999757e-03
2.480000000000000000e+02,6.312607799999999866e-03
2.490000000000000000e+02,6.312482099999999936e-03
2.500000000000000000e+02,6.312360500000000103e-03
2.510000000000000000e+02,6.312243199999999568e-03
2.520000000000000000e+02,6.312129100000000125e-03
2.530000000000000000e+02,6.312018699999999774e-03
2.540000000000000000e+02,6.311911600000000115e-03
2.550000000000000000e+02,6.311807800000000281e-03
2.560000000000000000e+02,6.311707199999999802e-03
2.570000000000000000e+02,6.311609400000000279e-03
2.580000000000000000e+02,6.311514399999999976e-03
2.590000000000000000e+02,6.311422700000000365e-03
2.600000000000000000e+02,6.311333300000000236e-03
2.610000000000000000e+02,6.311246199999999591e-03
2.620000000000000000e+02,6.311161899999999901e-03
2.630000000000000000e+02,6.311080000000000162e-03
2.640000000000000000e+02,6.311000300000000306e-03
2.650000000000000000e+02,6.310922600000000264e-03
2.660000000000000000e+02,6.310847100000000105e-03
2.670000000000000000e+02,6.310773999999999898e-03
2.680000000000000000e+02,6.310702300000000167e-03
2.690000000000000000e+02,6.310632899999999920e-03
2.700000000000000000e+02,6.310565399999999887e-03
2.710000000000000000e+02,6.310499300000000332e-03
2.720000000000000000e+02,6.310434999999999656e-03
2.730000000000000000e+02,6.310372600000000061e-03
2.740000000000000000e+02,6.310311600000000076e-03
2.750000000000000000e+02,6.310251999999999702e-03
2.760000000000000000e+02,6.310194300000000409e-03
2.770000000000000000e+02,6.310137500000000121e-03
2.780000000000000000e+02,6.310082499999999581e-03
2.790000000000000000e+02,6.310028999999999985e-03
2.800000000000000000e+02,6.309976299999999795e-03
2.810000000000000000e+02,6.309925099999999683e-03
2.820000000000000000e+02,6.309874800000000311e-03
2.830000000000000000e+02,6.309826400000000286e-03
2.840000000000000000e+02,6.309778400000000398e-03
2.850000000000000000e+02,6.309731899999999720e-03
2.860000000000000000e+02,6.309686200000000182e-03
2.870000000000000000e+02,6.309641999999999855e-03
2.880000000000000000e+02,6.309598199999999664e-03
2.890000000000000000e+02,6.309555799999999950e-03
2.900000000000000000e+02,6.309514399999999711e-03
2.910000000000000000e+02,6.309473900000000211e-03
2.920000000000000000e+02,6.309433799999999981e-03
2.930000000000000000e+02,6.309395199999999829e-03
2.940000000000000000e+02,6.309356999999999813e-03
2.950000000000000000e+02,6.309319800000000138e-03
2.960000000000000000e+02,6.309283399999999868e-03
2.970000000000000000e+02,6.309247599999999803e-03
2.980000000000000000e+02,6.309212699999999611e-03
2.990000000000000000e+02,6.309178700000000160e-03
3.000000000000000000e+02,6.309145099999999978e-03
3.010000000000000000e+02,6.309112100000000001e-03
3.020000000000000000e+02,6.309079900000000296e-03
3.030000000000000000e+02,6.309048700000000065e-03
3.040000000000000000e+02,6.309017499999999834e-03
3.050000000000000000e+02,6.308987299999999944e-03
3.060000000000000000e+02,6.308957900000000327e-03
3.070000000000000000e+02,6.308928600000000310e-03
3.080000000000000000e+02,6.308900200000000166e-03
3.090000000000000000e+02,6.308872299999999760e-03
3.100000000000000000e+02,6.308844800000000357e-03
3.110000000000000000e+02,6.308817799999999823e-03
3.120000000000000000e+02,6.308791200000000293e-03
3.130000000000000000e+02,6.308765600000000237e-03
3.140000000000000000e+02,6.308740000000000181e-03
3.150000000000000000e+02,6.308715299999999998e-03
3.160000000000000000e+02,6.308690599999999815e-03
3.170000000000000000e+02,6.308666400000000236e-03
3.180000000000000000e+02,6.308643099999999664e-03
3.190000000000000000e+02,6.308619900000000426e-03
3.200000000000000000e+02,6.308596999999999989e-03
3.210000000000000000e+02,6.308574699999999758e-03
3.220000000000000000e+02,6.308552799999999662e-03
3.230000000000000000e+02,6.308530899999999567e-03
3.240000000000000000e+02,6.308509999999999812e-03
3.250000000000000000e+02,6.308488999999999590e-03
3.260000000000000000e+02,6.308468499999999972e-03
3.270000000000000000e+02,6.308448000000000354e-03
3.280000000000000000e+02,6.308428500000000209e-03
3.290000000000000000e+02,6.308408899999999597e-03
3.300000000000000000e+02,6.308389799999999589e-03
3.310000000000000000e+02,6.308370699999999581e-03
3.320000000000000000e+02,6.308352599999999914e-03
3.330000000000000000e+02,6.308334399999999779e-03
3.340000000000000000e+02,6.308316300000000112e-03
3.350000000000000000e+02,6.308298599999999715e-03
3.360000000000000000e+02,6.308281300000000320e-03
3.370000000000000000e+02,6.308264099999999659e-03
3.380000000000000000e+02,6.308247300000000002e-03
3.390000000000000000e+02,6.308231000000000081e-03
3.400000000000000000e+02,6.308214700000000161e-03
3.410000000000000000e+02,6.308198400000000240e-03
3.420000000000000000e+02,6.308182600000000056e-03
3.430000000000000000e+02,6.308167200000000009e-03
3.440000000000000000e+02,6.308151900000000430e-03
3.450000000000000000e+02,6.308137000000000119e-03
3.460000000000000000e+02,6.308122099999999809e-03
3.470000000000000000e+02,6.308107200000000366e-03
3.480000000000000000e+02,6.308092700000000191e-03
3.490000000000000000e+02,6.308078800000000222e-03
3.500000000000000000e+02,6.308064799999999785e-03
3.510000000000000000e+02,6.308050800000000215e-03
3.520000000000000000e+02,6.308037300000000382e-03
3.530000000000000000e+02,6.308023799999999681e-03
3.540000000000000000e+02,6.308010799999999585e-03
3.550000000000000000e+02,6.307997699999999888e-03
3.560000000000000000e+02,6.307985200000000396e-03
3.570000000000000000e+02,6.307972599999999569e-03
3.580000000000000000e+02,6.307959999999999609e-03
3.590000000000000000e+02,6.307947399999999649e-03
3.600000000000000000e+02,6.307935300000000294e-03
3.610000000000000000e+02,6.307923699999999807e-03
3.620000000000000000e+02,6.307911599999999584e-03
3.630000000000000000e+02,6.307899999999999965e-03
3.640000000000000000e+02,6.307888799999999616e-03
3.650000000000000000e+02,6.307877600000000133e-03
3.660000000000000000e+02,6.307866399999999783e-03
3.670000000000000000e+02,6.307855200000000301e-03
3.680000000000000000e+02,6.307844499999999688e-03
3.690000000000000000e+02,6.307833799999999942e-03
3.700000000000000000e+02,6.307823100000000197e-03
3.710000000000000000e+02,6.307812399999999584e-03
3.720000000000000000e+02,6.307802199999999575e-03
3.730000000000000000e+02,6.307791899999999966e-03
3.740000000000000000e+02,6.307782100000000093e-03
3.750000000000000000e+02,6.307772399999999821e-03
3.760000000000000000e+02,6.307762599999999949e-03
3.770000000000000000e+02,6.307752800000000076e-03
3.780000000000000000e+02,6.307743000000000204e-03
3.790000000000000000e+02,6.307733700000000068e-03
3.800000000000000000e+02,6.307724399999999933e-03
3.810000000000000000e+02,6.307715099999999797e-03
3.820000000000000000e+02,6.307706199999999798e-03
3.830000000000000000e+02,6.307696899999999662e-03
3.840000000000000000e+02,6.307688100000000131e-03
3.850000000000000000e+02,6.307679699999999869e-03
3.860000000000000000e+02,6.307670799999999869e-03
3.870000000000000000e+02,6.307662500000000075e-03
3.880000000000000000e+02,6.307654099999999812e-03
3.890000000000000000e+02,6.307645700000000417e-03
3.900000000000000000e+02,6.307637300000000155e-03
3.910000000000000000e+02,6.307628899999999893e-03
3.920000000000000000e+02,6.307621000000000235e-03
3.930000000000000000e+02,6.307613099999999709e-03
3.940000000000000000e+02,6.307605200000000051e-03
3.950000000000000000e+02,6.307597300000000393e-03
3.960000000000000000e+02,6.307589800000000003e-03
3.970000000000000000e+02,6.307581900000000345e-03
3.980000000000000000e+02,6.307574500000000424e-03
3.990000000000000000e+02,6.307567000000000035e-03
