# Time [s], Convective Heat Transfer Coefficient [W/m2K]
1.000000000000000000e+00,0.000000000000000000e+00
2.000000000000000000e+00,0.000000000000000000e+00
3.000000000000000000e+00,0.000000000000000000e+00
4.000000000000000000e+00,0.000000000000000000e+00
5.000000000000000000e+00,0.000000000000000000e+00
6.000000000000000000e+00,2.412849599104084641e-02
7.000000000000000000e+00,3.574028725257893252e-02
8.000000000000000000e+00,5.599727877995352293e-02
9.000000000000000000e+00,8.058217972426165443e-02
1.000000000000000000e+01,1.107678967930439268e-01
1.100000000000000000e+01,1.468630129885829250e-01
1.200000000000000000e+01,1.881292679688931768e-01
1.300000000000000000e+01,2.342451547135219747e-01
1.400000000000000000e+01,2.846421820581442330e-01
1.500000000000000000e+01,3.387197160234858839e-01
1.600000000000000000e+01,3.959182205713598357e-01
1.700000000000000000e+01,4.556788850351944364e-01
1.800000000000000000e+01,5.174959481945340389e-01
1.900000000000000000e+01,5.809350919102186372e-01
2.000000000000000000e+01,6.456137206251806315e-01
2.100000000000000000e+01,7.111836093200835096e-01
2.200000000000000000e+01,7.773659278421720664e-01
2.300000000000000000e+01,8.439159058191260110e-01
2.400000000000000000e+01,9.106200612286440288e-01
2.500000000000000000e+01,9.773015333144067229e-01
2.600000000000000000e+01,1.043819330792864486e+00
2.700000000000000000e+01,1.110040983160132777e+00
2.800000000000000000e+01,1.175869202538412983e+00
2.900000000000000000e+01,1.241213826432975731e+00
3.000000000000000000e+01,1.306005543111506961e+00
3.100000000000000000e+01,1.370189547156943188e+00
3.200000000000000000e+01,1.433720683083508751e+00
3.300000000000000000e+01,1.496557072334892213e+00
3.400000000000000000e+01,1.558670223637304897e+00
3.500000000000000000e+01,1.620041954338962142e+00
3.600000000000000000e+01,1.680653887019146531e+00
3.700000000000000000e+01,1.740492891821156185e+00
3.800000000000000000e+01,1.799554032910783086e+00
3.900000000000000000e+01,1.857831449860453565e+00
4.000000000000000000e+01,1.915322861018883716e+00
4.100000000000000000e+01,1.972034049369090436e+00
4.200000000000000000e+01,2.027964190226238195e+00
4.300000000000000000e+01,2.083121322918195517e+00
4.400000000000000000e+01,2.137510169814988537e+00
4.500000000000000000e+01,2.191140975315121864e+00
4.600000000000000000e+01,2.244022425598547699e+00
4.700000000000000000e+01,2.296160000731305662e+00
4.800000000000000000e+01,2.347568580466660393e+00
4.900000000000000000e+01,2.398257080525164842e+00
5.000000000000000000e+01,2.448238459519719523e+00
5.100000000000000000e+01,2.497525213573229763e+00
5.200000000000000000e+01,2.546124442718194825e+00
5.300000000000000000e+01,2.594051406646598057e+00
5.400000000000000000e+01,2.641318906333960825e+00
5.500000000000000000e+01,2.687936135765351509e+00
5.600000000000000000e+01,2.733916858780699233e+00
5.700000000000000000e+01,2.779272975920519251e+00
5.800000000000000000e+01,2.824015468546482222e+00
5.900000000000000000e+01,2.868158307776156324e+00
6.000000000000000000e+01,2.911712007122421841e+00
6.100000000000000000e+01,2.954687278155308405e+00
6.200000000000000000e+01,2.997095990703567914e+00
6.300000000000000000e+01,3.038947288835676552e+00
6.400000000000000000e+01,3.080254447523232297e+00
6.500000000000000000e+01,3.121028647332075412e+00
6.600000000000000000e+01,3.161279319052355152e+00
6.700000000000000000e+01,3.201016724875326958e+00
6.800000000000000000e+01,3.240250601095088889e+00
6.900000000000000000e+01,3.278992151693775892e+00
7.000000000000000000e+01,3.317249493103317182e+00
7.100000000000000000e+01,3.355034528934681237e+00
7.200000000000000000e+01,3.392355495641484531e+00
7.300000000000000000e+01,3.429220820351121635e+00
7.400000000000000000e+01,3.465639473234607859e+00
7.500000000000000000e+01,3.501620514200395995e+00
7.600000000000000000e+01,3.537172414743943172e+00
7.700000000000000000e+01,3.572303010963180814e+00
7.800000000000000000e+01,3.607020902220983150e+00
7.900000000000000000e+01,3.641333956089292556e+00
8.000000000000000000e+01,3.675249626009459814e+00
8.100000000000000000e+01,3.708775575401274782e+00
8.200000000000000000e+01,3.741918898539679628e+00
8.300000000000000000e+01,3.774687394828342590e+00
8.400000000000000000e+01,3.807087321594246898e+00
8.500000000000000000e+01,3.839125899133415398e+00
8.600000000000000000e+01,3.870809820046519079e+00
8.700000000000000000e+01,3.902145594110229876e+00
8.800000000000000000e+01,3.933139860756419637e+00
8.900000000000000000e+01,3.963799002405837602e+00
9.000000000000000000e+01,3.994128499871249183e+00
9.100000000000000000e+01,4.024134730901486101e+00
9.200000000000000000e+01,4.053823049303293402e+00
9.300000000000000000e+01,4.083199611026862463e+00
9.400000000000000000e+01,4.112269238236506474e+00
9.500000000000000000e+01,4.141038103600773290e+00
9.600000000000000000e+01,4.169511279249647373e+00
9.700000000000000000e+01,4.197693539652422423e+00
9.800000000000000000e+01,4.225590428355041617e+00
9.900000000000000000e+01,4.253206459302202980e+00
1.000000000000000000e+02,4.280546458969148205e+00
1.010000000000000000e+02,4.307615229921192501e+00
1.020000000000000000e+02,4.334417177323884651e+00
1.030000000000000000e+02,4.360957193831975331e+00
1.040000000000000000e+02,4.387240507857784522e+00
1.050000000000000000e+02,4.413270800041376951e+00
1.060000000000000000e+02,4.439051361838229681e+00
1.070000000000000000e+02,4.464586702484177216e+00
1.080000000000000000e+02,4.489880679519384188e+00
1.090000000000000000e+02,4.514937051368001164e+00
1.100000000000000000e+02,4.539759993443739816e+00
1.110000000000000000e+02,4.564353176277649915e+00
1.120000000000000000e+02,4.588720236824576304e+00
1.130000000000000000e+02,4.612865220013495637e+00
1.140000000000000000e+02,4.636791359667635781e+00
1.150000000000000000e+02,4.660502952061637671e+00
1.160000000000000000e+02,4.684003595121170704e+00
1.170000000000000000e+02,4.707294479760730788e+00
1.180000000000000000e+02,4.730379529194212118e+00
1.190000000000000000e+02,4.753262002718558143e+00
1.200000000000000000e+02,4.775944835308796321e+00
1.210000000000000000e+02,4.798431466241864563e+00
1.220000000000000000e+02,4.820724707591518055e+00
1.230000000000000000e+02,4.842827920941841668e+00
1.240000000000000000e+02,4.864744003378032033e+00
1.250000000000000000e+02,4.886475996600517568e+00
1.260000000000000000e+02,4.908026546110038524e+00
1.270000000000000000e+02,4.929396714124286483e+00
1.280000000000000000e+02,4.950589868333771015e+00
1.290000000000000000e+02,4.971608553108338491e+00
1.300000000000000000e+02,4.992455651325777843e+00
1.310000000000000000e+02,5.013133438948724319e+00
1.320000000000000000e+02,5.033644718736669965e+00
1.330000000000000000e+02,5.053991745063494356e+00
1.340000000000000000e+02,5.074177109764639759e+00
1.350000000000000000e+02,5.094203864306277474e+00
1.360000000000000000e+02,5.114072279555477607e+00
1.370000000000000000e+02,5.133785193734128782e+00
1.380000000000000000e+02,5.153344476536465102e+00
1.390000000000000000e+02,5.172752378190484279e+00
1.400000000000000000e+02,5.192011602270047099e+00
1.410000000000000000e+02,5.211123392572337032e+00
1.420000000000000000e+02,5.230090838685606869e+00
1.430000000000000000e+02,5.248915155822829526e+00
1.440000000000000000e+02,5.267599337570918472e+00
1.450000000000000000e+02,5.286144532720230771e+00
1.460000000000000000e+02,5.304551316054259225e+00
1.470000000000000000e+02,5.322822393541048136e+00
1.480000000000000000e+02,5.340959205918210273e+00
1.490000000000000000e+02,5.358964050328915540e+00
1.500000000000000000e+02,5.376838472807977887e+00
1.510000000000000000e+02,5.394584137945709124e+00
1.520000000000000000e+02,5.412203104867547410e+00
1.530000000000000000e+02,5.429696623483931006e+00
1.540000000000000000e+02,5.447066975339891926e+00
1.550000000000000000e+02,5.464316186589377011e+00
1.560000000000000000e+02,5.481444088253439872e+00
1.570000000000000000e+02,5.498452333632225297e+00
1.580000000000000000e+02,5.515343110857654274e+00
1.590000000000000000e+02,5.532117023130501465e+00
1.600000000000000000e+02,5.548776178138774107e+00
1.610000000000000000e+02,5.565322102414519634e+00
1.620000000000000000e+02,5.581755570827893642e+00
1.630000000000000000e+02,5.598078570997189196e+00
1.640000000000000000e+02,5.614292225700971528e+00
1.650000000000000000e+02,5.630398147163690581e+00
1.660000000000000000e+02,5.646398386553534543e+00
1.670000000000000000e+02,5.662292610495179623e+00
1.680000000000000000e+02,5.678082597169670898e+00
1.690000000000000000e+02,5.693769542066255518e+00
1.700000000000000000e+02,5.709354612754272473e+00
1.710000000000000000e+02,5.724838985449649087e+00
1.720000000000000000e+02,5.740224058033708054e+00
1.730000000000000000e+02,5.755510666833468569e+00
1.740000000000000000e+02,5.770700120938315081e+00
1.750000000000000000e+02,5.785793490535843908e+00
1.760000000000000000e+02,5.800792100246157545e+00
1.770000000000000000e+02,5.815696622823379514e+00
1.780000000000000000e+02,5.830508817563510249e+00
1.790000000000000000e+02,5.845229173206177187e+00
1.800000000000000000e+02,5.859858848906193352e+00
1.810000000000000000e+02,5.874398504292552836e+00
1.820000000000000000e+02,5.888849797074135139e+00
1.830000000000000000e+02,5.903212839422505631e+00
1.840000000000000000e+02,5.917489210668257726e+00
1.850000000000000000e+02,5.931679792884605007e+00
1.860000000000000000e+02,5.945785350503586919e+00
1.870000000000000000e+02,5.959806697928365260e+00
1.880000000000000000e+02,5.973745124855359023e+00
1.890000000000000000e+02,5.987601111932662867e+00
1.900000000000000000e+02,6.001375649516185184e+00
1.910000000000000000e+02,6.015069740770939255e+00
1.920000000000000000e+02,6.028684304844483144e+00
1.930000000000000000e+02,6.042219794069091598e+00
1.940000000000000000e+02,6.055677864321326709e+00
1.950000000000000000e+02,6.069058170425245535e+00
1.960000000000000000e+02,6.082362396966733975e+00
1.970000000000000000e+02,6.095590622619180721e+00
1.980000000000000000e+02,6.108744209491480781e+00
1.990000000000000000e+02,6.121823526736001497e+00
2.000000000000000000e+02,6.134829651292961650e+00
2.010000000000000000e+02,6.147763114117276828e+00
2.020000000000000000e+02,6.160624497689578760e+00
2.030000000000000000e+02,6.173414864991749518e+00
2.040000000000000000e+02,6.186134679040838691e+00
2.050000000000000000e+02,6.198784759625598717e+00
2.060000000000000000e+02,6.211365790642132900e+00
2.070000000000000000e+02,6.223878111353537079e+00
2.080000000000000000e+02,6.236322867071387499e+00
2.090000000000000000e+02,6.248700524192456029e+00
2.100000000000000000e+02,6.261011570475078614e+00
2.110000000000000000e+02,6.273256722862541324e+00
2.120000000000000000e+02,6.285436804548316658e+00
2.130000000000000000e+02,6.297552093623801639e+00
2.140000000000000000e+02,6.309603450897511401e+00
2.150000000000000000e+02,6.321591517955816641e+00
2.160000000000000000e+02,6.333516925636149431e+00
2.170000000000000000e+02,6.345379829100605384e+00
2.180000000000000000e+02,6.357181307044211138e+00
2.190000000000000000e+02,6.368921526570362701e+00
2.200000000000000000e+02,6.380601283881962793e+00
2.210000000000000000e+02,6.392221190679307163e+00
2.220000000000000000e+02,6.403781563371136798e+00
2.230000000000000000e+02,6.415283338588002593e+00
2.240000000000000000e+02,6.426726361639307328e+00
2.250000000000000000e+02,6.438111552253935166e+00
2.260000000000000000e+02,6.449439731829920142e+00
2.270000000000000000e+02,6.460711148469355791e+00
2.280000000000000000e+02,6.471926045920755044e+00
2.290000000000000000e+02,6.483085220683046046e+00
2.300000000000000000e+02,6.494189179879856333e+00
2.310000000000000000e+02,6.505238422854035640e+00
2.320000000000000000e+02,6.516233165643892988e+00
2.330000000000000000e+02,6.527173895286375149e+00
2.340000000000000000e+02,6.538061365309007833e+00
2.350000000000000000e+02,6.548895772523446013e+00
2.360000000000000000e+02,6.559677582369094040e+00
2.370000000000000000e+02,6.570407524529803922e+00
2.380000000000000000e+02,6.581085777837165196e+00
2.390000000000000000e+02,6.591712787428240183e+00
2.400000000000000000e+02,6.602288454840749665e+00
2.410000000000000000e+02,6.612814288228326731e+00
2.420000000000000000e+02,6.623290174780230188e+00
2.430000000000000000e+02,6.633716534379646035e+00
2.440000000000000000e+02,6.644093515726573251e+00
2.450000000000000000e+02,6.654422057990997175e+00
2.460000000000000000e+02,6.664702297382091523e+00
2.470000000000000000e+02,6.674934630456123230e+00
2.480000000000000000e+02,6.685119186283118076e+00
2.490000000000000000e+02,6.695256875080000114e+00
2.500000000000000000e+02,6.705347553972054619e+00
2.510000000000000000e+02,6.715391600266707783e+00
2.520000000000000000e+02,6.725389644892313612e+00
2.530000000000000000e+02,6.735342310632183249e+00
2.540000000000000000e+02,6.745249183150230365e+00
2.550000000000000000e+02,6.755111648035180494e+00
2.560000000000000000e+02,6.764929283592573839e+00
2.570000000000000000e+02,6.774702437530507382e+00
2.580000000000000000e+02,6.784431961562754410e+00
2.590000000000000000e+02,6.794117429071028447e+00
2.600000000000000000e+02,6.803759934932144482e+00
2.610000000000000000e+02,6.813359300219619108e+00
2.620000000000000000e+02,6.822916353258313471e+00
2.630000000000000000e+02,6.832430658737301599e+00
2.640000000000000000e+02,6.841903536050400803e+00
2.650000000000000000e+02,6.851334543811642419e+00
2.660000000000000000e+02,6.860724239696993187e+00
2.670000000000000000e+02,6.870073174731690990e+00
2.680000000000000000e+02,6.879381398717059781e+00
2.690000000000000000e+02,6.888648960372570684e+00
2.700000000000000000e+02,6.897876153369338681e+00
2.710000000000000000e+02,6.907063758439248247e+00
2.720000000000000000e+02,6.916211568619374361e+00
2.730000000000000000e+02,6.925320354915928789e+00
2.740000000000000000e+02,6.934390149412450910e+00
2.750000000000000000e+02,6.943421226156546666e+00
2.760000000000000000e+02,6.952413613666232450e+00
2.770000000000000000e+02,6.961367822771004299e+00
2.780000000000000000e+02,6.970284358560659754e+00
2.790000000000000000e+02,6.979162999507490639e+00
2.800000000000000000e+02,6.988004484719589016e+00
2.810000000000000000e+02,6.996808828021134907e+00
2.820000000000000000e+02,7.005576519662457535e+00
2.830000000000000000e+02,7.014307568687555339e+00
2.840000000000000000e+02,7.023002458261029091e+00
2.850000000000000000e+02,7.031661192819110617e+00
2.860000000000000000e+02,7.040284012474527842e+00
2.870000000000000000e+02,7.048870918946070319e+00
2.880000000000000000e+02,7.057422618562887884e+00
2.890000000000000000e+02,7.065939341468157053e+00
2.900000000000000000e+02,7.074420847367782983e+00
2.910000000000000000e+02,7.082868064534852515e+00
2.920000000000000000e+02,7.091280980842200599e+00
2.930000000000000000e+02,7.099659816104575860e+00
2.940000000000000000e+02,7.108004787656936330e+00
2.950000000000000000e+02,7.116315879239743403e+00
2.960000000000000000e+02,7.124593304952210993e+00
2.970000000000000000e+02,7.132837736667910100e+00
2.980000000000000000e+02,7.141048462348164705e+00
2.990000000000000000e+02,7.149227066374203687e+00
3.000000000000000000e+02,7.157372147681168251e+00
3.010000000000000000e+02,7.165485737395542287e+00
3.020000000000000000e+02,7.173566890716720934e+00
3.030000000000000000e+02,7.181616032774520875e+00
3.040000000000000000e+02,7.189633584522200138e+00
3.050000000000000000e+02,7.197619058964535910e+00
3.060000000000000000e+02,7.205573325812064667e+00
3.070000000000000000e+02,7.213496346887786181e+00
3.080000000000000000e+02,7.221388532943582739e+00
3.090000000000000000e+02,7.229249618838781366e+00
3.100000000000000000e+02,7.237080235389001359e+00
3.110000000000000000e+02,7.244880561574763789e+00
3.120000000000000000e+02,7.252650551957574798e+00
3.130000000000000000e+02,7.260390827357040777e+00
3.140000000000000000e+02,7.268100673389924715e+00
3.150000000000000000e+02,7.275781371559896016e+00
3.160000000000000000e+02,7.283431985584149615e+00
3.170000000000000000e+02,7.291053568547553709e+00
3.180000000000000000e+02,7.298646065689103679e+00
3.190000000000000000e+02,7.306209641681287614e+00
3.200000000000000000e+02,7.313744240680612130e+00
3.210000000000000000e+02,7.321250680558857304e+00
3.220000000000000000e+02,7.328728246561661663e+00
3.230000000000000000e+02,7.336177316969711981e+00
3.240000000000000000e+02,7.343598917883193522e+00
3.250000000000000000e+02,7.350992117173436924e+00
3.260000000000000000e+02,7.358357503264720378e+00
3.270000000000000000e+02,7.365695659580707044e+00
3.280000000000000000e+02,7.373006087934022013e+00
3.290000000000000000e+02,7.380289583266802289e+00
3.300000000000000000e+02,7.387545432542142798e+00
3.310000000000000000e+02,7.394774212453119056e+00
3.320000000000000000e+02,7.401976708561192275e+00
3.330000000000000000e+02,7.409152420609107281e+00
3.340000000000000000e+02,7.416301277596154762e+00
3.350000000000000000e+02,7.423424270900492949e+00
3.360000000000000000e+02,7.430520475891125187e+00
3.370000000000000000e+02,7.437590879238950237e+00
3.380000000000000000e+02,7.444635615007673124e+00
3.390000000000000000e+02,7.451654605177701285e+00
3.400000000000000000e+02,7.458647772059179282e+00
3.410000000000000000e+02,7.465615248310927043e+00
3.420000000000000000e+02,7.472557374980789646e+00
3.430000000000000000e+02,7.479474699583676056e+00
3.440000000000000000e+02,7.486366929887376287e+00
3.450000000000000000e+02,7.493233984045472695e+00
3.460000000000000000e+02,7.500076612970753231e+00
3.470000000000000000e+02,7.506894315518615635e+00
3.480000000000000000e+02,7.513687423332731541e+00
3.490000000000000000e+02,7.520456058443596881e+00
3.500000000000000000e+02,7.527201168188829783e+00
3.510000000000000000e+02,7.533921630535173719e+00
3.520000000000000000e+02,7.540618389915133335e+00
3.530000000000000000e+02,7.547290739777531066e+00
3.540000000000000000e+02,7.553939619487249679e+00
3.550000000000000000e+02,7.560565347223474397e+00
3.560000000000000000e+02,7.567167216580434008e+00
3.570000000000000000e+02,7.573745750292040668e+00
3.580000000000000000e+02,7.580301059801445085e+00
3.590000000000000000e+02,7.586833052193689753e+00
3.600000000000000000e+02,7.593342650083306111e+00
3.610000000000000000e+02,7.599828945483407594e+00
3.620000000000000000e+02,7.606292655030351568e+00
3.630000000000000000e+02,7.612733682330206086e+00
3.640000000000000000e+02,7.619152133080804745e+00
3.650000000000000000e+02,7.625548313371371734e+00
3.660000000000000000e+02,7.631922326063055984e+00
3.670000000000000000e+02,7.638273871849395213e+00
3.680000000000000000e+02,7.644603654747852417e+00
3.690000000000000000e+02,7.650911174053955044e+00
3.700000000000000000e+02,7.657197130058963630e+00
3.710000000000000000e+02,7.663461620297757015e+00
3.720000000000000000e+02,7.669704144481534591e+00
3.730000000000000000e+02,7.675925198761322399e+00
3.740000000000000000e+02,7.682125275883564086e+00
3.750000000000000000e+02,7.688303677009285408e+00
3.760000000000000000e+02,7.694461289361013812e+00
3.770000000000000000e+02,7.700597415060026485e+00
3.780000000000000000e+02,7.706712740129693984e+00
3.790000000000000000e+02,7.712807552499521435e+00
3.800000000000000000e+02,7.718881155747267186e+00
3.810000000000000000e+02,7.724934426955236688e+00
3.820000000000000000e+02,7.730966670674896513e+00
3.830000000000000000e+02,7.736979151147942879e+00
3.840000000000000000e+02,7.742970976837461272e+00
3.850000000000000000e+02,7.748942626195751693e+00
3.860000000000000000e+02,7.754893990602259812e+00
3.870000000000000000e+02,7.760825350637111875e+00
3.880000000000000000e+02,7.766736984997742788e+00
3.890000000000000000e+02,7.772628589230309082e+00
3.900000000000000000e+02,7.778500440970982588e+00
3.910000000000000000e+02,7.784352429653192296e+00
3.920000000000000000e+02,7.790185216774079713e+00
3.930000000000000000e+02,7.795998496695378144e+00
3.940000000000000000e+02,7.801792157757589052e+00
3.950000000000000000e+02,7.807566856934929689e+00
3.960000000000000000e+02,7.813322096658491311e+00
3.970000000000000000e+02,7.819058339476440800e+00
3.980000000000000000e+02,7.824775471499568091e+00
