# Time [s], Convective Heat Transfer Coefficient [W/m2K]
1.000000000000000000e+00,0.000000000000000000e+00
2.000000000000000000e+00,0.000000000000000000e+00
3.000000000000000000e+00,0.000000000000000000e+00
4.000000000000000000e+00,0.000000000000000000e+00
5.000000000000000000e+00,2.762023300960968902e-02
6.000000000000000000e+00,4.924209937913938406e-02
7.000000000000000000e+00,7.985453566186268004e-02
8.000000000000000000e+00,1.203199049341449056e-01
9.000000000000000000e+00,1.720413817863051531e-01
1.000000000000000000e+01,2.349894702389331846e-01
1.100000000000000000e+01,3.088495593719868815e-01
1.200000000000000000e+01,3.928703173004871596e-01
1.300000000000000000e+01,4.859493221330672963e-01
1.400000000000000000e+01,5.868884279354694700e-01
1.500000000000000000e+01,6.944774372644376692e-01
1.600000000000000000e+01,8.075505127340258937e-01
1.700000000000000000e+01,9.250326516037841174e-01
1.800000000000000000e+01,1.045972246896133218e+00
1.900000000000000000e+01,1.169525990539914906e+00
2.000000000000000000e+01,1.294968656902838244e+00
2.100000000000000000e+01,1.421679497331308273e+00
2.200000000000000000e+01,1.549132297063517516e+00
2.300000000000000000e+01,1.676879892469839595e+00
2.400000000000000000e+01,1.804542660272228094e+00
2.500000000000000000e+01,1.931802531285149227e+00
2.600000000000000000e+01,2.058402506458484993e+00
2.700000000000000000e+01,2.184118182086177029e+00
2.800000000000000000e+01,2.308768145925337301e+00
2.900000000000000000e+01,2.432208586276256135e+00
3.000000000000000000e+01,2.554317863180535664e+00
3.100000000000000000e+01,2.675003213830662752e+00
3.200000000000000000e+01,2.794190303517566587e+00
3.300000000000000000e+01,2.911820943625311298e+00
3.400000000000000000e+01,3.027854749206391194e+00
3.500000000000000000e+01,3.142260959716358659e+00
3.600000000000000000e+01,3.255022919356662214e+00
3.700000000000000000e+01,3.366124025601367364e+00
3.800000000000000000e+01,3.481517616133559034e+00
3.900000000000000000e+01,3.591325928667472134e+00
4.000000000000000000e+01,3.698504930022346482e+00
4.100000000000000000e+01,3.803684149681072046e+00
4.200000000000000000e+01,3.906981150700890471e+00
4.300000000000000000e+01,4.008486852523899024e+00
4.400000000000000000e+01,4.108260887910147652e+00
4.500000000000000000e+01,4.206343300785496453e+00
4.600000000000000000e+01,4.302772575492104679e+00
4.700000000000000000e+01,4.397583435668567020e+00
4.800000000000000000e+01,4.490806621569015000e+00
4.900000000000000000e+01,4.582471048336702601e+00
5.000000000000000000e+01,4.672603253654522781e+00
5.100000000000000000e+01,4.761230506063363066e+00
5.200000000000000000e+01,4.848379189313423154e+00
5.300000000000000000e+01,4.934071471646735318e+00
5.400000000000000000e+01,5.018331211461726227e+00
5.500000000000000000e+01,5.101184283619547344e+00
5.600000000000000000e+01,5.182652931714632594e+00
5.700000000000000000e+01,5.262761132959395738e+00
5.800000000000000000e+01,5.341531768746554221e+00
5.900000000000000000e+01,5.418989511615773580e+00
6.000000000000000000e+01,5.495157197187417353e+00
6.100000000000000000e+01,5.570057656468055285e+00
6.200000000000000000e+01,5.643717989412740721e+00
6.300000000000000000e+01,5.716162130535638930e+00
6.400000000000000000e+01,5.787415424210970549e+00
6.500000000000000000e+01,5.857501248403483629e+00
6.600000000000000000e+01,5.926447547888091805e+00
6.700000000000000000e+01,5.994276817966250448e+00
6.800000000000000000e+01,6.061013541319903553e+00
6.900000000000000000e+01,6.126683528237334642e+00
7.000000000000000000e+01,6.191312522498859217e+00
7.100000000000000000e+01,6.254925102825728445e+00
7.200000000000000000e+01,6.317542750416041741e+00
7.300000000000000000e+01,6.379189562872782382e+00
7.400000000000000000e+01,6.439889730226145304e+00
7.500000000000000000e+01,6.499666958080291046e+00
7.600000000000000000e+01,6.558540499340599794e+00
7.700000000000000000e+01,6.616533929997022057e+00
7.800000000000000000e+01,6.673665386248388565e+00
7.900000000000000000e+01,6.729955508359983796e+00
8.000000000000000000e+01,6.785425703161403810e+00
8.100000000000000000e+01,6.840092825077720207e+00
8.200000000000000000e+01,6.893976425652762252e+00
8.300000000000000000e+01,6.947093450012664206e+00
8.400000000000000000e+01,6.999461297833168949e+00
8.500000000000000000e+01,7.051097788268364752e+00
8.600000000000000000e+01,7.102017880410782524e+00
8.700000000000000000e+01,7.152239595294529018e+00
8.800000000000000000e+01,7.201775905700053215e+00
8.900000000000000000e+01,7.250643762049178598e+00
9.000000000000000000e+01,7.298856358451589088e+00
9.100000000000000000e+01,7.346429017652847726e+00
9.200000000000000000e+01,7.393374773661745891e+00
9.300000000000000000e+01,7.439706208586193803e+00
9.400000000000000000e+01,7.485438406340608530e+00
9.500000000000000000e+01,7.530581579825554428e+00
9.600000000000000000e+01,7.575150132462892039e+00
9.700000000000000000e+01,7.619153947921982528e+00
9.800000000000000000e+01,7.662605826916084162e+00
9.900000000000000000e+01,7.705515214176933192e+00
1.000000000000000000e+02,7.747893064861648860e+00
1.010000000000000000e+02,7.789750992952739317e+00
1.020000000000000000e+02,7.831096657769418101e+00
1.030000000000000000e+02,7.871941905733830680e+00
1.040000000000000000e+02,7.912294517477795885e+00
1.050000000000000000e+02,7.952163783047362600e+00
1.060000000000000000e+02,7.991560061995382824e+00
1.070000000000000000e+02,8.030489469675448078e+00
1.080000000000000000e+02,8.068961094033609172e+00
1.090000000000000000e+02,8.106985253798995927e+00
1.100000000000000000e+02,8.144567797112163277e+00
1.110000000000000000e+02,8.181715903211765450e+00
1.120000000000000000e+02,8.218437330356318071e+00
1.130000000000000000e+02,8.254741250841679090e+00
1.140000000000000000e+02,8.290632571679962481e+00
1.150000000000000000e+02,8.326118366630085532e+00
1.160000000000000000e+02,8.361205106714457713e+00
1.170000000000000000e+02,8.395900181383181504e+00
1.180000000000000000e+02,8.430208403650530258e+00
1.190000000000000000e+02,8.464136363524998430e+00
1.200000000000000000e+02,8.497688792217159559e+00
1.210000000000000000e+02,8.530872496411985750e+00
1.220000000000000000e+02,8.563691969860194320e+00
1.230000000000000000e+02,8.596152809214695267e+00
1.240000000000000000e+02,8.628260730328303652e+00
1.250000000000000000e+02,8.660019536075202140e+00
1.260000000000000000e+02,8.691434441023602631e+00
1.270000000000000000e+02,8.722511867854098710e+00
1.280000000000000000e+02,8.753254211690004283e+00
1.290000000000000000e+02,8.783666353663010185e+00
1.300000000000000000e+02,8.813753466419276705e+00
1.310000000000000000e+02,8.843520107432430777e+00
1.320000000000000000e+02,8.872973214463049985e+00
1.330000000000000000e+02,8.902117745114495051e+00
1.340000000000000000e+02,8.930960558692463636e+00
1.350000000000000000e+02,8.959506565471212269e+00
1.360000000000000000e+02,8.987760094236755037e+00
1.370000000000000000e+02,9.015725055594675297e+00
1.380000000000000000e+02,9.043404096979948292e+00
1.390000000000000000e+02,9.070799637524409320e+00
1.400000000000000000e+02,9.097913026642400425e+00
1.410000000000000000e+02,9.124747809375609364e+00
1.420000000000000000e+02,9.151305888541056532e+00
1.430000000000000000e+02,9.177588545342148407e+00
1.440000000000000000e+02,9.203598529944668982e+00
1.450000000000000000e+02,9.229338096457214036e+00
1.460000000000000000e+02,9.254809563743096490e+00
1.470000000000000000e+02,9.280014090604842281e+00
1.480000000000000000e+02,9.304954546409401672e+00
1.490000000000000000e+02,9.329632372573129828e+00
1.500000000000000000e+02,9.354050028537120198e+00
1.510000000000000000e+02,9.378208969137599382e+00
1.520000000000000000e+02,9.402111392052409755e+00
1.530000000000000000e+02,9.425757979359978833e+00
1.540000000000000000e+02,9.449151081944355823e+00
1.550000000000000000e+02,9.472290895010702982e+00
1.560000000000000000e+02,9.495179535439826068e+00
1.570000000000000000e+02,9.517815826866529605e+00
1.580000000000000000e+02,9.540201808047910959e+00
1.590000000000000000e+02,9.562338688915518858e+00
1.600000000000000000e+02,9.584224958306732489e+00
1.610000000000000000e+02,9.605861139191032905e+00
1.620000000000000000e+02,9.627246584947586783e+00
1.630000000000000000e+02,9.648381893948727139e+00
1.640000000000000000e+02,9.669265376249569499e+00
1.650000000000000000e+02,9.689896468251767203e+00
1.660000000000000000e+02,9.710273845700379880e+00
1.670000000000000000e+02,9.730396675110679183e+00
1.680000000000000000e+02,9.750263740855169559e+00
1.690000000000000000e+02,9.769873084133594787e+00
1.700000000000000000e+02,9.789223238261790527e+00
1.710000000000000000e+02,9.808312001017762682e+00
1.720000000000000000e+02,9.827137296157802737e+00
1.730000000000000000e+02,9.845697290392047663e+00
1.740000000000000000e+02,9.863989545345097198e+00
1.750000000000000000e+02,9.882011746557259002e+00
1.760000000000000000e+02,9.899760863607600214e+00
1.770000000000000000e+02,9.917235660674453612e+00
1.780000000000000000e+02,9.934432275025592674e+00
1.790000000000000000e+02,9.951348397903782228e+00
1.800000000000000000e+02,9.967981361265128015e+00
1.810000000000000000e+02,9.984328611800703968e+00
1.820000000000000000e+02,1.000038712207158831e+01
1.830000000000000000e+02,1.001615421302368780e+01
1.840000000000000000e+02,1.003162801191845688e+01
1.850000000000000000e+02,1.004680500292231571e+01
1.860000000000000000e+02,1.006168398138597908e+01
1.870000000000000000e+02,1.007626267456201496e+01
1.880000000000000000e+02,1.009053821553397334e+01
1.890000000000000000e+02,1.010451036001704139e+01
1.900000000000000000e+02,1.011817733266378738e+01
1.910000000000000000e+02,1.013153812753842864e+01
1.920000000000000000e+02,1.014459272434110915e+01
1.930000000000000000e+02,1.015734105395437759e+01
1.940000000000000000e+02,1.016985905794509293e+01
1.950000000000000000e+02,1.018205106538259486e+01
1.960000000000000000e+02,1.019395035495940327e+01
1.970000000000000000e+02,1.020556703078398009e+01
1.980000000000000000e+02,1.021689962327779533e+01
1.990000000000000000e+02,1.022794450696174273e+01
2.000000000000000000e+02,1.023869536372035682e+01
2.010000000000000000e+02,1.024915034007196191e+01
2.020000000000000000e+02,1.025931211044244762e+01
2.030000000000000000e+02,1.026918550131195218e+01
2.040000000000000000e+02,1.027877758316428114e+01
2.050000000000000000e+02,1.028809654657624328e+01
2.060000000000000000e+02,1.029715147504494865e+01
2.070000000000000000e+02,1.030595168003064899e+01
2.080000000000000000e+02,1.031450659328491071e+01
2.090000000000000000e+02,1.032282566023984138e+01
2.100000000000000000e+02,1.033091889242130001e+01
2.110000000000000000e+02,1.033879621002118121e+01
2.120000000000000000e+02,1.034646799336457867e+01
2.130000000000000000e+02,1.035394410066623649e+01
2.140000000000000000e+02,1.036123474783135556e+01
2.150000000000000000e+02,1.036835072722508500e+01
2.160000000000000000e+02,1.037530188476446114e+01
2.170000000000000000e+02,1.038209832409363287e+01
2.180000000000000000e+02,1.038875073321230147e+01
2.190000000000000000e+02,1.039527005860650100e+01
2.200000000000000000e+02,1.040166501791698117e+01
2.210000000000000000e+02,1.040794687075155700e+01
2.220000000000000000e+02,1.041412476430517309e+01
2.230000000000000000e+02,1.042020865876445157e+01
2.240000000000000000e+02,1.042620835512308552e+01
2.250000000000000000e+02,1.043213209938171815e+01
2.260000000000000000e+02,1.043799013828431832e+01
2.270000000000000000e+02,1.044378987974224238e+01
2.280000000000000000e+02,1.044953966174925064e+01
2.290000000000000000e+02,1.045524885511596125e+01
2.300000000000000000e+02,1.046092400755727780e+01
2.310000000000000000e+02,1.046657313377037468e+01
2.320000000000000000e+02,1.047220357306501093e+01
2.330000000000000000e+02,1.047782167339272874e+01
2.340000000000000000e+02,1.048343535313120611e+01
2.350000000000000000e+02,1.048904994319690687e+01
2.360000000000000000e+02,1.049467107056237580e+01
2.370000000000000000e+02,1.050030635533660650e+01
2.380000000000000000e+02,1.050596041524585011e+01
2.390000000000000000e+02,1.051163827169870579e+01
2.400000000000000000e+02,1.051734577069293586e+01
2.410000000000000000e+02,1.052308746380203885e+01
2.420000000000000000e+02,1.052886830441525845e+01
2.430000000000000000e+02,1.053579346455987142e+01
2.440000000000000000e+02,1.054218691612081571e+01
2.450000000000000000e+02,1.054842397040668978e+01
2.460000000000000000e+02,1.055460101221108005e+01
2.470000000000000000e+02,1.056074679669600691e+01
2.480000000000000000e+02,1.056689927496004522e+01
2.490000000000000000e+02,1.057308993856006119e+01
2.500000000000000000e+02,1.057934009040720369e+01
2.510000000000000000e+02,1.058566320060003108e+01
2.520000000000000000e+02,1.059207048087625402e+01
2.530000000000000000e+02,1.059856891632430020e+01
2.540000000000000000e+02,1.060516670194407851e+01
2.550000000000000000e+02,1.061186678877624878e+01
2.560000000000000000e+02,1.061867428686819537e+01
2.570000000000000000e+02,1.062559593219464738e+01
2.580000000000000000e+02,1.063263489754485747e+01
2.590000000000000000e+02,1.063979267623236424e+01
2.600000000000000000e+02,1.064707663108660540e+01
2.610000000000000000e+02,1.065449108492496499e+01
2.620000000000000000e+02,1.066204042941701680e+01
2.630000000000000000e+02,1.066972963756903958e+01
2.640000000000000000e+02,1.067756569570490832e+01
2.650000000000000000e+02,1.068555461388075933e+01
2.660000000000000000e+02,1.069370337618228461e+01
2.670000000000000000e+02,1.070201819378633168e+01
2.680000000000000000e+02,1.071050532517576848e+01
2.690000000000000000e+02,1.071917433380896867e+01
2.700000000000000000e+02,1.072803327822572328e+01
2.710000000000000000e+02,1.073709207202975158e+01
2.720000000000000000e+02,1.074636104569463768e+01
2.730000000000000000e+02,1.075584729618769231e+01
2.740000000000000000e+02,1.076556521610458361e+01
2.750000000000000000e+02,1.077552593822793270e+01
2.760000000000000000e+02,1.078573977467850931e+01
2.770000000000000000e+02,1.079621933276780332e+01
2.780000000000000000e+02,1.080698149150408049e+01
2.790000000000000000e+02,1.081804174974812582e+01
2.800000000000000000e+02,1.082941363219052811e+01
2.810000000000000000e+02,1.084111587257534914e+01
2.820000000000000000e+02,1.085316558961157973e+01
2.830000000000000000e+02,1.086558106922618627e+01
2.840000000000000000e+02,1.087838332156591470e+01
2.850000000000000000e+02,1.089159139658000441e+01
2.860000000000000000e+02,1.090523361350441789e+01
2.870000000000000000e+02,1.091932965537845668e+01
2.880000000000000000e+02,1.093390554282447980e+01
2.890000000000000000e+02,1.094899089233604705e+01
2.900000000000000000e+02,1.096460871354128308e+01
2.910000000000000000e+02,1.098078683485450391e+01
2.920000000000000000e+02,1.099755219168353548e+01
2.930000000000000000e+02,1.101493679095699996e+01
2.940000000000000000e+02,1.103297230719246080e+01
2.950000000000000000e+02,1.105167442602973260e+01
2.960000000000000000e+02,1.107107011076846703e+01
2.970000000000000000e+02,1.109118281672305883e+01
2.980000000000000000e+02,1.111202455537568667e+01
2.990000000000000000e+02,1.113360901918488288e+01
3.000000000000000000e+02,1.115592773189811027e+01
3.010000000000000000e+02,1.117896959225790354e+01
3.020000000000000000e+02,1.120270601450514825e+01
3.030000000000000000e+02,1.122709392085462099e+01
3.040000000000000000e+02,1.125206796127621089e+01
3.050000000000000000e+02,1.127753637238336637e+01
3.060000000000000000e+02,1.130340510491087969e+01
3.070000000000000000e+02,1.132954530800912352e+01
3.080000000000000000e+02,1.135582361358937753e+01
3.090000000000000000e+02,1.138209696928154280e+01
3.100000000000000000e+02,1.140823123929761351e+01
3.110000000000000000e+02,1.143409329875129643e+01
3.120000000000000000e+02,1.145957085510203122e+01
3.130000000000000000e+02,1.148457335055873685e+01
3.140000000000000000e+02,1.150903752370209787e+01
3.150000000000000000e+02,1.153292483538519342e+01
3.160000000000000000e+02,1.155621372596560192e+01
3.170000000000000000e+02,1.157891173098458282e+01
3.180000000000000000e+02,1.160103020297917453e+01
3.190000000000000000e+02,1.162259239181113735e+01
3.200000000000000000e+02,1.164362279117448828e+01
3.210000000000000000e+02,1.166415023280412022e+01
3.220000000000000000e+02,1.168420302920552878e+01
3.230000000000000000e+02,1.170381370367435636e+01
3.240000000000000000e+02,1.172300411986192081e+01
3.250000000000000000e+02,1.174179815448841246e+01
3.260000000000000000e+02,1.176022227161607070e+01
3.270000000000000000e+02,1.177829013933965818e+01
3.280000000000000000e+02,1.179602698084572943e+01
3.290000000000000000e+02,1.181344525381800636e+01
3.300000000000000000e+02,1.183056190907753980e+01
3.310000000000000000e+02,1.184738765730435084e+01
3.320000000000000000e+02,1.186393654442575141e+01
3.330000000000000000e+02,1.188022018753356335e+01
3.340000000000000000e+02,1.189624979832905716e+01
3.350000000000000000e+02,1.191203446043418523e+01
3.360000000000000000e+02,1.192758099659571691e+01
3.370000000000000000e+02,1.194289982784586357e+01
3.380000000000000000e+02,1.195800026411892247e+01
3.390000000000000000e+02,1.197288407024880108e+01
3.400000000000000000e+02,1.198756185330694635e+01
3.410000000000000000e+02,1.200203808513189152e+01
3.420000000000000000e+02,1.201631871794315920e+01
3.430000000000000000e+02,1.203041003590289648e+01
3.440000000000000000e+02,1.204431566720147551e+01
3.450000000000000000e+02,1.205804184916268618e+01
3.460000000000000000e+02,1.207159073245338199e+01
3.470000000000000000e+02,1.208496844314436736e+01
3.480000000000000000e+02,1.209817888152741716e+01
3.490000000000000000e+02,1.211122566288768532e+01
3.500000000000000000e+02,1.212411116579347059e+01
3.510000000000000000e+02,1.213683988357015053e+01
3.520000000000000000e+02,1.214941412047748415e+01
3.530000000000000000e+02,1.216183686417983267e+01
3.540000000000000000e+02,1.217411177932966559e+01
3.550000000000000000e+02,1.218624075783891669e+01
3.560000000000000000e+02,1.219822747724576040e+01
3.570000000000000000e+02,1.221007432153115069e+01
3.580000000000000000e+02,1.222178192402239816e+01
3.590000000000000000e+02,1.223335591132354949e+01
3.600000000000000000e+02,1.224479701945504750e+01
3.610000000000000000e+02,1.225610503653729033e+01
3.620000000000000000e+02,1.226728487899503683e+01
3.630000000000000000e+02,1.227833823700600746e+01
3.640000000000000000e+02,1.228926484423401000e+01
3.650000000000000000e+02,1.230007000055590005e+01
3.660000000000000000e+02,1.231075255155857207e+01
3.670000000000000000e+02,1.232131535425856761e+01
3.680000000000000000e+02,1.233176054732751936e+01
3.690000000000000000e+02,1.234208994181745034e+01
3.700000000000000000e+02,1.235230479405078974e+01
3.710000000000000000e+02,1.236240496788438392e+01
3.720000000000000000e+02,1.237239445211311661e+01
3.730000000000000000e+02,1.238227415063482972e+01
3.740000000000000000e+02,1.239204503280915937e+01
3.750000000000000000e+02,1.240170858973724499e+01
3.760000000000000000e+02,1.241126614643731507e+01
3.770000000000000000e+02,1.242071916683634214e+01
3.780000000000000000e+02,1.243006910138560706e+01
3.790000000000000000e+02,1.243931625259842555e+01
3.800000000000000000e+02,1.244846303191241432e+01
3.810000000000000000e+02,1.245751077632749748e+01
3.820000000000000000e+02,1.246646035903526872e+01
3.830000000000000000e+02,1.247531309547315104e+01
3.840000000000000000e+02,1.248407028967515586e+01
3.850000000000000000e+02,1.249273233445507714e+01
3.860000000000000000e+02,1.250130059039424424e+01
3.870000000000000000e+02,1.250977715492380682e+01
3.880000000000000000e+02,1.251816209361628296e+01
3.890000000000000000e+02,1.252645561737871560e+01
3.900000000000000000e+02,1.253466091268105842e+01
3.910000000000000000e+02,1.254277869051001559e+01
3.920000000000000000e+02,1.255080883750018472e+01
3.930000000000000000e+02,1.255875175717378944e+01
3.940000000000000000e+02,1.256661088698359841e+01
3.950000000000000000e+02,1.257438564629578970e+01
3.960000000000000000e+02,1.258207678535720042e+01
3.970000000000000000e+02,1.258968593404243386e+01
3.980000000000000000e+02,1.259721301484703737e+01
