# Time [s], Mass [Kg]
1.000000000000000000e+00,1.000000000000000000e+00
2.000000000000000000e+00,1.000000000000000000e+00
3.000000000000000000e+00,1.000000000000000000e+00
4.000000000000000000e+00,1.000000000000000000e+00
5.000000000000000000e+00,1.000000000000000000e+00
6.000000000000000000e+00,1.000000000000000000e+00
7.000000000000000000e+00,1.000000000000000000e+00
8.000000000000000000e+00,1.000000000000000000e+00
9.000000000000000000e+00,1.000000000000000000e+00
1.000000000000000000e+01,1.000000000000000000e+00
1.100000000000000000e+01,9.999999400000000316e-01
1.200000000000000000e+01,9.999999400000000316e-01
1.300000000000000000e+01,9.999998199999999837e-01
1.400000000000000000e+01,9.999995799999999990e-01
1.500000000000000000e+01,9.999991700000000483e-01
1.600000000000000000e+01,9.999983900000000148e-01
1.700000000000000000e+01,9.999970200000000142e-01
1.800000000000000000e+01,9.999947000000000141e-01
1.900000000000000000e+01,9.999908800000000264e-01
2.000000000000000000e+01,9.999848599999999754e-01
2.100000000000000000e+01,9.999755599999999855e-01
2.200000000000000000e+01,9.999617899999999615e-01
2.300000000000000000e+01,9.999416500000000152e-01
2.400000000000000000e+01,9.999130999999999991e-01
2.500000000000000000e+01,9.998734599999999917e-01
2.600000000000000000e+01,9.998195800000000411e-01
2.700000000000000000e+01,9.997475099999999504e-01
2.800000000000000000e+01,9.996532200000000090e-01
2.900000000000000000e+01,9.995317500000000521e-01
3.000000000000000000e+01,9.993778500000000120e-01
3.100000000000000000e+01,9.991863399999999507e-01
3.200000000000000000e+01,9.989520299999999908e-01
3.300000000000000000e+01,9.986689699999999892e-01
3.400000000000000000e+01,9.983335100000000351e-01
3.500000000000000000e+01,9.979424500000000364e-01
3.600000000000000000e+01,9.974906399999999840e-01
3.700000000000000000e+01,9.969788200000000433e-01
3.800000000000000000e+01,9.964076899999999570e-01
3.900000000000000000e+01,9.957725400000000393e-01
4.000000000000000000e+01,9.950804699999999947e-01
4.100000000000000000e+01,9.943354100000000306e-01
4.200000000000000000e+01,9.935306299999999702e-01
4.300000000000000000e+01,9.926797200000000432e-01
4.400000000000000000e+01,9.917876100000000417e-01
4.500000000000000000e+01,9.908432999999999824e-01
4.600000000000000000e+01,9.898660799999999815e-01
4.700000000000000000e+01,9.888597700000000268e-01
4.800000000000000000e+01,9.878085899999999864e-01
4.900000000000000000e+01,9.867363000000000106e-01
5.000000000000000000e+01,9.856441599999999914e-01
5.100000000000000000e+01,9.845133400000000146e-01
5.200000000000000000e+01,9.833697099999999525e-01
5.300000000000000000e+01,9.822120100000000242e-01
5.400000000000000000e+01,9.810208099999999654e-01
5.500000000000000000e+01,9.798210899999999501e-01
5.600000000000000000e+01,9.786108700000000216e-01
5.700000000000000000e+01,9.773722900000000324e-01
5.800000000000000000e+01,9.761274500000000076e-01
5.900000000000000000e+01,9.748750900000000552e-01
6.000000000000000000e+01,9.736000299999999497e-01
6.100000000000000000e+01,9.723205600000000004e-01
6.200000000000000000e+01,9.710370299999999677e-01
6.300000000000000000e+01,9.697372300000000056e-01
6.400000000000000000e+01,9.684353500000000281e-01
6.500000000000000000e+01,9.671326900000000171e-01
6.600000000000000000e+01,9.658194799999999525e-01
6.700000000000000000e+01,9.645063900000000467e-01
6.800000000000000000e+01,9.631947299999999990e-01
6.900000000000000000e+01,9.618766899999999787e-01
7.000000000000000000e+01,9.605598400000000536e-01
7.100000000000000000e+01,9.592452599999999885e-01
7.200000000000000000e+01,9.579271099999999706e-01
7.300000000000000000e+01,9.566102600000000455e-01
7.400000000000000000e+01,9.552959199999999651e-01
7.500000000000000000e+01,9.539797300000000257e-01
7.600000000000000000e+01,9.526651499999999606e-01
7.700000000000000000e+01,9.513532500000000391e-01
7.800000000000000000e+01,9.500410599999999928e-01
7.900000000000000000e+01,9.487307099999999771e-01
8.000000000000000000e+01,9.474234599999999951e-01
8.100000000000000000e+01,9.461170399999999647e-01
8.200000000000000000e+01,9.448129499999999847e-01
8.300000000000000000e+01,9.435120799999999752e-01
8.400000000000000000e+01,9.422125799999999662e-01
8.500000000000000000e+01,9.409154699999999760e-01
8.600000000000000000e+01,9.396213300000000324e-01
8.700000000000000000e+01,9.383287999999999629e-01
8.800000000000000000e+01,9.370382400000000223e-01
8.900000000000000000e+01,9.357501299999999578e-01
9.000000000000000000e+01,9.344635599999999709e-01
9.100000000000000000e+01,9.331785400000000008e-01
9.200000000000000000e+01,9.318954900000000485e-01
9.300000000000000000e+01,9.306138200000000360e-01
9.400000000000000000e+01,9.293333900000000369e-01
9.500000000000000000e+01,9.280547500000000394e-01
9.600000000000000000e+01,9.267770600000000414e-01
9.700000000000000000e+01,9.255005699999999669e-01
9.800000000000000000e+01,9.242254500000000039e-01
9.900000000000000000e+01,9.229511599999999927e-01
1.000000000000000000e+02,9.216777099999999834e-01
1.010000000000000000e+02,9.204052700000000531e-01
1.020000000000000000e+02,9.191334199999999788e-01
1.030000000000000000e+02,9.178619399999999873e-01
1.040000000000000000e+02,9.165910499999999628e-01
1.050000000000000000e+02,9.153202200000000177e-01
1.060000000000000000e+02,9.140493899999999616e-01
1.070000000000000000e+02,9.125514599999999810e-01
1.080000000000000000e+02,9.110740999999999978e-01
1.090000000000000000e+02,9.097074299999999836e-01
1.100000000000000000e+02,9.083498100000000353e-01
1.110000000000000000e+02,9.070125199999999888e-01
1.120000000000000000e+02,9.056852499999999973e-01
1.130000000000000000e+02,9.043603500000000350e-01
1.140000000000000000e+02,9.030437500000000339e-01
1.150000000000000000e+02,9.017247000000000456e-01
1.160000000000000000e+02,9.004116100000000289e-01
1.170000000000000000e+02,8.990951200000000254e-01
1.180000000000000000e+02,8.977822100000000249e-01
1.190000000000000000e+02,8.964659000000000377e-01
1.200000000000000000e+02,8.951512600000000042e-01
1.210000000000000000e+02,8.938334599999999686e-01
1.220000000000000000e+02,8.925157799999999808e-01
1.230000000000000000e+02,8.911951200000000073e-01
1.240000000000000000e+02,8.898730900000000332e-01
1.250000000000000000e+02,8.885484299999999447e-01
1.260000000000000000e+02,8.872215199999999857e-01
1.270000000000000000e+02,8.858918000000000070e-01
1.280000000000000000e+02,8.845590899999999923e-01
1.290000000000000000e+02,8.832235899999999473e-01
1.300000000000000000e+02,8.818842799999999649e-01
1.310000000000000000e+02,8.805420999999999943e-01
1.320000000000000000e+02,8.791956300000000057e-01
1.330000000000000000e+02,8.778460000000000152e-01
1.340000000000000000e+02,8.764917300000000244e-01
1.350000000000000000e+02,8.751339299999999488e-01
1.360000000000000000e+02,8.737710100000000146e-01
1.370000000000000000e+02,8.724043400000000004e-01
1.380000000000000000e+02,8.710321199999999653e-01
1.390000000000000000e+02,8.696556699999999918e-01
1.400000000000000000e+02,8.682734399999999519e-01
1.410000000000000000e+02,8.668865000000000043e-01
1.420000000000000000e+02,8.654935400000000056e-01
1.430000000000000000e+02,8.640953300000000503e-01
1.440000000000000000e+02,8.626908699999999985e-01
1.450000000000000000e+02,8.612805599999999728e-01
1.460000000000000000e+02,8.598638800000000249e-01
1.470000000000000000e+02,8.584408799999999617e-01
1.480000000000000000e+02,8.570110800000000362e-01
1.490000000000000000e+02,8.555744299999999969e-01
1.500000000000000000e+02,8.541306899999999702e-01
1.510000000000000000e+02,8.526796100000000322e-01
1.520000000000000000e+02,8.512210199999999949e-01
1.530000000000000000e+02,8.497545699999999869e-01
1.540000000000000000e+02,8.482803100000000374e-01
1.550000000000000000e+02,8.467976499999999573e-01
1.560000000000000000e+02,8.453068099999999641e-01
1.570000000000000000e+02,8.438069200000000158e-01
1.580000000000000000e+02,8.422983299999999840e-01
1.590000000000000000e+02,8.407801999999999776e-01
1.600000000000000000e+02,8.392528900000000291e-01
1.610000000000000000e+02,8.377155099999999965e-01
1.620000000000000000e+02,8.361683500000000047e-01
1.630000000000000000e+02,8.346105200000000224e-01
1.640000000000000000e+02,8.330424400000000507e-01
1.650000000000000000e+02,8.314630400000000421e-01
1.660000000000000000e+02,8.298727900000000268e-01
1.670000000000000000e+02,8.282706699999999866e-01
1.680000000000000000e+02,8.266569999999999752e-01
1.690000000000000000e+02,8.250306800000000162e-01
1.700000000000000000e+02,8.233922099999999578e-01
1.710000000000000000e+02,8.217405100000000351e-01
1.720000000000000000e+02,8.200758700000000401e-01
1.730000000000000000e+02,8.183972800000000047e-01
1.740000000000000000e+02,8.167049899999999640e-01
1.750000000000000000e+02,8.149980300000000399e-01
1.760000000000000000e+02,8.132766500000000454e-01
1.770000000000000000e+02,8.114723600000000037e-01
1.780000000000000000e+02,8.096710999999999769e-01
1.790000000000000000e+02,8.078655599999999826e-01
1.800000000000000000e+02,8.060513700000000448e-01
1.810000000000000000e+02,8.042256800000000538e-01
1.820000000000000000e+02,8.023871200000000092e-01
1.830000000000000000e+02,8.005514700000000428e-01
1.840000000000000000e+02,7.986870999999999832e-01
1.850000000000000000e+02,7.967906599999999839e-01
1.860000000000000000e+02,7.948859900000000422e-01
1.870000000000000000e+02,7.929701799999999690e-01
1.880000000000000000e+02,7.910383899999999802e-01
1.890000000000000000e+02,7.890943900000000344e-01
1.900000000000000000e+02,7.871336300000000286e-01
1.910000000000000000e+02,7.851582799999999862e-01
1.920000000000000000e+02,7.831662900000000427e-01
1.930000000000000000e+02,7.811582099999999640e-01
1.940000000000000000e+02,7.791336800000000506e-01
1.950000000000000000e+02,7.770926400000000012e-01
1.960000000000000000e+02,7.750352000000000352e-01
1.970000000000000000e+02,7.729615600000000475e-01
1.980000000000000000e+02,7.708718799999999538e-01
1.990000000000000000e+02,7.687665200000000087e-01
2.000000000000000000e+02,7.666455500000000089e-01
2.010000000000000000e+02,7.645098599999999855e-01
2.020000000000000000e+02,7.623590799999999668e-01
2.030000000000000000e+02,7.601945399999999742e-01
2.040000000000000000e+02,7.580155100000000035e-01
2.050000000000000000e+02,7.558240299999999801e-01
2.060000000000000000e+02,7.536187800000000436e-01
2.070000000000000000e+02,7.514020200000000038e-01
2.080000000000000000e+02,7.491858000000000128e-01
2.090000000000000000e+02,7.469556899999999500e-01
2.100000000000000000e+02,7.447065699999999566e-01
2.110000000000000000e+02,7.424477900000000519e-01
2.120000000000000000e+02,7.401878800000000203e-01
2.130000000000000000e+02,7.379230300000000353e-01
2.140000000000000000e+02,7.356565600000000149e-01
2.150000000000000000e+02,7.333872900000000250e-01
2.160000000000000000e+02,7.311165299999999867e-01
2.170000000000000000e+02,7.288437500000000124e-01
2.180000000000000000e+02,7.265703100000000525e-01
2.190000000000000000e+02,7.242956200000000289e-01
2.200000000000000000e+02,7.220212200000000191e-01
2.210000000000000000e+02,7.197462300000000424e-01
2.220000000000000000e+02,7.174725499999999867e-01
2.230000000000000000e+02,7.151987600000000445e-01
2.240000000000000000e+02,7.129269200000000195e-01
2.250000000000000000e+02,7.106029999999999847e-01
2.260000000000000000e+02,7.082935599999999887e-01
2.270000000000000000e+02,7.059922199999999481e-01
2.280000000000000000e+02,7.037070399999999504e-01
2.290000000000000000e+02,7.014376500000000236e-01
2.300000000000000000e+02,6.991950900000000191e-01
2.310000000000000000e+02,6.969708799999999593e-01
2.320000000000000000e+02,6.947548399999999846e-01
2.330000000000000000e+02,6.925455900000000442e-01
2.340000000000000000e+02,6.903427199999999653e-01
2.350000000000000000e+02,6.881450999999999540e-01
2.360000000000000000e+02,6.859539199999999948e-01
2.370000000000000000e+02,6.837683300000000353e-01
2.380000000000000000e+02,6.815896000000000177e-01
2.390000000000000000e+02,6.794170699999999563e-01
2.400000000000000000e+02,6.772514600000000273e-01
2.410000000000000000e+02,6.750923399999999575e-01
2.420000000000000000e+02,6.729399600000000037e-01
2.430000000000000000e+02,6.707937699999999559e-01
2.440000000000000000e+02,6.686607599999999652e-01
2.450000000000000000e+02,6.665363300000000102e-01
2.460000000000000000e+02,6.644192300000000273e-01
2.470000000000000000e+02,6.623101200000000022e-01
2.480000000000000000e+02,6.602132899999999527e-01
2.490000000000000000e+02,6.581295099999999731e-01
2.500000000000000000e+02,6.560592699999999722e-01
2.510000000000000000e+02,6.540024300000000235e-01
2.520000000000000000e+02,6.519593000000000194e-01
2.530000000000000000e+02,6.499291699999999450e-01
2.540000000000000000e+02,6.479126200000000502e-01
2.550000000000000000e+02,6.459084699999999568e-01
2.560000000000000000e+02,6.439173799999999837e-01
2.570000000000000000e+02,6.419380300000000483e-01
2.580000000000000000e+02,6.399709000000000092e-01
2.590000000000000000e+02,6.380206299999999775e-01
2.600000000000000000e+02,6.360838399999999559e-01
2.610000000000000000e+02,6.341607000000000216e-01
2.620000000000000000e+02,6.322512000000000132e-01
2.630000000000000000e+02,6.303587000000000495e-01
2.640000000000000000e+02,6.284848499999999838e-01
2.650000000000000000e+02,6.266308400000000223e-01
2.660000000000000000e+02,6.247965699999999956e-01
2.670000000000000000e+02,6.229832199999999487e-01
2.680000000000000000e+02,6.211900099999999592e-01
2.690000000000000000e+02,6.194181399999999504e-01
2.700000000000000000e+02,6.176664200000000493e-01
2.710000000000000000e+02,6.159359800000000496e-01
2.720000000000000000e+02,6.142300400000000327e-01
2.730000000000000000e+02,6.125468600000000263e-01
2.740000000000000000e+02,6.108673199999999914e-01
2.750000000000000000e+02,6.092165099999999889e-01
2.760000000000000000e+02,6.075968099999999872e-01
2.770000000000000000e+02,6.060102000000000544e-01
2.780000000000000000e+02,6.044585700000000283e-01
2.790000000000000000e+02,6.029423499999999603e-01
2.800000000000000000e+02,6.014633200000000235e-01
2.810000000000000000e+02,6.000213599999999481e-01
2.820000000000000000e+02,5.986184500000000241e-01
2.830000000000000000e+02,5.972572000000000436e-01
2.840000000000000000e+02,5.959377300000000544e-01
2.850000000000000000e+02,5.946624299999999641e-01
2.860000000000000000e+02,5.934330799999999462e-01
2.870000000000000000e+02,5.922528500000000529e-01
2.880000000000000000e+02,5.911245299999999814e-01
2.890000000000000000e+02,5.900511699999999582e-01
2.900000000000000000e+02,5.890339599999999676e-01
2.910000000000000000e+02,5.880750999999999618e-01
2.920000000000000000e+02,5.871748900000000049e-01
2.930000000000000000e+02,5.863348200000000343e-01
2.940000000000000000e+02,5.855540000000000189e-01
2.950000000000000000e+02,5.848355899999999608e-01
2.960000000000000000e+02,5.841774299999999975e-01
2.970000000000000000e+02,5.835807299999999920e-01
2.980000000000000000e+02,5.830445899999999737e-01
2.990000000000000000e+02,5.825656099999999560e-01
3.000000000000000000e+02,5.821390699999999807e-01
3.010000000000000000e+02,5.817604699999999740e-01
3.020000000000000000e+02,5.814256700000000055e-01
3.030000000000000000e+02,5.811302099999999804e-01
3.040000000000000000e+02,5.808700900000000056e-01
3.050000000000000000e+02,5.806410300000000024e-01
3.060000000000000000e+02,5.804424299999999537e-01
3.070000000000000000e+02,5.802688599999999974e-01
3.080000000000000000e+02,5.801182999999999756e-01
3.090000000000000000e+02,5.799874699999999494e-01
3.100000000000000000e+02,5.798736199999999785e-01
3.110000000000000000e+02,5.797739600000000326e-01
3.120000000000000000e+02,5.796865799999999513e-01
3.130000000000000000e+02,5.796092699999999542e-01
3.140000000000000000e+02,5.795407900000000279e-01
3.150000000000000000e+02,5.794817199999999779e-01
3.160000000000000000e+02,5.794293900000000441e-01
3.170000000000000000e+02,5.793834900000000010e-01
3.180000000000000000e+02,5.793425399999999614e-01
3.190000000000000000e+02,5.793063600000000202e-01
3.200000000000000000e+02,5.792737000000000025e-01
3.210000000000000000e+02,5.792445499999999692e-01
3.220000000000000000e+02,5.792177299999999862e-01
3.230000000000000000e+02,5.791934699999999880e-01
3.240000000000000000e+02,5.791726699999999450e-01
3.250000000000000000e+02,5.791538400000000308e-01
3.260000000000000000e+02,5.791369699999999732e-01
3.270000000000000000e+02,5.791214700000000271e-01
3.280000000000000000e+02,5.791075199999999867e-01
3.290000000000000000e+02,5.790944700000000278e-01
3.300000000000000000e+02,5.790825499999999737e-01
3.310000000000000000e+02,5.790710399999999813e-01
3.320000000000000000e+02,5.790602599999999933e-01
3.330000000000000000e+02,5.790515499999999705e-01
3.340000000000000000e+02,5.790433900000000467e-01
3.350000000000000000e+02,5.790359999999999951e-01
3.360000000000000000e+02,5.790289600000000370e-01
3.370000000000000000e+02,5.790225900000000037e-01
3.380000000000000000e+02,5.790162699999999996e-01
3.390000000000000000e+02,5.790104299999999649e-01
3.400000000000000000e+02,5.790055400000000407e-01
3.410000000000000000e+02,5.790008899999999903e-01
3.420000000000000000e+02,5.789965999999999724e-01
3.430000000000000000e+02,5.789924899999999708e-01
3.440000000000000000e+02,5.789887299999999515e-01
3.450000000000000000e+02,5.789849799999999824e-01
3.460000000000000000e+02,5.789814599999999478e-01
3.470000000000000000e+02,5.789777000000000395e-01
3.480000000000000000e+02,5.789748399999999906e-01
3.490000000000000000e+02,5.789722200000000374e-01
3.500000000000000000e+02,5.789696600000000526e-01
3.510000000000000000e+02,5.789672099999999544e-01
3.520000000000000000e+02,5.789648299999999859e-01
3.530000000000000000e+02,5.789625000000000465e-01
3.540000000000000000e+02,5.789601199999999670e-01
3.550000000000000000e+02,5.789576800000000301e-01
3.560000000000000000e+02,5.789559499999999970e-01
3.570000000000000000e+02,5.789542199999999639e-01
3.580000000000000000e+02,5.789526699999999471e-01
3.590000000000000000e+02,5.789510599999999618e-01
3.600000000000000000e+02,5.789495099999999450e-01
3.610000000000000000e+02,5.789478999999999598e-01
3.620000000000000000e+02,5.789462899999999745e-01
3.630000000000000000e+02,5.789450999999999903e-01
3.640000000000000000e+02,5.789439100000000060e-01
3.650000000000000000e+02,5.789428399999999586e-01
3.660000000000000000e+02,5.789417000000000035e-01
3.670000000000000000e+02,5.789406299999999561e-01
3.680000000000000000e+02,5.789395000000000513e-01
3.690000000000000000e+02,5.789383099999999560e-01
3.700000000000000000e+02,5.789374699999999541e-01
3.710000000000000000e+02,5.789366400000000024e-01
3.720000000000000000e+02,5.789358599999999688e-01
3.730000000000000000e+02,5.789350300000000171e-01
3.740000000000000000e+02,5.789342499999999836e-01
3.750000000000000000e+02,5.789333599999999524e-01
3.760000000000000000e+02,5.789325199999999505e-01
3.770000000000000000e+02,5.789318700000000151e-01
3.780000000000000000e+02,5.789312699999999978e-01
3.790000000000000000e+02,5.789306800000000308e-01
3.800000000000000000e+02,5.789300800000000136e-01
3.810000000000000000e+02,5.789294799999999963e-01
3.820000000000000000e+02,5.789287699999999814e-01
3.830000000000000000e+02,5.789280500000000274e-01
3.840000000000000000e+02,5.789276399999999656e-01
3.850000000000000000e+02,5.789271000000000278e-01
3.860000000000000000e+02,5.789266800000000268e-01
3.870000000000000000e+02,5.789262099999999966e-01
3.880000000000000000e+02,5.789257300000000273e-01
3.890000000000000000e+02,5.789251300000000100e-01
3.900000000000000000e+02,5.789245400000000430e-01
3.910000000000000000e+02,5.789241800000000104e-01
3.920000000000000000e+02,5.789238199999999779e-01
3.930000000000000000e+02,5.789234599999999453e-01
3.940000000000000000e+02,5.789230499999999946e-01
3.950000000000000000e+02,5.789226899999999620e-01
3.960000000000000000e+02,5.789222099999999926e-01
3.970000000000000000e+02,5.789218499999999601e-01
3.980000000000000000e+02,5.789215599999999462e-01
3.990000000000000000e+02,5.789212599999999931e-01
