# Time [s], Mass [Kg]
1.000000000000000000e+00,1.000000000000000000e+00
2.000000000000000000e+00,1.000000000000000000e+00
3.000000000000000000e+00,1.000000000000000000e+00
4.000000000000000000e+00,1.000000000000000000e+00
5.000000000000000000e+00,1.000000000000000000e+00
6.000000000000000000e+00,9.999998799999999521e-01
7.000000000000000000e+00,9.999988100000000157e-01
8.000000000000000000e+00,9.999924900000000116e-01
9.000000000000000000e+00,9.999639999999999640e-01
1.000000000000000000e+01,9.998645800000000028e-01
1.100000000000000000e+01,9.995912900000000212e-01
1.200000000000000000e+01,9.989758100000000196e-01
1.300000000000000000e+01,9.978465399999999486e-01
1.400000000000000000e+01,9.961904299999999601e-01
1.500000000000000000e+01,9.942288999999999710e-01
1.600000000000000000e+01,9.921545999999999976e-01
1.700000000000000000e+01,9.900838699999999770e-01
1.800000000000000000e+01,9.880827100000000307e-01
1.900000000000000000e+01,9.860238999999999532e-01
2.000000000000000000e+01,9.838654399999999800e-01
2.100000000000000000e+01,9.804148700000000494e-01
2.200000000000000000e+01,9.783713800000000127e-01
2.300000000000000000e+01,9.762007000000000323e-01
2.400000000000000000e+01,9.738533499999999510e-01
2.500000000000000000e+01,9.715958199999999989e-01
2.600000000000000000e+01,9.692980599999999614e-01
2.700000000000000000e+01,9.670635499999999940e-01
2.800000000000000000e+01,9.647998199999999747e-01
2.900000000000000000e+01,9.625028399999999706e-01
3.000000000000000000e+01,9.601613300000000351e-01
3.100000000000000000e+01,9.577971699999999755e-01
3.200000000000000000e+01,9.554388499999999507e-01
3.300000000000000000e+01,9.531109899999999913e-01
3.400000000000000000e+01,9.508197299999999741e-01
3.500000000000000000e+01,9.485493900000000478e-01
3.600000000000000000e+01,9.462824499999999972e-01
3.700000000000000000e+01,9.440036400000000327e-01
3.800000000000000000e+01,9.417113099999999681e-01
3.900000000000000000e+01,9.394163500000000111e-01
4.000000000000000000e+01,9.371344999999999814e-01
4.100000000000000000e+01,9.348770400000000480e-01
4.200000000000000000e+01,9.326457999999999693e-01
4.300000000000000000e+01,9.304346999999999479e-01
4.400000000000000000e+01,9.282324899999999657e-01
4.500000000000000000e+01,9.260308699999999504e-01
4.600000000000000000e+01,9.238275299999999524e-01
4.700000000000000000e+01,9.216265099999999544e-01
4.800000000000000000e+01,9.194358599999999937e-01
4.900000000000000000e+01,9.172624900000000414e-01
5.000000000000000000e+01,9.151092199999999455e-01
5.100000000000000000e+01,9.129738800000000154e-01
5.200000000000000000e+01,9.108511799999999825e-01
5.300000000000000000e+01,9.087355099999999686e-01
5.400000000000000000e+01,9.066230100000000069e-01
5.500000000000000000e+01,9.045141300000000273e-01
5.600000000000000000e+01,9.024120599999999603e-01
5.700000000000000000e+01,9.003208900000000403e-01
5.800000000000000000e+01,8.982436099999999701e-01
5.900000000000000000e+01,8.961811100000000030e-01
6.000000000000000000e+01,8.941314200000000101e-01
6.100000000000000000e+01,8.920915099999999764e-01
6.200000000000000000e+01,8.900580399999999948e-01
6.300000000000000000e+01,8.879400499999999807e-01
6.400000000000000000e+01,8.858373800000000076e-01
6.500000000000000000e+01,8.837451299999999899e-01
6.600000000000000000e+01,8.816759600000000363e-01
6.700000000000000000e+01,8.796283599999999980e-01
6.800000000000000000e+01,8.775992999999999711e-01
6.900000000000000000e+01,8.755854400000000481e-01
7.000000000000000000e+01,8.735827800000000032e-01
7.100000000000000000e+01,8.715879300000000107e-01
7.200000000000000000e+01,8.695986900000000075e-01
7.300000000000000000e+01,8.676139699999999566e-01
7.400000000000000000e+01,8.656340799999999724e-01
7.500000000000000000e+01,8.636596800000000407e-01
7.600000000000000000e+01,8.616914700000000149e-01
7.700000000000000000e+01,8.597296500000000119e-01
7.800000000000000000e+01,8.577734200000000087e-01
7.900000000000000000e+01,8.558214299999999941e-01
8.000000000000000000e+01,8.538720600000000438e-01
8.100000000000000000e+01,8.519238799999999667e-01
8.200000000000000000e+01,8.499761799999999701e-01
8.300000000000000000e+01,8.480286599999999897e-01
8.400000000000000000e+01,8.460815499999999600e-01
8.500000000000000000e+01,8.441352800000000434e-01
8.600000000000000000e+01,8.421898500000000176e-01
8.700000000000000000e+01,8.402450700000000383e-01
8.800000000000000000e+01,8.383001100000000427e-01
8.900000000000000000e+01,8.363538400000000150e-01
9.000000000000000000e+01,8.344053000000000164e-01
9.100000000000000000e+01,8.324534300000000497e-01
9.200000000000000000e+01,8.304977999999999527e-01
9.300000000000000000e+01,8.285380599999999651e-01
9.400000000000000000e+01,8.265740900000000391e-01
9.500000000000000000e+01,8.246058200000000449e-01
9.600000000000000000e+01,8.226329700000000189e-01
9.700000000000000000e+01,8.206549300000000047e-01
9.800000000000000000e+01,8.186708700000000505e-01
9.900000000000000000e+01,8.166798400000000457e-01
1.000000000000000000e+02,8.146808700000000014e-01
1.010000000000000000e+02,8.126733299999999716e-01
1.020000000000000000e+02,8.106565500000000313e-01
1.030000000000000000e+02,8.086299900000000207e-01
1.040000000000000000e+02,8.065932999999999575e-01
1.050000000000000000e+02,8.045458800000000466e-01
1.060000000000000000e+02,8.024870800000000193e-01
1.070000000000000000e+02,8.004160500000000456e-01
1.080000000000000000e+02,7.983318600000000043e-01
1.090000000000000000e+02,7.962334800000000490e-01
1.100000000000000000e+02,7.940666699999999745e-01
1.110000000000000000e+02,7.919005799999999651e-01
1.120000000000000000e+02,7.897252999999999634e-01
1.130000000000000000e+02,7.875374600000000225e-01
1.140000000000000000e+02,7.853340500000000057e-01
1.150000000000000000e+02,7.831132400000000438e-01
1.160000000000000000e+02,7.808731199999999761e-01
1.170000000000000000e+02,7.786120199999999603e-01
1.180000000000000000e+02,7.763282700000000425e-01
1.190000000000000000e+02,7.740202000000000471e-01
1.200000000000000000e+02,7.716863200000000367e-01
1.210000000000000000e+02,7.693248999999999782e-01
1.220000000000000000e+02,7.669342199999999998e-01
1.230000000000000000e+02,7.645124800000000498e-01
1.240000000000000000e+02,7.620575400000000332e-01
1.250000000000000000e+02,7.595673800000000142e-01
1.260000000000000000e+02,7.570396099999999739e-01
1.270000000000000000e+02,7.544716599999999884e-01
1.280000000000000000e+02,7.518610399999999805e-01
1.290000000000000000e+02,7.492049299999999912e-01
1.300000000000000000e+02,7.465004299999999926e-01
1.310000000000000000e+02,7.437444899999999803e-01
1.320000000000000000e+02,7.409339000000000341e-01
1.330000000000000000e+02,7.380653600000000036e-01
1.340000000000000000e+02,7.351356100000000504e-01
1.350000000000000000e+02,7.321412600000000159e-01
1.360000000000000000e+02,7.290793100000000360e-01
1.370000000000000000e+02,7.259467800000000137e-01
1.380000000000000000e+02,7.227413099999999702e-01
1.390000000000000000e+02,7.194610799999999751e-01
1.400000000000000000e+02,7.161048700000000045e-01
1.410000000000000000e+02,7.126725299999999708e-01
1.420000000000000000e+02,7.091652200000000406e-01
1.430000000000000000e+02,7.055851800000000340e-01
1.440000000000000000e+02,7.019361899999999599e-01
1.450000000000000000e+02,6.981678000000000051e-01
1.460000000000000000e+02,6.943579300000000121e-01
1.470000000000000000e+02,6.905077699999999652e-01
1.480000000000000000e+02,6.866232799999999470e-01
1.490000000000000000e+02,6.827130300000000540e-01
1.500000000000000000e+02,6.787872299999999637e-01
1.510000000000000000e+02,6.748568999999999818e-01
1.520000000000000000e+02,6.709333100000000050e-01
1.530000000000000000e+02,6.670280100000000045e-01
1.540000000000000000e+02,6.631520400000000537e-01
1.550000000000000000e+02,6.593161800000000294e-01
1.560000000000000000e+02,6.555306899999999715e-01
1.570000000000000000e+02,6.518053999999999792e-01
1.580000000000000000e+02,6.481497299999999795e-01
1.590000000000000000e+02,6.445725599999999611e-01
1.600000000000000000e+02,6.410824099999999914e-01
1.610000000000000000e+02,6.376874399999999943e-01
1.620000000000000000e+02,6.343952400000000269e-01
1.630000000000000000e+02,6.312128900000000264e-01
1.640000000000000000e+02,6.281469499999999817e-01
1.650000000000000000e+02,6.252030100000000035e-01
1.660000000000000000e+02,6.223860399999999737e-01
1.670000000000000000e+02,6.196996599999999855e-01
1.680000000000000000e+02,6.171465499999999604e-01
1.690000000000000000e+02,6.147282099999999971e-01
1.700000000000000000e+02,6.124447600000000325e-01
1.710000000000000000e+02,6.102952400000000166e-01
1.720000000000000000e+02,6.082774399999999471e-01
1.730000000000000000e+02,6.063883300000000309e-01
1.740000000000000000e+02,6.046218300000000268e-01
1.750000000000000000e+02,6.029745300000000086e-01
1.760000000000000000e+02,6.014413199999999460e-01
1.770000000000000000e+02,6.000164199999999948e-01
1.780000000000000000e+02,5.986937900000000035e-01
1.790000000000000000e+02,5.974671200000000182e-01
1.800000000000000000e+02,5.963301100000000243e-01
1.810000000000000000e+02,5.952765899999999943e-01
1.820000000000000000e+02,5.943005099999999485e-01
1.830000000000000000e+02,5.933961899999999901e-01
1.840000000000000000e+02,5.925580299999999578e-01
1.850000000000000000e+02,5.917809000000000541e-01
1.860000000000000000e+02,5.910599800000000403e-01
1.870000000000000000e+02,5.903907999999999934e-01
1.880000000000000000e+02,5.897691800000000040e-01
1.890000000000000000e+02,5.891912599999999944e-01
1.900000000000000000e+02,5.886535000000000517e-01
1.910000000000000000e+02,5.881525899999999751e-01
1.920000000000000000e+02,5.876856400000000091e-01
1.930000000000000000e+02,5.872499300000000311e-01
1.940000000000000000e+02,5.868428900000000059e-01
1.950000000000000000e+02,5.864623199999999814e-01
1.960000000000000000e+02,5.861060599999999843e-01
1.970000000000000000e+02,5.857722800000000341e-01
1.980000000000000000e+02,5.854592299999999971e-01
1.990000000000000000e+02,5.851653799999999572e-01
2.000000000000000000e+02,5.848891699999999583e-01
2.010000000000000000e+02,5.846293599999999868e-01
2.020000000000000000e+02,5.843847399999999581e-01
2.030000000000000000e+02,5.841541900000000176e-01
2.040000000000000000e+02,5.839366900000000360e-01
2.050000000000000000e+02,5.837313499999999822e-01
2.060000000000000000e+02,5.835372800000000471e-01
2.070000000000000000e+02,5.833537600000000545e-01
2.080000000000000000e+02,5.831799500000000025e-01
2.090000000000000000e+02,5.830153799999999720e-01
2.100000000000000000e+02,5.828592799999999796e-01
2.110000000000000000e+02,5.827111600000000058e-01
2.120000000000000000e+02,5.825704900000000519e-01
2.130000000000000000e+02,5.824367999999999768e-01
2.140000000000000000e+02,5.823096599999999512e-01
2.150000000000000000e+02,5.821886699999999637e-01
2.160000000000000000e+02,5.820734499999999922e-01
2.170000000000000000e+02,5.819636000000000253e-01
2.180000000000000000e+02,5.818588700000000280e-01
2.190000000000000000e+02,5.817589199999999572e-01
2.200000000000000000e+02,5.816634299999999813e-01
2.210000000000000000e+02,5.815722300000000233e-01
2.220000000000000000e+02,5.814850299999999583e-01
2.230000000000000000e+02,5.814016499999999921e-01
2.240000000000000000e+02,5.813217800000000102e-01
2.250000000000000000e+02,5.812452999999999648e-01
2.260000000000000000e+02,5.811720500000000511e-01
2.270000000000000000e+02,5.811017800000000122e-01
2.280000000000000000e+02,5.810343599999999720e-01
2.290000000000000000e+02,5.809696899999999831e-01
2.300000000000000000e+02,5.809075799999999790e-01
2.310000000000000000e+02,5.808479199999999620e-01
2.320000000000000000e+02,5.807905799999999452e-01
2.330000000000000000e+02,5.807353899999999625e-01
2.340000000000000000e+02,5.806823399999999635e-01
2.350000000000000000e+02,5.806312599999999824e-01
2.360000000000000000e+02,5.805820800000000004e-01
2.370000000000000000e+02,5.805346999999999591e-01
2.380000000000000000e+02,5.804890400000000117e-01
2.390000000000000000e+02,5.804450500000000179e-01
2.400000000000000000e+02,5.804025499999999615e-01
2.410000000000000000e+02,5.803616000000000330e-01
2.420000000000000000e+02,5.803220300000000442e-01
2.430000000000000000e+02,5.802838799999999742e-01
2.440000000000000000e+02,5.802469799999999678e-01
2.450000000000000000e+02,5.802112799999999959e-01
2.460000000000000000e+02,5.801768299999999767e-01
2.470000000000000000e+02,5.801434500000000050e-01
2.480000000000000000e+02,5.801112099999999883e-01
2.490000000000000000e+02,5.800799700000000003e-01
2.500000000000000000e+02,5.800497500000000306e-01
2.510000000000000000e+02,5.800204899999999997e-01
2.520000000000000000e+02,5.799921199999999999e-01
2.530000000000000000e+02,5.799646400000000313e-01
2.540000000000000000e+02,5.799379900000000143e-01
2.550000000000000000e+02,5.799121900000000496e-01
2.560000000000000000e+02,5.798871500000000179e-01
2.570000000000000000e+02,5.798628300000000513e-01
2.580000000000000000e+02,5.798392300000000388e-01
2.590000000000000000e+02,5.798163400000000411e-01
2.600000000000000000e+02,5.797940499999999497e-01
2.610000000000000000e+02,5.797724699999999842e-01
2.620000000000000000e+02,5.797514900000000360e-01
2.630000000000000000e+02,5.797310500000000255e-01
2.640000000000000000e+02,5.797111999999999821e-01
2.650000000000000000e+02,5.796919499999999559e-01
2.660000000000000000e+02,5.796731699999999599e-01
2.670000000000000000e+02,5.796548700000000443e-01
2.680000000000000000e+02,5.796371099999999554e-01
2.690000000000000000e+02,5.796198200000000078e-01
2.700000000000000000e+02,5.796029600000000004e-01
2.710000000000000000e+02,5.795865700000000231e-01
2.720000000000000000e+02,5.795705899999999966e-01
2.730000000000000000e+02,5.795550299999999710e-01
2.740000000000000000e+02,5.795398400000000283e-01
2.750000000000000000e+02,5.795250499999999860e-01
2.760000000000000000e+02,5.795106300000000266e-01
2.770000000000000000e+02,5.794965600000000494e-01
2.780000000000000000e+02,5.794828499999999938e-01
2.790000000000000000e+02,5.794694999999999707e-01
2.800000000000000000e+02,5.794564500000000118e-01
2.810000000000000000e+02,5.794436899999999557e-01
2.820000000000000000e+02,5.794312400000000141e-01
2.830000000000000000e+02,5.794190799999999753e-01
2.840000000000000000e+02,5.794072200000000006e-01
2.850000000000000000e+02,5.793955899999999604e-01
2.860000000000000000e+02,5.793842700000000345e-01
2.870000000000000000e+02,5.793732400000000116e-01
2.880000000000000000e+02,5.793623900000000049e-01
2.890000000000000000e+02,5.793518399999999513e-01
2.900000000000000000e+02,5.793414700000000250e-01
2.910000000000000000e+02,5.793313399999999724e-01
2.920000000000000000e+02,5.793214399999999653e-01
2.930000000000000000e+02,5.793117899999999931e-01
2.940000000000000000e+02,5.793023099999999870e-01
2.950000000000000000e+02,5.792930699999999655e-01
2.960000000000000000e+02,5.792840099999999603e-01
2.970000000000000000e+02,5.792751299999999715e-01
2.980000000000000000e+02,5.792664299999999988e-01
2.990000000000000000e+02,5.792579100000000425e-01
3.000000000000000000e+02,5.792495600000000522e-01
3.010000000000000000e+02,5.792413899999999671e-01
3.020000000000000000e+02,5.792334099999999486e-01
3.030000000000000000e+02,5.792256000000000071e-01
3.040000000000000000e+02,5.792179100000000025e-01
3.050000000000000000e+02,5.792103400000000457e-01
3.060000000000000000e+02,5.792029499999999942e-01
3.070000000000000000e+02,5.791957399999999589e-01
3.080000000000000000e+02,5.791886400000000323e-01
3.090000000000000000e+02,5.791816699999999818e-01
3.100000000000000000e+02,5.791748799999999475e-01
3.110000000000000000e+02,5.791681400000000535e-01
3.120000000000000000e+02,5.791615799999999536e-01
3.130000000000000000e+02,5.791551499999999519e-01
3.140000000000000000e+02,5.791488299999999478e-01
3.150000000000000000e+02,5.791426299999999916e-01
3.160000000000000000e+02,5.791364900000000038e-01
3.170000000000000000e+02,5.791305300000000322e-01
3.180000000000000000e+02,5.791246300000000291e-01
3.190000000000000000e+02,5.791188499999999628e-01
3.200000000000000000e+02,5.791131900000000554e-01
3.210000000000000000e+02,5.791076400000000346e-01
3.220000000000000000e+02,5.791021600000000324e-01
3.230000000000000000e+02,5.790967900000000279e-01
3.240000000000000000e+02,5.790914900000000420e-01
3.250000000000000000e+02,5.790863000000000538e-01
3.260000000000000000e+02,5.790811799999999732e-01
3.270000000000000000e+02,5.790761700000000012e-01
3.280000000000000000e+02,5.790712799999999660e-01
3.290000000000000000e+02,5.790663999999999811e-01
3.300000000000000000e+02,5.790616299999999939e-01
3.310000000000000000e+02,5.790569800000000544e-01
3.320000000000000000e+02,5.790523300000000040e-01
3.330000000000000000e+02,5.790478000000000014e-01
3.340000000000000000e+02,5.790433299999999672e-01
3.350000000000000000e+02,5.790389799999999809e-01
3.360000000000000000e+02,5.790346299999999946e-01
3.370000000000000000e+02,5.790303900000000059e-01
3.380000000000000000e+02,5.790262200000000359e-01
3.390000000000000000e+02,5.790221100000000343e-01
3.400000000000000000e+02,5.790180600000000011e-01
3.410000000000000000e+02,5.790140599999999971e-01
3.420000000000000000e+02,5.790101300000000117e-01
3.430000000000000000e+02,5.790062499999999446e-01
3.440000000000000000e+02,5.790024400000000071e-01
3.450000000000000000e+02,5.789986799999999878e-01
3.460000000000000000e+02,5.789949899999999872e-01
3.470000000000000000e+02,5.789913500000000157e-01
3.480000000000000000e+02,5.789877799999999519e-01
3.490000000000000000e+02,5.789842600000000283e-01
3.500000000000000000e+02,5.789807399999999937e-01
3.510000000000000000e+02,5.789773499999999462e-01
3.520000000000000000e+02,5.789739499999999595e-01
3.530000000000000000e+02,5.789706100000000522e-01
3.540000000000000000e+02,5.789673300000000022e-01
3.550000000000000000e+02,5.789641100000000318e-01
3.560000000000000000e+02,5.789609599999999690e-01
3.570000000000000000e+02,5.789577999999999669e-01
3.580000000000000000e+02,5.789547000000000443e-01
3.590000000000000000e+02,5.789516000000000107e-01
3.600000000000000000e+02,5.789486200000000249e-01
3.610000000000000000e+02,5.789456400000000391e-01
3.620000000000000000e+02,5.789427200000000218e-01
3.630000000000000000e+02,5.789398000000000044e-01
3.640000000000000000e+02,5.789369300000000162e-01
3.650000000000000000e+02,5.789341300000000468e-01
3.660000000000000000e+02,5.789313900000000457e-01
3.670000000000000000e+02,5.789286500000000446e-01
3.680000000000000000e+02,5.789259100000000435e-01
3.690000000000000000e+02,5.789232899999999793e-01
3.700000000000000000e+02,5.789206000000000074e-01
3.710000000000000000e+02,5.789180400000000226e-01
3.720000000000000000e+02,5.789154800000000378e-01
3.730000000000000000e+02,5.789129100000000028e-01
3.740000000000000000e+02,5.789104099999999864e-01
3.750000000000000000e+02,5.789079700000000495e-01
3.760000000000000000e+02,5.789055199999999513e-01
3.770000000000000000e+02,5.789031399999999827e-01
3.780000000000000000e+02,5.789007499999999640e-01
3.790000000000000000e+02,5.788983699999999954e-01
3.800000000000000000e+02,5.788961099999999638e-01
3.810000000000000000e+02,5.788937800000000244e-01
3.820000000000000000e+02,5.788915199999999928e-01
3.830000000000000000e+02,5.788893099999999903e-01
3.840000000000000000e+02,5.788870999999999878e-01
3.850000000000000000e+02,5.788849000000000355e-01
3.860000000000000000e+02,5.788827500000000015e-01
3.870000000000000000e+02,5.788806100000000177e-01
3.880000000000000000e+02,5.788785199999999520e-01
3.890000000000000000e+02,5.788764400000000476e-01
3.900000000000000000e+02,5.788744099999999504e-01
3.910000000000000000e+02,5.788723799999999642e-01
3.920000000000000000e+02,5.788703600000000282e-01
3.930000000000000000e+02,5.788683900000000104e-01
3.940000000000000000e+02,5.788664199999999926e-01
3.950000000000000000e+02,5.788644600000000251e-01
3.960000000000000000e+02,5.788625499999999757e-01
3.970000000000000000e+02,5.788606400000000374e-01
3.980000000000000000e+02,5.788587899999999564e-01
3.990000000000000000e+02,5.788569500000000367e-01
