# Time [s], Thickness [m]
1.000000000000000000e+00,8.000000400000000303e-03
2.000000000000000000e+00,8.000000400000000303e-03
3.000000000000000000e+00,8.000000400000000303e-03
4.000000000000000000e+00,8.000000400000000303e-03
5.000000000000000000e+00,8.000000400000000303e-03
6.000000000000000000e+00,8.000000400000000303e-03
7.000000000000000000e+00,8.000000400000000303e-03
8.000000000000000000e+00,8.000000400000000303e-03
9.000000000000000000e+00,8.000000400000000303e-03
1.000000000000000000e+01,8.000000400000000303e-03
1.100000000000000000e+01,8.000000400000000303e-03
1.200000000000000000e+01,7.999999400000000829e-03
1.300000000000000000e+01,7.999999400000000829e-03
1.400000000000000000e+01,7.999998499999999221e-03
1.500000000000000000e+01,7.999997599999999348e-03
1.600000000000000000e+01,7.999994800000000128e-03
1.700000000000000000e+01,7.999990099999999826e-03
1.800000000000000000e+01,7.999981800000000032e-03
1.900000000000000000e+01,7.999966900000000589e-03
2.000000000000000000e+01,7.999942600000000542e-03
2.100000000000000000e+01,7.999904500000000127e-03
2.200000000000000000e+01,7.999844799999999284e-03
2.300000000000000000e+01,7.999757300000000237e-03
2.400000000000000000e+01,7.999630599999999966e-03
2.500000000000000000e+01,7.999451799999999710e-03
2.600000000000000000e+01,7.999206899999999898e-03
2.700000000000000000e+01,7.998875299999999577e-03
2.800000000000000000e+01,7.998438599999999413e-03
2.900000000000000000e+01,7.997872300000000156e-03
3.000000000000000000e+01,7.997151500000000690e-03
3.100000000000000000e+01,7.996250899999999759e-03
3.200000000000000000e+01,7.995147299999999860e-03
3.300000000000000000e+01,7.993815499999999338e-03
3.400000000000000000e+01,7.992237799999999531e-03
3.500000000000000000e+01,7.990403099999999689e-03
3.600000000000000000e+01,7.988294599999999288e-03
3.700000000000000000e+01,7.985917900000000236e-03
3.800000000000000000e+01,7.983277599999999766e-03
3.900000000000000000e+01,7.980366200000000090e-03
4.000000000000000000e+01,7.977213699999999297e-03
4.100000000000000000e+01,7.973839499999999664e-03
4.200000000000000000e+01,7.970231600000000569e-03
4.300000000000000000e+01,7.966441100000000788e-03
4.400000000000000000e+01,7.962489499999999415e-03
4.500000000000000000e+01,7.957654999999999243e-03
4.600000000000000000e+01,7.953364399999999362e-03
4.700000000000000000e+01,7.948858700000000291e-03
4.800000000000000000e+01,7.944290499999999422e-03
4.900000000000000000e+01,7.939634799999999507e-03
5.000000000000000000e+01,7.934931699999999907e-03
5.100000000000000000e+01,7.930121400000000181e-03
5.200000000000000000e+01,7.925283199999999181e-03
5.300000000000000000e+01,7.920414199999999821e-03
5.400000000000000000e+01,7.915468000000000157e-03
5.500000000000000000e+01,7.910509600000000668e-03
5.600000000000000000e+01,7.905532599999999174e-03
5.700000000000000000e+01,7.900493200000000688e-03
5.800000000000000000e+01,7.895442699999999717e-03
5.900000000000000000e+01,7.890376299999999829e-03
6.000000000000000000e+01,7.885255900000000609e-03
6.100000000000000000e+01,7.880121500000000084e-03
6.200000000000000000e+01,7.874973999999999863e-03
6.300000000000000000e+01,7.869785699999999606e-03
6.400000000000000000e+01,7.864585099999999926e-03
6.500000000000000000e+01,7.859379999999999145e-03
6.600000000000000000e+01,7.854151499999999925e-03
6.700000000000000000e+01,7.848920299999999350e-03
6.800000000000000000e+01,7.843694599999999351e-03
6.900000000000000000e+01,7.838461499999999429e-03
7.000000000000000000e+01,7.833234999999999157e-03
7.100000000000000000e+01,7.828019599999999634e-03
7.200000000000000000e+01,7.822805999999999857e-03
7.300000000000000000e+01,7.817601800000000684e-03
7.400000000000000000e+01,7.812409200000000262e-03
7.500000000000000000e+01,7.807220299999999800e-03
7.600000000000000000e+01,7.802037999999999855e-03
7.700000000000000000e+01,7.796864500000000309e-03
7.800000000000000000e+01,7.791693799999999982e-03
7.900000000000000000e+01,7.786527300000000221e-03
8.000000000000000000e+01,7.781366799999999903e-03
8.100000000000000000e+01,7.776209600000000277e-03
8.200000000000000000e+01,7.771056099999999744e-03
8.300000000000000000e+01,7.765909199999999728e-03
8.400000000000000000e+01,7.760767400000000149e-03
8.500000000000000000e+01,7.755631100000000278e-03
8.600000000000000000e+01,7.750502299999999928e-03
8.700000000000000000e+01,7.745380500000000230e-03
8.800000000000000000e+01,7.740265700000000318e-03
8.900000000000000000e+01,7.735158300000000327e-03
9.000000000000000000e+01,7.730057499999999984e-03
9.100000000000000000e+01,7.724962200000000216e-03
9.200000000000000000e+01,7.719873000000000360e-03
9.300000000000000000e+01,7.714786999999999860e-03
9.400000000000000000e+01,7.709704799999999789e-03
9.500000000000000000e+01,7.704624900000000068e-03
9.600000000000000000e+01,7.699545900000000220e-03
9.700000000000000000e+01,7.694467899999999846e-03
9.800000000000000000e+01,7.689389900000000340e-03
9.900000000000000000e+01,7.684310899999999625e-03
1.000000000000000000e+02,7.679230999999999904e-03
1.010000000000000000e+02,7.674149699999999706e-03
1.020000000000000000e+02,7.669066999999999898e-03
1.030000000000000000e+02,7.663981999999999739e-03
1.040000000000000000e+02,7.658895100000000233e-03
1.050000000000000000e+02,7.653805900000000377e-03
1.060000000000000000e+02,7.648713900000000433e-03
1.070000000000000000e+02,7.643619100000000402e-03
1.080000000000000000e+02,7.638520099999999806e-03
1.090000000000000000e+02,7.633416399999999775e-03
1.100000000000000000e+02,7.628308599999999648e-03
1.110000000000000000e+02,7.623194300000000340e-03
1.120000000000000000e+02,7.618073799999999784e-03
1.130000000000000000e+02,7.612945999999999776e-03
1.140000000000000000e+02,7.607809699999999904e-03
1.150000000000000000e+02,7.602665100000000238e-03
1.160000000000000000e+02,7.597510699999999832e-03
1.170000000000000000e+02,7.592346100000000285e-03
1.180000000000000000e+02,7.587171200000000261e-03
1.190000000000000000e+02,7.581985099999999887e-03
1.200000000000000000e+02,7.576786900000000158e-03
1.210000000000000000e+02,7.571577099999999942e-03
1.220000000000000000e+02,7.566354200000000030e-03
1.230000000000000000e+02,7.561118799999999758e-03
1.240000000000000000e+02,7.555869899999999653e-03
1.250000000000000000e+02,7.550606999999999978e-03
1.260000000000000000e+02,7.545328700000000256e-03
1.270000000000000000e+02,7.540035500000000224e-03
1.280000000000000000e+02,7.534248799999999739e-03
1.290000000000000000e+02,7.528435400000000124e-03
1.300000000000000000e+02,7.522701799999999966e-03
1.310000000000000000e+02,7.517056499999999995e-03
1.320000000000000000e+02,7.511431399999999974e-03
1.330000000000000000e+02,7.505833600000000154e-03
1.340000000000000000e+02,7.500238299999999886e-03
1.350000000000000000e+02,7.494641899999999676e-03
1.360000000000000000e+02,7.489038600000000150e-03
1.370000000000000000e+02,7.483421799999999922e-03
1.380000000000000000e+02,7.477791499999999862e-03
1.390000000000000000e+02,7.472142600000000398e-03
1.400000000000000000e+02,7.466475000000000195e-03
1.410000000000000000e+02,7.460785999999999633e-03
1.420000000000000000e+02,7.455074699999999707e-03
1.430000000000000000e+02,7.449339600000000339e-03
1.440000000000000000e+02,7.443580299999999657e-03
1.450000000000000000e+02,7.437794900000000049e-03
1.460000000000000000e+02,7.431982600000000376e-03
1.470000000000000000e+02,7.426142200000000228e-03
1.480000000000000000e+02,7.420273500000000404e-03
1.490000000000000000e+02,7.414374999999999959e-03
1.500000000000000000e+02,7.408446200000000023e-03
1.510000000000000000e+02,7.402485700000000120e-03
1.520000000000000000e+02,7.396493100000000112e-03
1.530000000000000000e+02,7.390467000000000390e-03
1.540000000000000000e+02,7.384406399999999746e-03
1.550000000000000000e+02,7.378310899999999777e-03
1.560000000000000000e+02,7.372179500000000142e-03
1.570000000000000000e+02,7.366011399999999702e-03
1.580000000000000000e+02,7.359805100000000114e-03
1.590000000000000000e+02,7.353560099999999905e-03
1.600000000000000000e+02,7.347275500000000070e-03
1.610000000000000000e+02,7.340949999999999732e-03
1.620000000000000000e+02,7.334582499999999818e-03
1.630000000000000000e+02,7.328171700000000316e-03
1.640000000000000000e+02,7.321716800000000087e-03
1.650000000000000000e+02,7.315217100000000194e-03
1.660000000000000000e+02,7.308670300000000286e-03
1.670000000000000000e+02,7.302076600000000431e-03
1.680000000000000000e+02,7.295433900000000346e-03
1.690000000000000000e+02,7.288741399999999759e-03
1.700000000000000000e+02,7.281997699999999928e-03
1.710000000000000000e+02,7.275201799999999643e-03
1.720000000000000000e+02,7.268351999999999626e-03
1.730000000000000000e+02,7.261448099999999808e-03
1.740000000000000000e+02,7.254487799999999841e-03
1.750000000000000000e+02,7.247471299999999790e-03
1.760000000000000000e+02,7.240395999999999638e-03
1.770000000000000000e+02,7.233262100000000319e-03
1.780000000000000000e+02,7.226067600000000285e-03
1.790000000000000000e+02,7.218811700000000130e-03
1.800000000000000000e+02,7.211493799999999649e-03
1.810000000000000000e+02,7.204113100000000304e-03
1.820000000000000000e+02,7.196668100000000283e-03
1.830000000000000000e+02,7.189158400000000317e-03
1.840000000000000000e+02,7.181583899999999937e-03
1.850000000000000000e+02,7.173943300000000002e-03
1.860000000000000000e+02,7.166236599999999644e-03
1.870000000000000000e+02,7.158463799999999731e-03
1.880000000000000000e+02,7.150624399999999659e-03
1.890000000000000000e+02,7.142718000000000157e-03
1.900000000000000000e+02,7.134745799999999902e-03
1.910000000000000000e+02,7.126707599999999691e-03
1.920000000000000000e+02,7.118603700000000062e-03
1.930000000000000000e+02,7.110105799999999650e-03
1.940000000000000000e+02,7.101624699999999762e-03
1.950000000000000000e+02,7.093134800000000344e-03
1.960000000000000000e+02,7.084620199999999875e-03
1.970000000000000000e+02,7.076073900000000305e-03
1.980000000000000000e+02,7.067490800000000330e-03
1.990000000000000000e+02,7.058867699999999724e-03
2.000000000000000000e+02,7.050203199999999747e-03
2.010000000000000000e+02,7.041496700000000192e-03
2.020000000000000000e+02,7.032748299999999793e-03
2.030000000000000000e+02,7.023958999999999758e-03
2.040000000000000000e+02,7.015130500000000234e-03
2.050000000000000000e+02,7.006264300000000431e-03
2.060000000000000000e+02,6.997362200000000095e-03
2.070000000000000000e+02,6.988427600000000385e-03
2.080000000000000000e+02,6.979461799999999577e-03
2.090000000000000000e+02,6.970468900000000370e-03
2.100000000000000000e+02,6.961450899999999976e-03
2.110000000000000000e+02,6.952411500000000091e-03
2.120000000000000000e+02,6.943353499999999935e-03
2.130000000000000000e+02,6.934279599999999995e-03
2.140000000000000000e+02,6.925193599999999831e-03
2.150000000000000000e+02,6.916098300000000400e-03
2.160000000000000000e+02,6.906996500000000053e-03
2.170000000000000000e+02,6.897891899999999618e-03
2.180000000000000000e+02,6.888786800000000314e-03
2.190000000000000000e+02,6.879684500000000230e-03
2.200000000000000000e+02,6.870587400000000185e-03
2.210000000000000000e+02,6.861498599999999934e-03
2.220000000000000000e+02,6.852420500000000296e-03
2.230000000000000000e+02,6.843354999999999751e-03
2.240000000000000000e+02,6.834305399999999857e-03
2.250000000000000000e+02,6.825273399999999893e-03
2.260000000000000000e+02,6.816260999999999674e-03
2.270000000000000000e+02,6.807270500000000418e-03
2.280000000000000000e+02,6.798303200000000400e-03
2.290000000000000000e+02,6.789361600000000038e-03
2.300000000000000000e+02,6.780447000000000210e-03
2.310000000000000000e+02,6.771561199999999794e-03
2.320000000000000000e+02,6.762705299999999600e-03
2.330000000000000000e+02,6.753880500000000037e-03
2.340000000000000000e+02,6.745089299999999788e-03
2.350000000000000000e+02,6.736331600000000121e-03
2.360000000000000000e+02,6.727609300000000382e-03
2.370000000000000000e+02,6.718923299999999578e-03
2.380000000000000000e+02,6.710274599999999784e-03
2.390000000000000000e+02,6.701664500000000142e-03
2.400000000000000000e+02,6.692879799999999942e-03
2.410000000000000000e+02,6.684179900000000035e-03
2.420000000000000000e+02,6.675551600000000259e-03
2.430000000000000000e+02,6.666987200000000155e-03
2.440000000000000000e+02,6.658483300000000299e-03
2.450000000000000000e+02,6.650036699999999600e-03
2.460000000000000000e+02,6.641646400000000318e-03
2.470000000000000000e+02,6.633311499999999979e-03
2.480000000000000000e+02,6.625030700000000307e-03
2.490000000000000000e+02,6.616804300000000104e-03
2.500000000000000000e+02,6.608632399999999837e-03
2.510000000000000000e+02,6.600515000000000375e-03
2.520000000000000000e+02,6.592452500000000118e-03
2.530000000000000000e+02,6.584445500000000139e-03
2.540000000000000000e+02,6.576495199999999978e-03
2.550000000000000000e+02,6.568601399999999570e-03
2.560000000000000000e+02,6.560766099999999594e-03
2.570000000000000000e+02,6.552989599999999720e-03
2.580000000000000000e+02,6.545273600000000094e-03
2.590000000000000000e+02,6.537620000000000063e-03
2.600000000000000000e+02,6.530028799999999627e-03
2.610000000000000000e+02,6.522502799999999740e-03
2.620000000000000000e+02,6.515043300000000412e-03
2.630000000000000000e+02,6.507652299999999723e-03
2.640000000000000000e+02,6.500332200000000227e-03
2.650000000000000000e+02,6.493084100000000129e-03
2.660000000000000000e+02,6.485911599999999791e-03
2.670000000000000000e+02,6.478816699999999894e-03
2.680000000000000000e+02,6.471801999999999590e-03
2.690000000000000000e+02,6.464870600000000370e-03
2.700000000000000000e+02,6.458025899999999923e-03
2.710000000000000000e+02,6.451270500000000005e-03
2.720000000000000000e+02,6.444608800000000380e-03
2.730000000000000000e+02,6.438043899999999937e-03
2.740000000000000000e+02,6.431580499999999846e-03
2.750000000000000000e+02,6.425222799999999804e-03
2.760000000000000000e+02,6.418975500000000112e-03
2.770000000000000000e+02,6.412843700000000341e-03
2.780000000000000000e+02,6.406832999999999799e-03
2.790000000000000000e+02,6.400948899999999928e-03
2.800000000000000000e+02,6.395197000000000034e-03
2.810000000000000000e+02,6.389584900000000109e-03
2.820000000000000000e+02,6.384118900000000131e-03
2.830000000000000000e+02,6.378806199999999954e-03
2.840000000000000000e+02,6.373655100000000240e-03
2.850000000000000000e+02,6.368672899999999575e-03
2.860000000000000000e+02,6.363867799999999887e-03
2.870000000000000000e+02,6.359249400000000114e-03
2.880000000000000000e+02,6.354824599999999574e-03
2.890000000000000000e+02,6.350603399999999940e-03
2.900000000000000000e+02,6.346593099999999800e-03
2.910000000000000000e+02,6.342802199999999883e-03
2.920000000000000000e+02,6.339237600000000375e-03
2.930000000000000000e+02,6.335904800000000114e-03
2.940000000000000000e+02,6.332808599999999871e-03
2.950000000000000000e+02,6.329950899999999860e-03
2.960000000000000000e+02,6.327332500000000352e-03
2.970000000000000000e+02,6.324951100000000132e-03
2.980000000000000000e+02,6.322801599999999626e-03
2.990000000000000000e+02,6.320876100000000046e-03
3.000000000000000000e+02,6.319164300000000047e-03
3.010000000000000000e+02,6.317653700000000136e-03
3.020000000000000000e+02,6.316328900000000267e-03
3.030000000000000000e+02,6.315175000000000129e-03
3.040000000000000000e+02,6.314174300000000191e-03
3.050000000000000000e+02,6.313310899999999802e-03
3.060000000000000000e+02,6.312568699999999977e-03
3.070000000000000000e+02,6.311931599999999996e-03
3.080000000000000000e+02,6.311386399999999695e-03
3.090000000000000000e+02,6.310919800000000177e-03
3.100000000000000000e+02,6.310520699999999823e-03
3.110000000000000000e+02,6.310178900000000361e-03
3.120000000000000000e+02,6.309885999999999794e-03
3.130000000000000000e+02,6.309634500000000333e-03
3.140000000000000000e+02,6.309418500000000402e-03
3.150000000000000000e+02,6.309232199999999756e-03
3.160000000000000000e+02,6.309071599999999634e-03
3.170000000000000000e+02,6.308932300000000271e-03
3.180000000000000000e+02,6.308811299999999775e-03
3.190000000000000000e+02,6.308705999999999862e-03
3.200000000000000000e+02,6.308614300000000251e-03
3.210000000000000000e+02,6.308534200000000258e-03
3.220000000000000000e+02,6.308463400000000401e-03
3.230000000000000000e+02,6.308401499999999676e-03
3.240000000000000000e+02,6.308346999999999739e-03
3.250000000000000000e+02,6.308298599999999715e-03
3.260000000000000000e+02,6.308255700000000264e-03
3.270000000000000000e+02,6.308217500000000248e-03
3.280000000000000000e+02,6.308183499999999930e-03
3.290000000000000000e+02,6.308153300000000040e-03
3.300000000000000000e+02,6.308126300000000374e-03
3.310000000000000000e+02,6.308102000000000327e-03
3.320000000000000000e+02,6.308080199999999832e-03
3.330000000000000000e+02,6.308060100000000350e-03
3.340000000000000000e+02,6.308042399999999952e-03
3.350000000000000000e+02,6.308026100000000032e-03
3.360000000000000000e+02,6.308011700000000326e-03
3.370000000000000000e+02,6.307998700000000229e-03
3.380000000000000000e+02,6.307986600000000006e-03
3.390000000000000000e+02,6.307975399999999656e-03
3.400000000000000000e+02,6.307965599999999784e-03
3.410000000000000000e+02,6.307956299999999648e-03
3.420000000000000000e+02,6.307947900000000253e-03
3.430000000000000000e+02,6.307939999999999728e-03
3.440000000000000000e+02,6.307932999999999943e-03
3.450000000000000000e+02,6.307926499999999895e-03
3.460000000000000000e+02,6.307920399999999983e-03
3.470000000000000000e+02,6.307914900000000276e-03
3.480000000000000000e+02,6.307909700000000237e-03
3.490000000000000000e+02,6.307905100000000403e-03
3.500000000000000000e+02,6.307900899999999839e-03
3.510000000000000000e+02,6.307896700000000141e-03
3.520000000000000000e+02,6.307893000000000180e-03
3.530000000000000000e+02,6.307889199999999752e-03
3.540000000000000000e+02,6.307886000000000395e-03
3.550000000000000000e+02,6.307883200000000308e-03
3.560000000000000000e+02,6.307880400000000221e-03
3.570000000000000000e+02,6.307877600000000133e-03
3.580000000000000000e+02,6.307875299999999782e-03
3.590000000000000000e+02,6.307872899999999831e-03
3.600000000000000000e+02,6.307870600000000348e-03
3.610000000000000000e+02,6.307868799999999734e-03
3.620000000000000000e+02,6.307866399999999783e-03
3.630000000000000000e+02,6.307864600000000037e-03
3.640000000000000000e+02,6.307863200000000427e-03
3.650000000000000000e+02,6.307861300000000213e-03
3.660000000000000000e+02,6.307859899999999735e-03
3.670000000000000000e+02,6.307858500000000125e-03
3.680000000000000000e+02,6.307857099999999648e-03
3.690000000000000000e+02,6.307855700000000038e-03
3.700000000000000000e+02,6.307854800000000164e-03
3.710000000000000000e+02,6.307853399999999687e-03
3.720000000000000000e+02,6.307852499999999814e-03
3.730000000000000000e+02,6.307851500000000340e-03
3.740000000000000000e+02,6.307850599999999600e-03
3.750000000000000000e+02,6.307849699999999726e-03
3.760000000000000000e+02,6.307848700000000253e-03
3.770000000000000000e+02,6.307847800000000379e-03
3.780000000000000000e+02,6.307846899999999639e-03
3.790000000000000000e+02,6.307845900000000165e-03
3.800000000000000000e+02,6.307845000000000292e-03
3.810000000000000000e+02,6.307844499999999688e-03
3.820000000000000000e+02,6.307843599999999815e-03
3.830000000000000000e+02,6.307842699999999941e-03
3.840000000000000000e+02,6.307842200000000205e-03
3.850000000000000000e+02,6.307841699999999600e-03
3.860000000000000000e+02,6.307841300000000331e-03
3.870000000000000000e+02,6.307840799999999727e-03
3.880000000000000000e+02,6.307840299999999990e-03
3.890000000000000000e+02,6.307839400000000117e-03
3.900000000000000000e+02,6.307838999999999981e-03
3.910000000000000000e+02,6.307838999999999981e-03
3.920000000000000000e+02,6.307838500000000244e-03
3.930000000000000000e+02,6.307837999999999640e-03
3.940000000000000000e+02,6.307837600000000371e-03
3.950000000000000000e+02,6.307837099999999766e-03
3.960000000000000000e+02,6.307836600000000030e-03
3.970000000000000000e+02,6.307836600000000030e-03
3.980000000000000000e+02,6.307836199999999893e-03
3.990000000000000000e+02,6.307835700000000156e-03
