# Time [s], Convective Heat Transfer Coefficient [W/m2K]
1.000000000000000000e+00,0.000000000000000000e+00
2.000000000000000000e+00,0.000000000000000000e+00
3.000000000000000000e+00,0.000000000000000000e+00
4.000000000000000000e+00,0.000000000000000000e+00
5.000000000000000000e+00,1.915079995362458862e-02
6.000000000000000000e+00,3.908348017778424249e-02
7.000000000000000000e+00,6.603611858342180174e-02
8.000000000000000000e+00,1.023159955585316999e-01
9.000000000000000000e+00,1.497893377033515105e-01
1.000000000000000000e+01,2.086884172577055108e-01
1.100000000000000000e+01,2.789371845069936184e-01
1.200000000000000000e+01,3.600770811078172207e-01
1.300000000000000000e+01,4.513074312868037286e-01
1.400000000000000000e+01,5.515940450087183367e-01
1.500000000000000000e+01,6.597889138979661228e-01
1.600000000000000000e+01,7.747673094736010624e-01
1.700000000000000000e+01,8.954326380492962922e-01
1.800000000000000000e+01,1.020768113507573016e+00
1.900000000000000000e+01,1.149851591650381089e+00
2.000000000000000000e+01,1.281857379016552168e+00
2.100000000000000000e+01,1.416063135363617498e+00
2.200000000000000000e+01,1.551839672601009745e+00
2.300000000000000000e+01,1.688631482696239194e+00
2.400000000000000000e+01,1.825958415030520365e+00
2.500000000000000000e+01,1.963397027509294013e+00
2.600000000000000000e+01,2.100583767398601864e+00
2.700000000000000000e+01,2.237212211766121506e+00
2.800000000000000000e+01,2.373024270046418138e+00
2.900000000000000000e+01,2.507795083349526610e+00
3.000000000000000000e+01,2.641336188660721174e+00
3.100000000000000000e+01,2.773515306571171291e+00
3.200000000000000000e+01,2.904207816914223361e+00
3.300000000000000000e+01,3.033326494158498310e+00
3.400000000000000000e+01,3.160814110631536167e+00
3.500000000000000000e+01,3.286622100607410335e+00
3.600000000000000000e+01,3.410716911801894291e+00
3.700000000000000000e+01,3.533082888084616791e+00
3.800000000000000000e+01,3.653715318915666366e+00
3.900000000000000000e+01,3.772617121445554389e+00
4.000000000000000000e+01,3.889788713467425829e+00
4.100000000000000000e+01,4.005251527265397904e+00
4.200000000000000000e+01,4.119020826163962923e+00
4.300000000000000000e+01,4.231111700723004354e+00
4.400000000000000000e+01,4.341549615279842733e+00
4.500000000000000000e+01,4.450351503590293412e+00
4.600000000000000000e+01,4.557544497239184977e+00
4.700000000000000000e+01,4.663148475294287998e+00
4.800000000000000000e+01,4.767190507643877417e+00
4.900000000000000000e+01,4.869693580145946221e+00
5.000000000000000000e+01,4.970686416548796061e+00
5.100000000000000000e+01,5.071122834997952467e+00
5.200000000000000000e+01,5.169539790313415040e+00
5.300000000000000000e+01,5.266373378124724169e+00
5.400000000000000000e+01,5.361740940819948342e+00
5.500000000000000000e+01,5.455681362241898924e+00
5.600000000000000000e+01,5.548230799931205048e+00
5.700000000000000000e+01,5.639419935576373888e+00
5.800000000000000000e+01,5.729278461144875045e+00
5.900000000000000000e+01,5.817839702067682417e+00
6.000000000000000000e+01,5.905133830276549922e+00
6.100000000000000000e+01,5.991183422642416545e+00
6.200000000000000000e+01,6.076019966862836519e+00
6.300000000000000000e+01,6.159664259567221301e+00
6.400000000000000000e+01,6.242136669218246503e+00
6.500000000000000000e+01,6.323461086975895817e+00
6.600000000000000000e+01,6.403656531975149946e+00
6.700000000000000000e+01,6.482741795506152371e+00
6.800000000000000000e+01,6.560736491810206239e+00
6.900000000000000000e+01,6.637660958259552046e+00
7.000000000000000000e+01,6.713529654762751875e+00
7.100000000000000000e+01,6.788357426125476657e+00
7.200000000000000000e+01,6.862159663943835142e+00
7.300000000000000000e+01,6.934955859154838365e+00
7.400000000000000000e+01,7.006758178625773326e+00
7.500000000000000000e+01,7.077585951084463645e+00
7.600000000000000000e+01,7.147452563855042129e+00
7.700000000000000000e+01,7.216377466959707832e+00
7.800000000000000000e+01,7.284372567490544625e+00
7.900000000000000000e+01,7.351457841089314549e+00
8.000000000000000000e+01,7.417644210522125192e+00
8.100000000000000000e+01,7.482942471302207466e+00
8.200000000000000000e+01,7.547367187735480876e+00
8.300000000000000000e+01,7.610930905459009743e+00
8.400000000000000000e+01,7.673645097963418316e+00
8.500000000000000000e+01,7.735523760239852997e+00
8.600000000000000000e+01,7.796575111369491218e+00
8.700000000000000000e+01,7.856809422340546689e+00
8.800000000000000000e+01,7.916241651741593444e+00
8.900000000000000000e+01,7.974883361875741095e+00
9.000000000000000000e+01,8.032745679038660214e+00
9.100000000000000000e+01,8.089841463901571217e+00
9.200000000000000000e+01,8.146184656641953126e+00
9.300000000000000000e+01,8.201787067940916387e+00
9.400000000000000000e+01,8.256660235142794235e+00
9.500000000000000000e+01,8.310815436929340549e+00
9.600000000000000000e+01,8.364260528051920218e+00
9.700000000000000000e+01,8.417003951372844739e+00
9.800000000000000000e+01,8.469052902039319264e+00
9.900000000000000000e+01,8.520414043989820385e+00
1.000000000000000000e+02,8.571099592328874195e+00
1.010000000000000000e+02,8.621119270661980138e+00
1.020000000000000000e+02,8.670484502239958147e+00
1.030000000000000000e+02,8.719220632889289391e+00
1.040000000000000000e+02,8.767312107042982916e+00
1.050000000000000000e+02,8.814775787204297330e+00
1.060000000000000000e+02,8.861626429726197074e+00
1.070000000000000000e+02,8.907881521313445461e+00
1.080000000000000000e+02,8.953548587386034541e+00
1.090000000000000000e+02,8.998627432162546569e+00
1.100000000000000000e+02,9.043117388622640362e+00
1.110000000000000000e+02,9.087021730086082272e+00
1.120000000000000000e+02,9.130341720316188514e+00
1.130000000000000000e+02,9.173078373611346592e+00
1.140000000000000000e+02,9.215230532143227293e+00
1.150000000000000000e+02,9.256795505474416430e+00
1.160000000000000000e+02,9.297769538212966367e+00
1.170000000000000000e+02,9.338153084153601569e+00
1.180000000000000000e+02,9.377944896383645812e+00
1.190000000000000000e+02,9.417148825520760269e+00
1.200000000000000000e+02,9.455764179726957153e+00
1.210000000000000000e+02,9.493785645465788292e+00
1.220000000000000000e+02,9.531202690435080171e+00
1.230000000000000000e+02,9.568007043185978944e+00
1.240000000000000000e+02,9.604188405587573030e+00
1.250000000000000000e+02,9.639739301827734863e+00
1.260000000000000000e+02,9.674649083715925357e+00
1.270000000000000000e+02,9.708899932103078001e+00
1.280000000000000000e+02,9.742469924356727873e+00
1.290000000000000000e+02,9.775339640205324088e+00
1.300000000000000000e+02,9.807487546371072895e+00
1.310000000000000000e+02,9.838894388622280829e+00
1.320000000000000000e+02,9.869550058828922445e+00
1.330000000000000000e+02,9.899440507558857405e+00
1.340000000000000000e+02,9.928555797121084936e+00
1.350000000000000000e+02,9.956870005358428699e+00
1.360000000000000000e+02,9.984360199840923045e+00
1.370000000000000000e+02,1.001101285603941093e+01
1.380000000000000000e+02,1.003682589973576533e+01
1.390000000000000000e+02,1.006179590937206747e+01
1.400000000000000000e+02,1.008593102800946717e+01
1.410000000000000000e+02,1.010922250877971429e+01
1.420000000000000000e+02,1.013167326361335085e+01
1.430000000000000000e+02,1.015330690824526449e+01
1.440000000000000000e+02,1.017416485098933343e+01
1.450000000000000000e+02,1.019480933819252044e+01
1.460000000000000000e+02,1.021465133900627009e+01
1.470000000000000000e+02,1.023387080219038303e+01
1.480000000000000000e+02,1.025241711019393520e+01
1.490000000000000000e+02,1.027030118943109649e+01
1.500000000000000000e+02,1.028761565266040989e+01
1.510000000000000000e+02,1.030450085068509480e+01
1.520000000000000000e+02,1.032100869970562407e+01
1.530000000000000000e+02,1.033718971887757299e+01
1.540000000000000000e+02,1.035309395733253268e+01
1.550000000000000000e+02,1.036876743457242611e+01
1.560000000000000000e+02,1.038435187673091953e+01
1.570000000000000000e+02,1.039996565935800632e+01
1.580000000000000000e+02,1.041571214432078918e+01
1.590000000000000000e+02,1.043171065008790777e+01
1.600000000000000000e+02,1.044805841420030568e+01
1.610000000000000000e+02,1.046478651059925014e+01
1.620000000000000000e+02,1.048185606127882608e+01
1.630000000000000000e+02,1.049928106885181656e+01
1.640000000000000000e+02,1.051706087621945152e+01
1.650000000000000000e+02,1.053524917336637401e+01
1.660000000000000000e+02,1.055406128651961239e+01
1.670000000000000000e+02,1.057361149435469549e+01
1.680000000000000000e+02,1.059402043147328776e+01
1.690000000000000000e+02,1.061547689938568162e+01
1.700000000000000000e+02,1.063801380612632741e+01
1.710000000000000000e+02,1.066153006434409356e+01
1.720000000000000000e+02,1.068617216830375227e+01
1.730000000000000000e+02,1.071220542274328480e+01
1.740000000000000000e+02,1.073980057121026377e+01
1.750000000000000000e+02,1.076872347269319974e+01
1.760000000000000000e+02,1.079919336860622003e+01
1.770000000000000000e+02,1.083139271913668011e+01
1.780000000000000000e+02,1.087392072778974317e+01
1.790000000000000000e+02,1.091028844884490923e+01
1.800000000000000000e+02,1.094919799885719236e+01
1.810000000000000000e+02,1.099125335862601816e+01
1.820000000000000000e+02,1.103663955700557864e+01
1.830000000000000000e+02,1.108608475857123921e+01
1.840000000000000000e+02,1.113997744475511986e+01
1.850000000000000000e+02,1.119921533572212091e+01
1.860000000000000000e+02,1.126419306329892223e+01
1.870000000000000000e+02,1.133629403116406209e+01
1.880000000000000000e+02,1.141478799578943182e+01
1.890000000000000000e+02,1.150046083897852078e+01
1.900000000000000000e+02,1.159381451495208637e+01
1.910000000000000000e+02,1.169451802105543337e+01
1.920000000000000000e+02,1.180169150945295797e+01
1.930000000000000000e+02,1.191153541578210984e+01
1.940000000000000000e+02,1.202356940416173181e+01
1.950000000000000000e+02,1.213441710249472472e+01
1.960000000000000000e+02,1.224239436777285839e+01
1.970000000000000000e+02,1.234394807521181292e+01
1.980000000000000000e+02,1.244067782725688254e+01
1.990000000000000000e+02,1.253220206956618732e+01
2.000000000000000000e+02,1.261769922629407503e+01
2.010000000000000000e+02,1.269702318433247967e+01
2.020000000000000000e+02,1.277223087301262794e+01
2.030000000000000000e+02,1.284395717595982767e+01
2.040000000000000000e+02,1.291076357983438783e+01
2.050000000000000000e+02,1.297286564795383335e+01
2.060000000000000000e+02,1.303263704822220603e+01
2.070000000000000000e+02,1.309016378131527603e+01
2.080000000000000000e+02,1.314464128403208854e+01
2.090000000000000000e+02,1.319642503091018249e+01
2.100000000000000000e+02,1.324502445016969965e+01
2.110000000000000000e+02,1.329018657295469019e+01
2.120000000000000000e+02,1.333422130375391390e+01
2.130000000000000000e+02,1.337679691877346677e+01
2.140000000000000000e+02,1.341601759271234506e+01
2.150000000000000000e+02,1.345094679998494769e+01
2.160000000000000000e+02,1.348294773123915036e+01
2.170000000000000000e+02,1.351420474438047137e+01
2.180000000000000000e+02,1.354588876963230071e+01
2.190000000000000000e+02,1.357705314445619926e+01
2.200000000000000000e+02,1.360719573539513583e+01
2.210000000000000000e+02,1.363611420161841359e+01
2.220000000000000000e+02,1.366308363345089028e+01
2.230000000000000000e+02,1.368753267453647737e+01
2.240000000000000000e+02,1.371255810198245051e+01
2.250000000000000000e+02,1.373699540031742572e+01
2.260000000000000000e+02,1.376009680852207318e+01
2.270000000000000000e+02,1.378241188334147260e+01
2.280000000000000000e+02,1.380380571331340001e+01
2.290000000000000000e+02,1.382404183849005896e+01
2.300000000000000000e+02,1.384249302733540610e+01
2.310000000000000000e+02,1.385701463570893566e+01
2.320000000000000000e+02,1.387020537522880304e+01
2.330000000000000000e+02,1.388346447886892676e+01
2.340000000000000000e+02,1.389826795729214304e+01
2.350000000000000000e+02,1.391307020413072237e+01
2.360000000000000000e+02,1.392755298825998977e+01
2.370000000000000000e+02,1.394165244025696992e+01
2.380000000000000000e+02,1.395548757885930691e+01
2.390000000000000000e+02,1.396848396247036028e+01
2.400000000000000000e+02,1.397995231937172100e+01
2.410000000000000000e+02,1.398780710457926801e+01
2.420000000000000000e+02,1.399453347196957331e+01
2.430000000000000000e+02,1.400030720811371232e+01
2.440000000000000000e+02,1.400569450825768847e+01
2.450000000000000000e+02,1.401188191340213507e+01
2.460000000000000000e+02,1.402046170956287874e+01
2.470000000000000000e+02,1.402924775116100697e+01
2.480000000000000000e+02,1.403822363541780049e+01
2.490000000000000000e+02,1.404712327401782801e+01
2.500000000000000000e+02,1.405588212926605429e+01
2.510000000000000000e+02,1.406416600074220113e+01
2.520000000000000000e+02,1.407258802018431965e+01
2.530000000000000000e+02,1.408019061133138550e+01
2.540000000000000000e+02,1.408654283571389954e+01
2.550000000000000000e+02,1.408931083444675281e+01
2.560000000000000000e+02,1.409131210474895113e+01
2.570000000000000000e+02,1.409243784214768525e+01
2.580000000000000000e+02,1.409340627921605282e+01
2.590000000000000000e+02,1.409540208574684073e+01
2.600000000000000000e+02,1.410013798570568611e+01
2.610000000000000000e+02,1.410516778241128755e+01
2.620000000000000000e+02,1.411060590322589725e+01
2.630000000000000000e+02,1.411611761589981207e+01
2.640000000000000000e+02,1.412166805494965516e+01
2.650000000000000000e+02,1.412700221478646689e+01
2.660000000000000000e+02,1.413232414385740121e+01
2.670000000000000000e+02,1.413713368485152877e+01
2.680000000000000000e+02,1.414232291848787071e+01
2.690000000000000000e+02,1.414695288637961390e+01
2.700000000000000000e+02,1.414986036698682348e+01
2.710000000000000000e+02,1.414931187388321376e+01
2.720000000000000000e+02,1.414939004888113949e+01
2.730000000000000000e+02,1.415173752753348957e+01
2.740000000000000000e+02,1.415283695889954174e+01
2.750000000000000000e+02,1.415147314991874339e+01
2.760000000000000000e+02,1.415108571336272369e+01
2.770000000000000000e+02,1.415282912771351675e+01
2.780000000000000000e+02,1.415412092244424969e+01
2.790000000000000000e+02,1.415286512772091143e+01
2.800000000000000000e+02,1.415158982098372320e+01
2.810000000000000000e+02,1.414964304461710753e+01
2.820000000000000000e+02,1.414798557385498512e+01
2.830000000000000000e+02,1.414743482986198764e+01
2.840000000000000000e+02,1.414984931685792446e+01
2.850000000000000000e+02,1.415257262235951785e+01
2.860000000000000000e+02,1.415585289903982691e+01
2.870000000000000000e+02,1.415927745376274061e+01
2.880000000000000000e+02,1.416284601852844638e+01
2.890000000000000000e+02,1.416627926794514103e+01
2.900000000000000000e+02,1.416979620846259458e+01
2.910000000000000000e+02,1.417302906607111801e+01
2.920000000000000000e+02,1.417634718129178673e+01
2.930000000000000000e+02,1.417916943273576180e+01
2.940000000000000000e+02,1.418247932155189517e+01
2.950000000000000000e+02,1.418528034333085941e+01
2.960000000000000000e+02,1.418644874279757495e+01
2.970000000000000000e+02,1.418426297053420626e+01
2.980000000000000000e+02,1.418284234898507279e+01
2.990000000000000000e+02,1.418373133272066866e+01
3.000000000000000000e+02,1.418338860099668075e+01
3.010000000000000000e+02,1.418062274918361432e+01
3.020000000000000000e+02,1.417892668943389722e+01
3.030000000000000000e+02,1.417942526784345958e+01
3.040000000000000000e+02,1.417948034629250920e+01
3.050000000000000000e+02,1.417698741411276231e+01
3.060000000000000000e+02,1.417442747584103735e+01
3.070000000000000000e+02,1.417152826116282860e+01
3.080000000000000000e+02,1.416875888439581566e+01
3.090000000000000000e+02,1.416570386959183381e+01
3.100000000000000000e+02,1.416323100291897674e+01
3.110000000000000000e+02,1.416188244455009126e+01
3.120000000000000000e+02,1.416364455916429321e+01
3.130000000000000000e+02,1.416568928569285291e+01
3.140000000000000000e+02,1.416838411365535144e+01
3.150000000000000000e+02,1.417121874727460273e+01
3.160000000000000000e+02,1.417424324345910591e+01
3.170000000000000000e+02,1.417715060831785046e+01
3.180000000000000000e+02,1.418017437959505678e+01
3.190000000000000000e+02,1.418293685644464119e+01
3.200000000000000000e+02,1.418580651338188581e+01
3.210000000000000000e+02,1.418819696882206216e+01
3.220000000000000000e+02,1.419109896837179186e+01
3.230000000000000000e+02,1.419351065207611207e+01
3.240000000000000000e+02,1.419430470047300652e+01
3.250000000000000000e+02,1.419175135514062625e+01
3.260000000000000000e+02,1.418999301717452077e+01
3.270000000000000000e+02,1.419056604058419602e+01
3.280000000000000000e+02,1.418990395226381729e+01
3.290000000000000000e+02,1.418681726699538181e+01
3.300000000000000000e+02,1.418483005736709046e+01
3.310000000000000000e+02,1.418506689738546633e+01
3.320000000000000000e+02,1.418485740112848958e+01
3.330000000000000000e+02,1.418208147149170806e+01
3.340000000000000000e+02,1.417924832688615666e+01
3.350000000000000000e+02,1.417608051704849714e+01
3.360000000000000000e+02,1.417305429920991955e+01
3.370000000000000000e+02,1.416974641851176564e+01
3.380000000000000000e+02,1.416703327002643142e+01
3.390000000000000000e+02,1.416545856441562634e+01
3.400000000000000000e+02,1.416703361997394950e+01
3.410000000000000000e+02,1.416889836145750081e+01
3.420000000000000000e+02,1.417143331003473428e+01
3.430000000000000000e+02,1.417411558310775810e+01
3.440000000000000000e+02,1.417699737360979917e+01
3.450000000000000000e+02,1.417976289317285321e+01
3.460000000000000000e+02,1.418265269012924890e+01
3.470000000000000000e+02,1.418528563722061620e+01
3.480000000000000000e+02,1.418803868079820774e+01
3.490000000000000000e+02,1.419031339743580311e+01
3.500000000000000000e+02,1.419311237423922023e+01
3.510000000000000000e+02,1.419541846133421714e+01
3.520000000000000000e+02,1.419609351136139708e+01
3.530000000000000000e+02,1.419338513944185109e+01
3.540000000000000000e+02,1.419149201184559494e+01
3.550000000000000000e+02,1.419196599494374311e+01
3.560000000000000000e+02,1.419119261025220879e+01
3.570000000000000000e+02,1.418796482735241327e+01
3.580000000000000000e+02,1.418585479458229592e+01
3.590000000000000000e+02,1.418600213746683458e+01
3.600000000000000000e+02,1.418570779766368517e+01
3.610000000000000000e+02,1.418282139888506599e+01
3.620000000000000000e+02,1.417988014711325562e+01
3.630000000000000000e+02,1.417660137089469075e+01
3.640000000000000000e+02,1.417347042907834798e+01
3.650000000000000000e+02,1.417006025259960644e+01
3.660000000000000000e+02,1.416725787445487050e+01
3.670000000000000000e+02,1.416560808199423249e+01
3.680000000000000000e+02,1.416713825350730183e+01
3.690000000000000000e+02,1.416895888618427080e+01
3.700000000000000000e+02,1.417146140497620266e+01
3.710000000000000000e+02,1.417411738936336363e+01
3.720000000000000000e+02,1.417698461846195457e+01
3.730000000000000000e+02,1.417973838254602548e+01
3.740000000000000000e+02,1.418262213706225339e+01
3.750000000000000000e+02,1.418524625291316177e+01
3.760000000000000000e+02,1.418799465958489137e+01
3.770000000000000000e+02,1.419026549537334780e+01
3.780000000000000000e+02,1.419307227791656167e+01
3.790000000000000000e+02,1.419538407104176336e+01
3.800000000000000000e+02,1.419605488403643179e+01
3.810000000000000000e+02,1.419331773359245297e+01
3.820000000000000000e+02,1.419139976890387977e+01
3.830000000000000000e+02,1.419186841106694885e+01
3.840000000000000000e+02,1.419108687795823265e+01
3.850000000000000000e+02,1.418783671596885654e+01
3.860000000000000000e+02,1.418570814669044644e+01
3.870000000000000000e+02,1.418610724755537333e+01
3.880000000000000000e+02,1.418545928624901542e+01
3.890000000000000000e+02,1.418248077649213634e+01
3.900000000000000000e+02,1.418067217172556127e+01
3.910000000000000000e+02,1.418105479183283535e+01
3.920000000000000000e+02,1.418103558273505627e+01
3.930000000000000000e+02,1.417848991688146576e+01
3.940000000000000000e+02,1.417589527910044467e+01
3.950000000000000000e+02,1.417296612852043580e+01
3.960000000000000000e+02,1.417017626799806607e+01
3.970000000000000000e+02,1.416710162611403589e+01
3.980000000000000000e+02,1.416460643480918336e+01
