# Time [s], Convective Heat Transfer Coefficient [W/m2K]
1.000000000000000000e+00,0.000000000000000000e+00
2.000000000000000000e+00,0.000000000000000000e+00
3.000000000000000000e+00,0.000000000000000000e+00
4.000000000000000000e+00,0.000000000000000000e+00
5.000000000000000000e+00,3.040000000141642594e-02
6.000000000000000000e+00,5.366129469656785722e-02
7.000000000000000000e+00,8.784074779022797708e-02
8.000000000000000000e+00,1.343156500204536197e-01
9.000000000000000000e+00,1.938102262961881872e-01
1.000000000000000000e+01,2.663572885860942541e-01
1.100000000000000000e+01,3.515241103500593711e-01
1.200000000000000000e+01,4.484036387715888972e-01
1.300000000000000000e+01,5.557297227851391019e-01
1.400000000000000000e+01,6.721124921278147646e-01
1.500000000000000000e+01,7.961258756349359755e-01
1.600000000000000000e+01,9.264082105379084497e-01
1.700000000000000000e+01,1.061714058291613361e+00
1.800000000000000000e+01,1.209450158388905239e+00
1.900000000000000000e+01,1.355056118301596113e+00
2.000000000000000000e+01,1.501393320629095474e+00
2.100000000000000000e+01,1.648440818011447817e+00
2.200000000000000000e+01,1.795751588197556536e+00
2.300000000000000000e+01,1.942911113050504790e+00
2.400000000000000000e+01,2.089541269679604962e+00
2.500000000000000000e+01,2.235316402603866770e+00
2.600000000000000000e+01,2.379957045482318456e+00
2.700000000000000000e+01,2.523224638071702941e+00
2.800000000000000000e+01,2.664929638380228116e+00
2.900000000000000000e+01,2.804917712016250064e+00
3.000000000000000000e+01,2.943070093356977779e+00
3.100000000000000000e+01,3.079294023600632091e+00
3.200000000000000000e+01,3.213533762025637230e+00
3.300000000000000000e+01,3.345742485810155209e+00
3.400000000000000000e+01,3.475899186771266525e+00
3.500000000000000000e+01,3.603995272253871729e+00
3.600000000000000000e+01,3.730028453215378015e+00
3.700000000000000000e+01,3.854014095047125554e+00
3.800000000000000000e+01,3.975963859439087589e+00
3.900000000000000000e+01,4.095900433248667483e+00
4.000000000000000000e+01,4.213850908856834998e+00
4.100000000000000000e+01,4.329842075336236995e+00
4.200000000000000000e+01,4.443909836427251570e+00
4.300000000000000000e+01,4.556084045497309276e+00
4.400000000000000000e+01,4.666399892483383383e+00
4.500000000000000000e+01,4.774891146888946558e+00
4.600000000000000000e+01,4.881592243118515917e+00
4.700000000000000000e+01,4.986537437742835976e+00
4.800000000000000000e+01,5.089758031661653526e+00
4.900000000000000000e+01,5.191292257029283874e+00
5.000000000000000000e+01,5.291170734038979973e+00
5.100000000000000000e+01,5.389428672149134236e+00
5.200000000000000000e+01,5.486099093907061963e+00
5.300000000000000000e+01,5.581214289235099102e+00
5.400000000000000000e+01,5.674806714159893239e+00
5.500000000000000000e+01,5.766904878957515024e+00
5.600000000000000000e+01,5.857540791004577585e+00
5.700000000000000000e+01,5.946742145760735454e+00
5.800000000000000000e+01,6.034540190090776690e+00
5.900000000000000000e+01,6.120961212892841452e+00
6.000000000000000000e+01,6.206034027831385025e+00
6.100000000000000000e+01,6.289786865251790537e+00
6.200000000000000000e+01,6.372246859132957297e+00
6.300000000000000000e+01,6.453440265351648719e+00
6.400000000000000000e+01,6.533392462655561062e+00
6.500000000000000000e+01,6.612151414157123597e+00
6.600000000000000000e+01,6.689707208801261906e+00
6.700000000000000000e+01,6.766090369362833812e+00
6.800000000000000000e+01,6.841327084068753450e+00
6.900000000000000000e+01,6.915443301001769072e+00
7.000000000000000000e+01,6.988464955319523497e+00
7.100000000000000000e+01,7.060422634464305958e+00
7.200000000000000000e+01,7.131342803212835868e+00
7.300000000000000000e+01,7.201252470871890132e+00
7.400000000000000000e+01,7.270177126785535293e+00
7.500000000000000000e+01,7.338135212232381299e+00
7.600000000000000000e+01,7.405146212497820457e+00
7.700000000000000000e+01,7.471227401435494464e+00
7.800000000000000000e+01,7.536396490574493789e+00
7.900000000000000000e+01,7.600667322736929243e+00
8.000000000000000000e+01,7.664055559704904041e+00
8.100000000000000000e+01,7.726576169121316617e+00
8.200000000000000000e+01,7.788243854934833621e+00
8.300000000000000000e+01,7.849072878379858231e+00
8.400000000000000000e+01,7.909076896101579379e+00
8.500000000000000000e+01,7.968269366333875503e+00
8.600000000000000000e+01,8.026663374939078111e+00
8.700000000000000000e+01,8.084270939670007650e+00
8.800000000000000000e+01,8.141103962541214045e+00
8.900000000000000000e+01,8.197173361596181707e+00
9.000000000000000000e+01,8.252491366863996092e+00
9.100000000000000000e+01,8.307068376659648479e+00
9.200000000000000000e+01,8.360915417113854886e+00
9.300000000000000000e+01,8.414042941838069112e+00
9.400000000000000000e+01,8.466461681618893564e+00
9.500000000000000000e+01,8.518181334915654546e+00
9.600000000000000000e+01,8.569212700262548665e+00
9.700000000000000000e+01,8.619563198925678904e+00
9.800000000000000000e+01,8.669242207646567167e+00
9.900000000000000000e+01,8.718258174124651205e+00
1.000000000000000000e+02,8.766618819860733325e+00
1.010000000000000000e+02,8.814332383744718058e+00
1.020000000000000000e+02,8.861405804503512229e+00
1.030000000000000000e+02,8.907846558152005656e+00
1.040000000000000000e+02,8.953662191276997362e+00
1.050000000000000000e+02,8.998859883362555934e+00
1.060000000000000000e+02,9.043445176518675410e+00
1.070000000000000000e+02,9.087424747650791446e+00
1.080000000000000000e+02,9.130804808893884683e+00
1.090000000000000000e+02,9.173591824650698001e+00
1.100000000000000000e+02,9.215790018866233169e+00
1.110000000000000000e+02,9.257404890535166686e+00
1.120000000000000000e+02,9.298441260574684009e+00
1.130000000000000000e+02,9.338902361351440362e+00
1.140000000000000000e+02,9.378791766603342239e+00
1.150000000000000000e+02,9.418110340059788754e+00
1.160000000000000000e+02,9.456860402583055603e+00
1.170000000000000000e+02,9.495039957110476436e+00
1.180000000000000000e+02,9.532648395784807605e+00
1.190000000000000000e+02,9.569689380446629201e+00
1.200000000000000000e+02,9.606164333533902422e+00
1.210000000000000000e+02,9.642086622860389866e+00
1.220000000000000000e+02,9.677466249160476153e+00
1.230000000000000000e+02,9.712296323730265968e+00
1.240000000000000000e+02,9.746549969836307170e+00
1.250000000000000000e+02,9.780196787535846425e+00
1.260000000000000000e+02,9.813210479468475356e+00
1.270000000000000000e+02,9.845570492672438334e+00
1.280000000000000000e+02,9.877259642360213476e+00
1.290000000000000000e+02,9.908263144744793749e+00
1.300000000000000000e+02,9.938562001529755108e+00
1.310000000000000000e+02,9.968145708394157367e+00
1.320000000000000000e+02,9.996997457962759626e+00
1.330000000000000000e+02,1.002510291768819783e+01
1.340000000000000000e+02,1.005244225886331932e+01
1.350000000000000000e+02,1.007898808807263968e+01
1.360000000000000000e+02,1.010471260085244438e+01
1.370000000000000000e+02,1.012959370764634848e+01
1.380000000000000000e+02,1.015362461657531234e+01
1.390000000000000000e+02,1.017680734271004361e+01
1.400000000000000000e+02,1.019915069934998542e+01
1.410000000000000000e+02,1.022066791226285787e+01
1.420000000000000000e+02,1.024137754405474610e+01
1.430000000000000000e+02,1.026129584656894522e+01
1.440000000000000000e+02,1.028046928014413730e+01
1.450000000000000000e+02,1.029892973745628737e+01
1.460000000000000000e+02,1.031671893960104214e+01
1.470000000000000000e+02,1.033388557094227167e+01
1.480000000000000000e+02,1.035048696351911701e+01
1.490000000000000000e+02,1.036657953783014818e+01
1.500000000000000000e+02,1.038221431011062990e+01
1.510000000000000000e+02,1.039744265033395187e+01
1.520000000000000000e+02,1.041232193083493840e+01
1.530000000000000000e+02,1.042691709205880812e+01
1.540000000000000000e+02,1.044128929649409443e+01
1.550000000000000000e+02,1.045553316599369609e+01
1.560000000000000000e+02,1.047124868315804136e+01
1.570000000000000000e+02,1.048639930202473813e+01
1.580000000000000000e+02,1.050122900570246642e+01
1.590000000000000000e+02,1.051578659943938554e+01
1.600000000000000000e+02,1.053023601308778190e+01
1.610000000000000000e+02,1.054481432587065903e+01
1.620000000000000000e+02,1.055966476705921409e+01
1.630000000000000000e+02,1.057487187422466590e+01
1.640000000000000000e+02,1.059050077699574643e+01
1.650000000000000000e+02,1.060662322981248096e+01
1.660000000000000000e+02,1.062325552378045934e+01
1.670000000000000000e+02,1.064045598045853858e+01
1.680000000000000000e+02,1.065824035316524032e+01
1.690000000000000000e+02,1.067660621364104045e+01
1.700000000000000000e+02,1.069562483917067830e+01
1.710000000000000000e+02,1.071543772111336423e+01
1.720000000000000000e+02,1.073616544170520015e+01
1.730000000000000000e+02,1.075793314376917031e+01
1.740000000000000000e+02,1.078075538433075842e+01
1.750000000000000000e+02,1.080475942153693403e+01
1.760000000000000000e+02,1.083015012345506811e+01
1.770000000000000000e+02,1.085704804942735180e+01
1.780000000000000000e+02,1.088563292985851305e+01
1.790000000000000000e+02,1.091603623733630180e+01
1.800000000000000000e+02,1.094841425322589146e+01
1.810000000000000000e+02,1.098303597830549450e+01
1.820000000000000000e+02,1.102018618028693098e+01
1.830000000000000000e+02,1.106039725733166890e+01
1.840000000000000000e+02,1.110350868264916002e+01
1.850000000000000000e+02,1.115060853844338418e+01
1.860000000000000000e+02,1.120185509851194361e+01
1.870000000000000000e+02,1.125789063808993262e+01
1.880000000000000000e+02,1.131918643515659006e+01
1.890000000000000000e+02,1.138603194957581621e+01
1.900000000000000000e+02,1.145859558011908419e+01
1.910000000000000000e+02,1.153716639933678856e+01
1.920000000000000000e+02,1.162091421062007512e+01
1.930000000000000000e+02,1.170921184195254483e+01
1.940000000000000000e+02,1.180015131961538799e+01
1.950000000000000000e+02,1.189172127787682776e+01
1.960000000000000000e+02,1.198156807896070930e+01
1.970000000000000000e+02,1.206796931090296354e+01
1.980000000000000000e+02,1.215076785919514180e+01
1.990000000000000000e+02,1.222877198307107172e+01
2.000000000000000000e+02,1.230248042070595638e+01
2.010000000000000000e+02,1.237213635399919198e+01
2.020000000000000000e+02,1.243816087403346948e+01
2.030000000000000000e+02,1.250068201095341358e+01
2.040000000000000000e+02,1.255988186620466784e+01
2.050000000000000000e+02,1.261611664478207473e+01
2.060000000000000000e+02,1.266974990827995384e+01
2.070000000000000000e+02,1.272099409703112194e+01
2.080000000000000000e+02,1.277016280444017582e+01
2.090000000000000000e+02,1.281753159187723590e+01
2.100000000000000000e+02,1.286325369202781310e+01
2.110000000000000000e+02,1.290716975352784424e+01
2.120000000000000000e+02,1.294924628939932809e+01
2.130000000000000000e+02,1.298972168914459679e+01
2.140000000000000000e+02,1.302874107987553387e+01
2.150000000000000000e+02,1.306653638988886890e+01
2.160000000000000000e+02,1.310324010382647231e+01
2.170000000000000000e+02,1.313858546818113204e+01
2.180000000000000000e+02,1.317252750665777050e+01
2.190000000000000000e+02,1.320527126891621172e+01
2.200000000000000000e+02,1.323692907708479005e+01
2.210000000000000000e+02,1.326772799924654755e+01
2.220000000000000000e+02,1.329773487628937545e+01
2.230000000000000000e+02,1.332662701982835252e+01
2.240000000000000000e+02,1.335442298110952919e+01
2.250000000000000000e+02,1.338146419315329005e+01
2.260000000000000000e+02,1.340775863017509728e+01
2.270000000000000000e+02,1.343306579552140612e+01
2.280000000000000000e+02,1.345736559252858378e+01
2.290000000000000000e+02,1.348082113335661347e+01
2.300000000000000000e+02,1.350353202044301071e+01
2.310000000000000000e+02,1.352571408078283532e+01
2.320000000000000000e+02,1.354741887513931786e+01
2.330000000000000000e+02,1.356828239282975446e+01
2.340000000000000000e+02,1.358835144817442320e+01
2.350000000000000000e+02,1.360798097780076965e+01
2.360000000000000000e+02,1.362711657016859057e+01
2.370000000000000000e+02,1.364551133269512739e+01
2.380000000000000000e+02,1.366312840569307951e+01
2.390000000000000000e+02,1.368015500071289914e+01
2.400000000000000000e+02,1.369665904649921373e+01
2.410000000000000000e+02,1.371288711048320152e+01
2.420000000000000000e+02,1.372886116178490390e+01
2.430000000000000000e+02,1.374414426131407119e+01
2.440000000000000000e+02,1.375880422832168470e+01
2.450000000000000000e+02,1.377327826184724735e+01
2.460000000000000000e+02,1.378741601274395734e+01
2.470000000000000000e+02,1.380093662061480231e+01
2.480000000000000000e+02,1.381387257208813679e+01
2.490000000000000000e+02,1.382663897867121428e+01
2.500000000000000000e+02,1.383912068739607903e+01
2.510000000000000000e+02,1.385101987561775516e+01
2.520000000000000000e+02,1.386241231724051559e+01
2.530000000000000000e+02,1.387366175495325926e+01
2.540000000000000000e+02,1.388467760546475738e+01
2.550000000000000000e+02,1.389515539964684265e+01
2.560000000000000000e+02,1.390518213308967077e+01
2.570000000000000000e+02,1.391509697336029028e+01
2.580000000000000000e+02,1.392484261303921933e+01
2.590000000000000000e+02,1.393409702210457013e+01
2.600000000000000000e+02,1.394288009086618452e+01
2.610000000000000000e+02,1.395119292954798595e+01
2.620000000000000000e+02,1.395857365174335740e+01
2.630000000000000000e+02,1.396520587728016416e+01
2.640000000000000000e+02,1.397185525590775335e+01
2.650000000000000000e+02,1.397878604612973596e+01
2.660000000000000000e+02,1.398574833213248603e+01
2.670000000000000000e+02,1.399257562842619507e+01
2.680000000000000000e+02,1.399909874848321500e+01
2.690000000000000000e+02,1.400535941911085658e+01
2.700000000000000000e+02,1.401086144460671434e+01
2.710000000000000000e+02,1.401575904306088027e+01
2.720000000000000000e+02,1.402073974499151454e+01
2.730000000000000000e+02,1.402564246859979669e+01
2.740000000000000000e+02,1.402991384918061435e+01
2.750000000000000000e+02,1.403380604632608275e+01
2.760000000000000000e+02,1.403792817444912266e+01
2.770000000000000000e+02,1.404253919120012917e+01
2.780000000000000000e+02,1.404734597498584314e+01
2.790000000000000000e+02,1.405212735912843769e+01
2.800000000000000000e+02,1.405672942208077991e+01
2.810000000000000000e+02,1.406115174514410882e+01
2.820000000000000000e+02,1.406485986252397247e+01
2.830000000000000000e+02,1.406800502357554983e+01
2.840000000000000000e+02,1.407140418209662158e+01
2.850000000000000000e+02,1.407521402751176609e+01
2.860000000000000000e+02,1.407921675295211195e+01
2.870000000000000000e+02,1.408315523152638882e+01
2.880000000000000000e+02,1.408696515412090733e+01
2.890000000000000000e+02,1.409105877872767820e+01
2.900000000000000000e+02,1.409521866884940344e+01
2.910000000000000000e+02,1.409910004353356072e+01
2.920000000000000000e+02,1.410281195391874220e+01
2.930000000000000000e+02,1.410669238715933105e+01
2.940000000000000000e+02,1.411060590322589725e+01
2.950000000000000000e+02,1.411418977589338830e+01
2.960000000000000000e+02,1.411756250434259918e+01
2.970000000000000000e+02,1.412111560838789259e+01
2.980000000000000000e+02,1.412467695871144713e+01
2.990000000000000000e+02,1.412791008647529800e+01
3.000000000000000000e+02,1.413091058780164211e+01
3.010000000000000000e+02,1.413412187943758802e+01
3.020000000000000000e+02,1.413733674952772468e+01
3.030000000000000000e+02,1.414022710905764590e+01
3.040000000000000000e+02,1.414288049831496252e+01
3.050000000000000000e+02,1.414576865154750251e+01
3.060000000000000000e+02,1.414866767199546871e+01
3.070000000000000000e+02,1.415124301703313492e+01
3.080000000000000000e+02,1.415358275199258031e+01
3.090000000000000000e+02,1.415618020054925807e+01
3.100000000000000000e+02,1.415879847668708535e+01
3.110000000000000000e+02,1.416109117698344555e+01
3.120000000000000000e+02,1.416315017952497968e+01
3.130000000000000000e+02,1.416549170007009195e+01
3.140000000000000000e+02,1.416786516310318866e+01
3.150000000000000000e+02,1.416990937144055529e+01
3.160000000000000000e+02,1.417173424652876612e+01
3.170000000000000000e+02,1.417384137651403719e+01
3.180000000000000000e+02,1.417600624769787032e+01
3.190000000000000000e+02,1.417765927021730654e+01
3.200000000000000000e+02,1.417851268491968320e+01
3.210000000000000000e+02,1.417887230541013288e+01
3.220000000000000000e+02,1.417936593867598205e+01
3.230000000000000000e+02,1.418033173714764139e+01
3.240000000000000000e+02,1.418146195425438094e+01
3.250000000000000000e+02,1.418254502635542202e+01
3.260000000000000000e+02,1.418355944523036882e+01
3.270000000000000000e+02,1.418489754390636648e+01
3.280000000000000000e+02,1.418638662224974212e+01
3.290000000000000000e+02,1.418760741233248268e+01
3.300000000000000000e+02,1.418875740331723811e+01
3.310000000000000000e+02,1.419014382035532229e+01
3.320000000000000000e+02,1.419165661630874808e+01
3.330000000000000000e+02,1.419286092587438119e+01
3.340000000000000000e+02,1.419392738458703462e+01
3.350000000000000000e+02,1.419527346329569895e+01
3.360000000000000000e+02,1.419670222701044437e+01
3.370000000000000000e+02,1.419783338176171483e+01
3.380000000000000000e+02,1.419877820529739054e+01
3.390000000000000000e+02,1.420004824347029526e+01
3.400000000000000000e+02,1.420138045079037958e+01
3.410000000000000000e+02,1.420241620712747022e+01
3.420000000000000000e+02,1.420326345792403799e+01
3.430000000000000000e+02,1.420443139571606572e+01
3.440000000000000000e+02,1.420568203490248926e+01
3.450000000000000000e+02,1.420644566466703473e+01
3.460000000000000000e+02,1.420642867023010680e+01
3.470000000000000000e+02,1.420594683492413246e+01
3.480000000000000000e+02,1.420563034989137918e+01
3.490000000000000000e+02,1.420582612446283832e+01
3.500000000000000000e+02,1.420620599874883716e+01
3.510000000000000000e+02,1.420656143456158027e+01
3.520000000000000000e+02,1.420686303063676093e+01
3.530000000000000000e+02,1.420752638094680798e+01
3.540000000000000000e+02,1.420836096139467486e+01
3.550000000000000000e+02,1.420893998385311363e+01
3.560000000000000000e+02,1.420946585260309725e+01
3.570000000000000000e+02,1.421025840879590874e+01
3.580000000000000000e+02,1.421119740765832873e+01
3.590000000000000000e+02,1.421183491014725675e+01
3.600000000000000000e+02,1.421234851042761349e+01
3.610000000000000000e+02,1.421317441218146627e+01
3.620000000000000000e+02,1.421409958399849494e+01
3.630000000000000000e+02,1.421473039555380069e+01
3.640000000000000000e+02,1.421518122233550940e+01
3.650000000000000000e+02,1.421599121357031770e+01
3.660000000000000000e+02,1.421687750456854360e+01
3.670000000000000000e+02,1.421743000492597275e+01
3.680000000000000000e+02,1.421787533297296768e+01
3.690000000000000000e+02,1.421861009221798611e+01
3.700000000000000000e+02,1.421951475685294852e+01
3.710000000000000000e+02,1.422037091228587258e+01
3.720000000000000000e+02,1.422121423082707459e+01
3.730000000000000000e+02,1.422180806526211327e+01
3.740000000000000000e+02,1.422211572839625937e+01
3.750000000000000000e+02,1.422272187147811451e+01
3.760000000000000000e+02,1.422335654756621537e+01
3.770000000000000000e+02,1.422369909172232916e+01
3.780000000000000000e+02,1.422393041541892167e+01
3.790000000000000000e+02,1.422440362772585942e+01
3.800000000000000000e+02,1.422500639408968937e+01
3.810000000000000000e+02,1.422528777170476388e+01
3.820000000000000000e+02,1.422545442947150995e+01
3.830000000000000000e+02,1.422592048358660932e+01
3.840000000000000000e+02,1.422650015977006532e+01
3.850000000000000000e+02,1.422677899136473378e+01
3.860000000000000000e+02,1.422691634993450371e+01
3.870000000000000000e+02,1.422737837577998654e+01
3.880000000000000000e+02,1.422795226621084019e+01
3.890000000000000000e+02,1.422804900879815548e+01
3.900000000000000000e+02,1.422739711295804987e+01
3.910000000000000000e+02,1.422630067366674744e+01
3.920000000000000000e+02,1.422539264912349033e+01
3.930000000000000000e+02,1.422501484020811269e+01
3.940000000000000000e+02,1.422483475059224745e+01
3.950000000000000000e+02,1.422464302794948132e+01
3.960000000000000000e+02,1.422440999177999821e+01
3.970000000000000000e+02,1.422456180171061391e+01
3.980000000000000000e+02,1.422489728785005170e+01
