# Time [s], Convective Heat Transfer Coefficient [W/m2K]
1.000000000000000000e+00,0.000000000000000000e+00
2.000000000000000000e+00,0.000000000000000000e+00
3.000000000000000000e+00,0.000000000000000000e+00
4.000000000000000000e+00,0.000000000000000000e+00
5.000000000000000000e+00,0.000000000000000000e+00
6.000000000000000000e+00,1.915079995362458862e-02
7.000000000000000000e+00,3.040000000141642594e-02
8.000000000000000000e+00,4.559999999962457279e-02
9.000000000000000000e+00,6.603611858342180174e-02
1.000000000000000000e+01,9.162028243445757836e-02
1.100000000000000000e+01,1.226983820535028635e-01
1.200000000000000000e+01,1.588322919269780087e-01
1.300000000000000000e+01,1.995298096045887981e-01
1.400000000000000000e+01,2.445775985699828736e-01
1.500000000000000000e+01,2.933864266062455317e-01
1.600000000000000000e+01,3.454614728307783267e-01
1.700000000000000000e+01,4.002834439014527068e-01
1.800000000000000000e+01,4.574030857652829907e-01
1.900000000000000000e+01,5.163920656263325526e-01
2.000000000000000000e+01,5.768833216491944249e-01
2.100000000000000000e+01,6.385292255409565909e-01
2.200000000000000000e+01,7.010484173142720321e-01
2.300000000000000000e+01,7.641782669635173164e-01
2.400000000000000000e+01,8.277057955435119796e-01
2.500000000000000000e+01,8.914408332448170436e-01
2.600000000000000000e+01,9.552261011341808272e-01
2.700000000000000000e+01,1.018924568247538964e+00
2.800000000000000000e+01,1.082419743743232132e+00
2.900000000000000000e+01,1.145620786271200897e+00
3.000000000000000000e+01,1.208438578465892199e+00
3.100000000000000000e+01,1.270802598661587846e+00
3.200000000000000000e+01,1.332660362078303962e+00
3.300000000000000000e+01,1.393965188094499208e+00
3.400000000000000000e+01,1.454679558080090196e+00
3.500000000000000000e+01,1.514769434760508071e+00
3.600000000000000000e+01,1.574208276455949518e+00
3.700000000000000000e+01,1.632984007308314611e+00
3.800000000000000000e+01,1.691077950537005492e+00
3.900000000000000000e+01,1.748475313715809332e+00
4.000000000000000000e+01,1.805174764832650380e+00
4.100000000000000000e+01,1.861171872198660093e+00
4.200000000000000000e+01,1.916459774174689157e+00
4.300000000000000000e+01,1.971047748938543842e+00
4.400000000000000000e+01,2.024929136893868442e+00
4.500000000000000000e+01,2.078112220845062641e+00
4.600000000000000000e+01,2.130600467130723707e+00
4.700000000000000000e+01,2.182400326758693776e+00
4.800000000000000000e+01,2.233517809295179735e+00
4.900000000000000000e+01,2.283959980413642121e+00
5.000000000000000000e+01,2.333738023456313648e+00
5.100000000000000000e+01,2.382860068594212954e+00
5.200000000000000000e+01,2.431332837829772053e+00
5.300000000000000000e+01,2.479165788573305385e+00
5.400000000000000000e+01,2.526369028286213680e+00
5.500000000000000000e+01,2.572957863855171556e+00
5.600000000000000000e+01,2.618934217462473235e+00
5.700000000000000000e+01,2.664311709770730285e+00
5.800000000000000000e+01,2.709104737260120910e+00
5.900000000000000000e+01,2.753317149800317942e+00
6.000000000000000000e+01,2.796959521461986231e+00
6.100000000000000000e+01,2.840045467372324772e+00
6.200000000000000000e+01,2.882582827536110059e+00
6.300000000000000000e+01,2.924584152018474104e+00
6.400000000000000000e+01,2.966054556228398198e+00
6.500000000000000000e+01,3.007006274660563694e+00
6.600000000000000000e+01,3.047449490186203924e+00
6.700000000000000000e+01,3.087392314527436454e+00
6.800000000000000000e+01,3.126844486261968203e+00
6.900000000000000000e+01,3.165816673953540938e+00
7.000000000000000000e+01,3.204315776614190092e+00
7.100000000000000000e+01,3.242352464130560108e+00
7.200000000000000000e+01,3.279934195419848209e+00
7.300000000000000000e+01,3.317065980303396167e+00
7.400000000000000000e+01,3.353758223816886819e+00
7.500000000000000000e+01,3.390021855570525933e+00
7.600000000000000000e+01,3.425862873301035005e+00
7.700000000000000000e+01,3.461289963629408994e+00
7.800000000000000000e+01,3.496308665878426147e+00
7.900000000000000000e+01,3.530927676134992144e+00
8.000000000000000000e+01,3.565155218124923309e+00
8.100000000000000000e+01,3.598998173696741354e+00
8.200000000000000000e+01,3.632463438764122809e+00
8.300000000000000000e+01,3.665555473885320659e+00
8.400000000000000000e+01,3.698284213743745941e+00
8.500000000000000000e+01,3.730655502391623912e+00
8.600000000000000000e+01,3.762674245712101850e+00
8.700000000000000000e+01,3.794348467217014242e+00
8.800000000000000000e+01,3.825683208947899594e+00
8.900000000000000000e+01,3.856684622194430645e+00
9.000000000000000000e+01,3.887358016126464033e+00
9.100000000000000000e+01,3.917709291467533106e+00
9.200000000000000000e+01,3.947743915119398483e+00
9.300000000000000000e+01,3.977467762947502816e+00
9.400000000000000000e+01,4.006885701279328416e+00
9.500000000000000000e+01,4.036003525154545635e+00
9.600000000000000000e+01,4.064825764394051966e+00
9.700000000000000000e+01,4.093357655593034217e+00
9.800000000000000000e+01,4.121604057737958016e+00
9.900000000000000000e+01,4.149570155474191502e+00
1.000000000000000000e+02,4.177260496536826295e+00
1.010000000000000000e+02,4.204679693767489290e+00
1.020000000000000000e+02,4.231831961805205822e+00
1.030000000000000000e+02,4.258721657123544446e+00
1.040000000000000000e+02,4.285352566695913801e+00
1.050000000000000000e+02,4.311730838014828038e+00
1.060000000000000000e+02,4.337858055234495858e+00
1.070000000000000000e+02,4.363740914419305561e+00
1.080000000000000000e+02,4.389381020400187516e+00
1.090000000000000000e+02,4.414782987095935418e+00
1.100000000000000000e+02,4.439950821672104198e+00
1.110000000000000000e+02,4.464887135942936958e+00
1.120000000000000000e+02,4.489596648974751858e+00
1.130000000000000000e+02,4.514082567892021558e+00
1.140000000000000000e+02,4.538348373541963632e+00
1.150000000000000000e+02,4.562396905802231117e+00
1.160000000000000000e+02,4.586232344372461078e+00
1.170000000000000000e+02,4.609857440611913049e+00
1.180000000000000000e+02,4.633275498155934535e+00
1.190000000000000000e+02,4.656489643210622198e+00
1.200000000000000000e+02,4.679502833112643145e+00
1.210000000000000000e+02,4.702318023167133099e+00
1.220000000000000000e+02,4.724939005529663838e+00
1.230000000000000000e+02,4.747368447853787643e+00
1.240000000000000000e+02,4.769608306017667054e+00
1.250000000000000000e+02,4.791661896047073377e+00
1.260000000000000000e+02,4.813531558620092632e+00
1.270000000000000000e+02,4.835219904557368054e+00
1.280000000000000000e+02,4.856729405728688498e+00
1.290000000000000000e+02,4.878062991435150764e+00
1.300000000000000000e+02,4.899222809410118451e+00
1.310000000000000000e+02,4.920211709889607654e+00
1.320000000000000000e+02,4.941031633697992476e+00
1.330000000000000000e+02,4.961685219349227793e+00
1.340000000000000000e+02,4.982174548166923067e+00
1.350000000000000000e+02,5.002504207551147886e+00
1.360000000000000000e+02,5.022673487756849298e+00
1.370000000000000000e+02,5.042685293042959316e+00
1.380000000000000000e+02,5.062541568983137452e+00
1.390000000000000000e+02,5.082245198017218968e+00
1.400000000000000000e+02,5.101797714938401285e+00
1.410000000000000000e+02,5.121201009634714474e+00
1.420000000000000000e+02,5.140457358056043979e+00
1.430000000000000000e+02,5.159568308685024363e+00
1.440000000000000000e+02,5.178536280757115584e+00
1.450000000000000000e+02,5.197362972691301763e+00
1.460000000000000000e+02,5.216050291647530202e+00
1.470000000000000000e+02,5.234600431642117080e+00
1.480000000000000000e+02,5.253015184879952670e+00
1.490000000000000000e+02,5.271295955874187200e+00
1.500000000000000000e+02,5.289444360594298011e+00
1.510000000000000000e+02,5.307462136207730552e+00
1.520000000000000000e+02,5.325350848157185624e+00
1.530000000000000000e+02,5.343112059996292906e+00
1.540000000000000000e+02,5.360747537209466174e+00
1.550000000000000000e+02,5.378258836048341429e+00
1.560000000000000000e+02,5.395646988742459627e+00
1.570000000000000000e+02,5.412914358122660197e+00
1.580000000000000000e+02,5.430061935696608444e+00
1.590000000000000000e+02,5.447091041787777144e+00
1.600000000000000000e+02,5.464005079774936213e+00
1.610000000000000000e+02,5.480802574875554001e+00
1.620000000000000000e+02,5.497486502238897899e+00
1.630000000000000000e+02,5.514058300781355726e+00
1.640000000000000000e+02,5.530518531644253777e+00
1.650000000000000000e+02,5.546868882559680358e+00
1.660000000000000000e+02,5.563110432829931007e+00
1.670000000000000000e+02,5.579244761652711659e+00
1.680000000000000000e+02,5.595272924315471741e+00
1.690000000000000000e+02,5.611196173603983262e+00
1.700000000000000000e+02,5.627015732488574784e+00
1.710000000000000000e+02,5.642733089167795590e+00
1.720000000000000000e+02,5.658348856430205132e+00
1.730000000000000000e+02,5.673864759275646819e+00
1.740000000000000000e+02,5.689282194339180698e+00
1.750000000000000000e+02,5.704602238897267696e+00
1.760000000000000000e+02,5.719825158568554890e+00
1.770000000000000000e+02,5.734952813421858586e+00
1.780000000000000000e+02,5.749985960824418818e+00
1.790000000000000000e+02,5.764925059108433558e+00
1.800000000000000000e+02,5.779771606859213762e+00
1.810000000000000000e+02,5.794526861337122803e+00
1.820000000000000000e+02,5.809191428470915852e+00
1.830000000000000000e+02,5.823766832411275907e+00
1.840000000000000000e+02,5.838253397830902358e+00
1.850000000000000000e+02,5.852652500920521916e+00
1.860000000000000000e+02,5.866964775306572122e+00
1.870000000000000000e+02,5.881191280825805556e+00
1.880000000000000000e+02,5.895333358605153506e+00
1.890000000000000000e+02,5.909391551780785790e+00
1.900000000000000000e+02,5.923366858894653753e+00
1.910000000000000000e+02,5.937260092314005533e+00
1.920000000000000000e+02,5.951072180114392651e+00
1.930000000000000000e+02,5.964804163473848675e+00
1.940000000000000000e+02,5.978455949610013143e+00
1.950000000000000000e+02,5.992030021704563225e+00
1.960000000000000000e+02,6.005525538748188730e+00
1.970000000000000000e+02,6.018943644491379530e+00
1.980000000000000000e+02,6.032285493221948514e+00
1.990000000000000000e+02,6.045551480959653112e+00
2.000000000000000000e+02,6.058743239194499530e+00
2.010000000000000000e+02,6.071861290355437646e+00
2.020000000000000000e+02,6.084905545978070762e+00
2.030000000000000000e+02,6.097877051175163210e+00
2.040000000000000000e+02,6.110776894815405313e+00
2.050000000000000000e+02,6.123605303403833133e+00
2.060000000000000000e+02,6.136363400002163182e+00
2.070000000000000000e+02,6.149051390081338830e+00
2.080000000000000000e+02,6.161670553699997832e+00
2.090000000000000000e+02,6.174221350503507288e+00
2.100000000000000000e+02,6.186704078648943117e+00
2.110000000000000000e+02,6.199119883278775056e+00
2.120000000000000000e+02,6.211469040634304051e+00
2.130000000000000000e+02,6.223752456113376574e+00
2.140000000000000000e+02,6.235970809082876265e+00
2.150000000000000000e+02,6.248124317465999056e+00
2.160000000000000000e+02,6.260213851873513313e+00
2.170000000000000000e+02,6.272239851901050933e+00
2.180000000000000000e+02,6.284203164379400519e+00
2.190000000000000000e+02,6.296104208859380158e+00
2.200000000000000000e+02,6.307943603502176977e+00
2.210000000000000000e+02,6.319721751061223358e+00
2.220000000000000000e+02,6.331439426936974257e+00
2.230000000000000000e+02,6.343097015901428826e+00
2.240000000000000000e+02,6.354694867140480596e+00
2.250000000000000000e+02,6.366234045875182268e+00
2.260000000000000000e+02,6.377714392286385703e+00
2.270000000000000000e+02,6.389136952312610696e+00
2.280000000000000000e+02,6.400502013133785084e+00
2.290000000000000000e+02,6.411810255593476171e+00
2.300000000000000000e+02,6.423061924459902983e+00
2.310000000000000000e+02,6.434257627776295507e+00
2.320000000000000000e+02,6.445398161521553426e+00
2.330000000000000000e+02,6.456483748233646125e+00
2.340000000000000000e+02,6.467514886413435526e+00
2.350000000000000000e+02,6.478492345853481993e+00
2.360000000000000000e+02,6.489416051225294524e+00
2.370000000000000000e+02,6.500287035549844994e+00
2.380000000000000000e+02,6.511105212796621799e+00
2.390000000000000000e+02,6.521871047692023637e+00
2.400000000000000000e+02,6.532585272355473371e+00
2.410000000000000000e+02,6.543248061727855003e+00
2.420000000000000000e+02,6.553859860233130163e+00
2.430000000000000000e+02,6.564420562481737775e+00
2.440000000000000000e+02,6.574931688371333571e+00
2.450000000000000000e+02,6.585393118137615076e+00
2.460000000000000000e+02,6.595805270953199795e+00
2.470000000000000000e+02,6.606168559986985933e+00
2.480000000000000000e+02,6.616483392521661955e+00
2.490000000000000000e+02,6.626749903500094518e+00
2.500000000000000000e+02,6.636968756982163598e+00
2.510000000000000000e+02,6.647140343245572680e+00
2.520000000000000000e+02,6.657265311253978801e+00
2.530000000000000000e+02,6.667344038106903348e+00
2.540000000000000000e+02,6.677375845542527166e+00
2.550000000000000000e+02,6.687362418558763011e+00
2.560000000000000000e+02,6.697303333601068331e+00
2.570000000000000000e+02,6.707199212330919202e+00
2.580000000000000000e+02,6.717050668459725316e+00
2.590000000000000000e+02,6.726857531827413972e+00
2.600000000000000000e+02,6.736620407459514404e+00
2.610000000000000000e+02,6.746339635574877036e+00
2.620000000000000000e+02,6.756014782485818770e+00
2.630000000000000000e+02,6.765647208979671312e+00
2.640000000000000000e+02,6.775236474721689994e+00
2.650000000000000000e+02,6.784783669518651195e+00
2.660000000000000000e+02,6.794288856041152513e+00
2.670000000000000000e+02,6.803752348574985120e+00
2.680000000000000000e+02,6.813174709538419194e+00
2.690000000000000000e+02,6.822555237166916697e+00
2.700000000000000000e+02,6.831894992416981616e+00
2.710000000000000000e+02,6.841194273770484280e+00
2.720000000000000000e+02,6.850453375937624934e+00
2.730000000000000000e+02,6.859672341149234853e+00
2.740000000000000000e+02,6.868851954975722762e+00
2.750000000000000000e+02,6.877991756855498018e+00
2.760000000000000000e+02,6.887093018152501855e+00
2.770000000000000000e+02,6.896155027154578399e+00
2.780000000000000000e+02,6.905178306620973316e+00
2.790000000000000000e+02,6.914163618219320462e+00
2.800000000000000000e+02,6.923111226768405402e+00
2.810000000000000000e+02,6.932020906669531080e+00
2.820000000000000000e+02,6.940892677137117772e+00
2.830000000000000000e+02,6.949727041430997510e+00
2.840000000000000000e+02,6.958524497224892080e+00
2.850000000000000000e+02,6.967285777853619244e+00
2.860000000000000000e+02,6.976010406130143338e+00
2.870000000000000000e+02,6.984698868957391227e+00
2.880000000000000000e+02,6.993351647954133554e+00
2.890000000000000000e+02,7.001968264491207350e+00
2.900000000000000000e+02,7.010549911446299021e+00
2.910000000000000000e+02,7.019096344019295941e+00
2.920000000000000000e+02,7.027607082336981392e+00
2.930000000000000000e+02,7.036083069440913107e+00
2.940000000000000000e+02,7.044524531214043428e+00
2.950000000000000000e+02,7.052932161613790996e+00
2.960000000000000000e+02,7.061305943292613740e+00
2.970000000000000000e+02,7.069645858669379557e+00
2.980000000000000000e+02,7.077951656259839908e+00
2.990000000000000000e+02,7.086224718359519059e+00
3.000000000000000000e+02,7.094464320795353274e+00
3.010000000000000000e+02,7.102670441837245718e+00
3.020000000000000000e+02,7.110844217092556541e+00
3.030000000000000000e+02,7.118985154518965075e+00
3.040000000000000000e+02,7.127094379358872800e+00
3.050000000000000000e+02,7.135171166815509558e+00
3.060000000000000000e+02,7.143216633584982489e+00
3.070000000000000000e+02,7.151229825861821432e+00
3.080000000000000000e+02,7.159211853515111912e+00
3.090000000000000000e+02,7.167161993105653828e+00
3.100000000000000000e+02,7.175081346284120976e+00
3.110000000000000000e+02,7.182969643351456490e+00
3.120000000000000000e+02,7.190827748557988564e+00
3.130000000000000000e+02,7.198655162913564887e+00
3.140000000000000000e+02,7.206452067636234915e+00
3.150000000000000000e+02,7.214218866955822484e+00
3.160000000000000000e+02,7.221955736853370666e+00
3.170000000000000000e+02,7.229662179590053306e+00
3.180000000000000000e+02,7.237339712696468474e+00
3.190000000000000000e+02,7.244987833406078437e+00
3.200000000000000000e+02,7.252606710513065380e+00
3.210000000000000000e+02,7.260196511077483095e+00
3.220000000000000000e+02,7.267757400449399441e+00
3.230000000000000000e+02,7.275289542292618705e+00
3.240000000000000000e+02,7.282792877902277695e+00
3.250000000000000000e+02,7.290267789249601726e+00
3.260000000000000000e+02,7.297715094480746956e+00
3.270000000000000000e+02,7.305134508002513627e+00
3.280000000000000000e+02,7.312525527333697539e+00
3.290000000000000000e+02,7.319888964587248914e+00
3.300000000000000000e+02,7.327224316838887752e+00
3.310000000000000000e+02,7.334533260911136665e+00
3.320000000000000000e+02,7.341814419621348620e+00
3.330000000000000000e+02,7.349068810573306187e+00
3.340000000000000000e+02,7.356295928853462840e+00
3.350000000000000000e+02,7.363496568590436553e+00
3.360000000000000000e+02,7.370670224595932574e+00
3.370000000000000000e+02,7.377817685669755043e+00
3.380000000000000000e+02,7.384938875673987546e+00
3.390000000000000000e+02,7.392033933022643666e+00
3.400000000000000000e+02,7.399102780983191074e+00
3.410000000000000000e+02,7.406145983386202225e+00
3.420000000000000000e+02,7.413163460491078993e+00
3.430000000000000000e+02,7.420155558123314066e+00
3.440000000000000000e+02,7.427121982621859075e+00
3.450000000000000000e+02,7.434063077713143564e+00
3.460000000000000000e+02,7.440978972886096443e+00
3.470000000000000000e+02,7.447870007449380658e+00
3.480000000000000000e+02,7.454736517961860542e+00
3.490000000000000000e+02,7.461577997248745930e+00
3.500000000000000000e+02,7.468394990963731495e+00
3.510000000000000000e+02,7.475187202580692691e+00
3.520000000000000000e+02,7.481955592154458046e+00
3.530000000000000000e+02,7.488699442693648400e+00
3.540000000000000000e+02,7.495419292295389724e+00
3.550000000000000000e+02,7.502115258993314661e+00
3.560000000000000000e+02,7.508787459752751303e+00
3.570000000000000000e+02,7.515436010483750984e+00
3.580000000000000000e+02,7.522060819165661272e+00
3.590000000000000000e+02,7.528662413775385254e+00
3.600000000000000000e+02,7.535240699880116466e+00
3.610000000000000000e+02,7.541795583488092092e+00
3.620000000000000000e+02,7.548327587391223226e+00
3.630000000000000000e+02,7.554836615265108968e+00
3.640000000000000000e+02,7.561322366490267122e+00
3.650000000000000000e+02,7.567785973055917381e+00
3.660000000000000000e+02,7.574226722595347461e+00
3.670000000000000000e+02,7.580645536993171341e+00
3.680000000000000000e+02,7.587041501467831850e+00
3.690000000000000000e+02,7.593415331332501239e+00
3.700000000000000000e+02,7.599767128864681531e+00
3.710000000000000000e+02,7.606096793119391464e+00
3.720000000000000000e+02,7.612404627635399379e+00
3.730000000000000000e+02,7.618690732072848526e+00
3.740000000000000000e+02,7.624955003899173356e+00
3.750000000000000000e+02,7.631197944097144692e+00
3.760000000000000000e+02,7.637419648816713647e+00
3.770000000000000000e+02,7.643619612317245071e+00
3.780000000000000000e+02,7.649798132086067959e+00
3.790000000000000000e+02,7.655955503498010906e+00
3.800000000000000000e+02,7.662092418633987378e+00
3.810000000000000000e+02,7.668208171433571252e+00
3.820000000000000000e+02,7.674302855195342055e+00
3.830000000000000000e+02,7.680376959332957831e+00
3.840000000000000000e+02,7.686430573721353632e+00
3.850000000000000000e+02,7.692463787495419147e+00
3.860000000000000000e+02,7.698476491543227773e+00
3.870000000000000000e+02,7.704468774465305536e+00
3.880000000000000000e+02,7.710440921038193451e+00
3.890000000000000000e+02,7.716393017506589125e+00
3.900000000000000000e+02,7.722325149414877465e+00
3.910000000000000000e+02,7.728237205618084360e+00
3.920000000000000000e+02,7.734129662574435571e+00
3.930000000000000000e+02,7.740002212074407417e+00
3.940000000000000000e+02,7.745855132927630393e+00
3.950000000000000000e+02,7.751688507283769347e+00
3.960000000000000000e+02,7.757502416636222087e+00
3.970000000000000000e+02,7.763296941829114672e+00
3.980000000000000000e+02,7.769072163064187464e+00
