# Time [s], Mass [Kg]
1.000000000000000000e+00,1.000000000000000000e+00
2.000000000000000000e+00,1.000000000000000000e+00
3.000000000000000000e+00,1.000000000000000000e+00
4.000000000000000000e+00,1.000000000000000000e+00
5.000000000000000000e+00,1.000000000000000000e+00
6.000000000000000000e+00,1.000000000000000000e+00
7.000000000000000000e+00,1.000000000000000000e+00
8.000000000000000000e+00,1.000000000000000000e+00
9.000000000000000000e+00,1.000000000000000000e+00
1.000000000000000000e+01,1.000000000000000000e+00
1.100000000000000000e+01,1.000000000000000000e+00
1.200000000000000000e+01,1.000000000000000000e+00
1.300000000000000000e+01,9.999999400000000316e-01
1.400000000000000000e+01,9.999998199999999837e-01
1.500000000000000000e+01,9.999996399999999674e-01
1.600000000000000000e+01,9.999992800000000459e-01
1.700000000000000000e+01,9.999985700000000310e-01
1.800000000000000000e+01,9.999973199999999673e-01
1.900000000000000000e+01,9.999951700000000443e-01
2.000000000000000000e+01,9.999917099999999781e-01
2.100000000000000000e+01,9.999862299999999760e-01
2.200000000000000000e+01,9.999777100000000196e-01
2.300000000000000000e+01,9.999649499999999636e-01
2.400000000000000000e+01,9.999462999999999546e-01
2.500000000000000000e+01,9.999195899999999693e-01
2.600000000000000000e+01,9.998820999999999959e-01
2.700000000000000000e+01,9.998306000000000138e-01
2.800000000000000000e+01,9.997612200000000060e-01
2.900000000000000000e+01,9.996693100000000332e-01
3.000000000000000000e+01,9.995496900000000462e-01
3.100000000000000000e+01,9.993967999999999741e-01
3.200000000000000000e+01,9.992046399999999773e-01
3.300000000000000000e+01,9.989671700000000154e-01
3.400000000000000000e+01,9.986785099999999638e-01
3.500000000000000000e+01,9.983334499999999556e-01
3.600000000000000000e+01,9.979276700000000444e-01
3.700000000000000000e+01,9.974715100000000056e-01
3.800000000000000000e+01,9.969546799999999820e-01
3.900000000000000000e+01,9.963694199999999501e-01
4.000000000000000000e+01,9.957166899999999599e-01
4.100000000000000000e+01,9.949976799999999955e-01
4.200000000000000000e+01,9.942156699999999958e-01
4.300000000000000000e+01,9.933744700000000094e-01
4.400000000000000000e+01,9.924781299999999584e-01
4.500000000000000000e+01,9.915323299999999618e-01
4.600000000000000000e+01,9.905423500000000159e-01
4.700000000000000000e+01,9.895127999999999702e-01
4.800000000000000000e+01,9.884499300000000321e-01
4.900000000000000000e+01,9.873592300000000321e-01
5.000000000000000000e+01,9.862444999999999684e-01
5.100000000000000000e+01,9.851117700000000532e-01
5.200000000000000000e+01,9.839654599999999585e-01
5.300000000000000000e+01,9.828086499999999504e-01
5.400000000000000000e+01,9.816460000000000186e-01
5.500000000000000000e+01,9.804809100000000388e-01
5.600000000000000000e+01,9.793146799999999930e-01
5.700000000000000000e+01,9.781506699999999999e-01
5.800000000000000000e+01,9.769901600000000519e-01
5.900000000000000000e+01,9.758333599999999830e-01
6.000000000000000000e+01,9.746813800000000416e-01
6.100000000000000000e+01,9.735339899999999602e-01
6.200000000000000000e+01,9.723898199999999603e-01
6.300000000000000000e+01,9.712484500000000409e-01
6.400000000000000000e+01,9.701088700000000120e-01
6.500000000000000000e+01,9.689689900000000300e-01
6.600000000000000000e+01,9.678278000000000159e-01
6.700000000000000000e+01,9.666845200000000471e-01
6.800000000000000000e+01,9.655377899999999514e-01
6.900000000000000000e+01,9.643873600000000268e-01
7.000000000000000000e+01,9.632333499999999882e-01
7.100000000000000000e+01,9.620757100000000284e-01
7.200000000000000000e+01,9.609150899999999718e-01
7.300000000000000000e+01,9.597523799999999605e-01
7.400000000000000000e+01,9.585884199999999966e-01
7.500000000000000000e+01,9.574242800000000164e-01
7.600000000000000000e+01,9.562610999999999750e-01
7.700000000000000000e+01,9.550995799999999480e-01
7.800000000000000000e+01,9.539405699999999877e-01
7.900000000000000000e+01,9.527847200000000294e-01
8.000000000000000000e+01,9.516321399999999597e-01
8.100000000000000000e+01,9.504828499999999902e-01
8.200000000000000000e+01,9.493367099999999725e-01
8.300000000000000000e+01,9.481932499999999875e-01
8.400000000000000000e+01,9.470517600000000202e-01
8.500000000000000000e+01,9.459117700000000406e-01
8.600000000000000000e+01,9.447723599999999777e-01
8.700000000000000000e+01,9.436328999999999967e-01
8.800000000000000000e+01,9.424926599999999821e-01
8.900000000000000000e+01,9.413511199999999857e-01
9.000000000000000000e+01,9.402079599999999537e-01
9.100000000000000000e+01,9.390628300000000150e-01
9.200000000000000000e+01,9.379156800000000294e-01
9.300000000000000000e+01,9.367665600000000259e-01
9.400000000000000000e+01,9.356159600000000243e-01
9.500000000000000000e+01,9.344639799999999719e-01
9.600000000000000000e+01,9.333110999999999491e-01
9.700000000000000000e+01,9.321576999999999780e-01
9.800000000000000000e+01,9.310040499999999719e-01
9.900000000000000000e+01,9.298506399999999505e-01
1.000000000000000000e+02,9.286977100000000096e-01
1.010000000000000000e+02,9.275451900000000194e-01
1.020000000000000000e+02,9.263932099999999670e-01
1.030000000000000000e+02,9.252415299999999787e-01
1.040000000000000000e+02,9.240900899999999751e-01
1.050000000000000000e+02,9.229385300000000347e-01
1.060000000000000000e+02,9.217863699999999660e-01
1.070000000000000000e+02,9.206333199999999772e-01
1.080000000000000000e+02,9.194788900000000487e-01
1.090000000000000000e+02,9.183227400000000262e-01
1.100000000000000000e+02,9.171643900000000516e-01
1.110000000000000000e+02,9.160035300000000102e-01
1.120000000000000000e+02,9.148401600000000133e-01
1.130000000000000000e+02,9.136740599999999546e-01
1.140000000000000000e+02,9.125050900000000187e-01
1.150000000000000000e+02,9.113333200000000023e-01
1.160000000000000000e+02,9.101587500000000164e-01
1.170000000000000000e+02,9.089816200000000457e-01
1.180000000000000000e+02,9.078019899999999476e-01
1.190000000000000000e+02,9.066198500000000049e-01
1.200000000000000000e+02,9.054354999999999487e-01
1.210000000000000000e+02,9.042489500000000513e-01
1.220000000000000000e+02,9.030601999999999796e-01
1.230000000000000000e+02,9.018692999999999849e-01
1.240000000000000000e+02,9.006760099999999714e-01
1.250000000000000000e+02,8.994802800000000209e-01
1.260000000000000000e+02,8.982819300000000062e-01
1.270000000000000000e+02,8.970807800000000221e-01
1.280000000000000000e+02,8.958765899999999727e-01
1.290000000000000000e+02,8.946690000000000476e-01
1.300000000000000000e+02,8.933322399999999996e-01
1.310000000000000000e+02,8.920380500000000268e-01
1.320000000000000000e+02,8.907635200000000308e-01
1.330000000000000000e+02,8.895021699999999809e-01
1.340000000000000000e+02,8.882493399999999983e-01
1.350000000000000000e+02,8.870015700000000169e-01
1.360000000000000000e+02,8.857566700000000237e-01
1.370000000000000000e+02,8.845128399999999669e-01
1.380000000000000000e+02,8.832687099999999569e-01
1.390000000000000000e+02,8.820233299999999943e-01
1.400000000000000000e+02,8.807758700000000163e-01
1.410000000000000000e+02,8.795257800000000348e-01
1.420000000000000000e+02,8.782725300000000512e-01
1.430000000000000000e+02,8.770156500000000355e-01
1.440000000000000000e+02,8.757547700000000157e-01
1.450000000000000000e+02,8.744894300000000120e-01
1.460000000000000000e+02,8.732193099999999708e-01
1.470000000000000000e+02,8.719440099999999916e-01
1.480000000000000000e+02,8.706632300000000102e-01
1.490000000000000000e+02,8.693766600000000233e-01
1.500000000000000000e+02,8.680840100000000170e-01
1.510000000000000000e+02,8.667849300000000090e-01
1.520000000000000000e+02,8.654792900000000122e-01
1.530000000000000000e+02,8.641668599999999811e-01
1.540000000000000000e+02,8.628475700000000082e-01
1.550000000000000000e+02,8.615211799999999975e-01
1.560000000000000000e+02,8.601876499999999703e-01
1.570000000000000000e+02,8.588468400000000003e-01
1.580000000000000000e+02,8.574987600000000265e-01
1.590000000000000000e+02,8.561433000000000515e-01
1.600000000000000000e+02,8.547804399999999747e-01
1.610000000000000000e+02,8.534100700000000206e-01
1.620000000000000000e+02,8.520321800000000279e-01
1.630000000000000000e+02,8.506466200000000200e-01
1.640000000000000000e+02,8.492532400000000203e-01
1.650000000000000000e+02,8.478519899999999998e-01
1.660000000000000000e+02,8.464426400000000239e-01
1.670000000000000000e+02,8.450250599999999945e-01
1.680000000000000000e+02,8.435990799999999457e-01
1.690000000000000000e+02,8.421645199999999720e-01
1.700000000000000000e+02,8.407212499999999755e-01
1.710000000000000000e+02,8.392689800000000533e-01
1.720000000000000000e+02,8.378075999999999857e-01
1.730000000000000000e+02,8.363367900000000521e-01
1.740000000000000000e+02,8.348565100000000516e-01
1.750000000000000000e+02,8.333665099999999493e-01
1.760000000000000000e+02,8.318666200000000011e-01
1.770000000000000000e+02,8.303566000000000003e-01
1.780000000000000000e+02,8.288363800000000392e-01
1.790000000000000000e+02,8.273057299999999614e-01
1.800000000000000000e+02,8.257644800000000229e-01
1.810000000000000000e+02,8.242124299999999959e-01
1.820000000000000000e+02,8.226494199999999646e-01
1.830000000000000000e+02,8.210753200000000529e-01
1.840000000000000000e+02,8.194898400000000249e-01
1.850000000000000000e+02,8.178928500000000046e-01
1.860000000000000000e+02,8.162841199999999464e-01
1.870000000000000000e+02,8.146634699999999452e-01
1.880000000000000000e+02,8.130306600000000161e-01
1.890000000000000000e+02,8.113855700000000004e-01
1.900000000000000000e+02,8.097279699999999636e-01
1.910000000000000000e+02,8.080577300000000296e-01
1.920000000000000000e+02,8.063746699999999601e-01
1.930000000000000000e+02,8.046786200000000111e-01
1.940000000000000000e+02,8.029695700000000214e-01
1.950000000000000000e+02,8.012472999999999956e-01
1.960000000000000000e+02,7.995117299999999760e-01
1.970000000000000000e+02,7.977628700000000128e-01
1.980000000000000000e+02,7.960005999999999471e-01
1.990000000000000000e+02,7.942249200000000009e-01
2.000000000000000000e+02,7.924358200000000130e-01
2.010000000000000000e+02,7.905287100000000233e-01
2.020000000000000000e+02,7.886402599999999818e-01
2.030000000000000000e+02,7.867590800000000550e-01
2.040000000000000000e+02,7.848794500000000340e-01
2.050000000000000000e+02,7.829977299999999474e-01
2.060000000000000000e+02,7.811114799999999692e-01
2.070000000000000000e+02,7.792189699999999553e-01
2.080000000000000000e+02,7.773190100000000324e-01
2.090000000000000000e+02,7.754108299999999954e-01
2.100000000000000000e+02,7.734937699999999694e-01
2.110000000000000000e+02,7.715674000000000143e-01
2.120000000000000000e+02,7.696316199999999608e-01
2.130000000000000000e+02,7.676863699999999513e-01
2.140000000000000000e+02,7.657316299999999964e-01
2.150000000000000000e+02,7.637675400000000225e-01
2.160000000000000000e+02,7.617943299999999640e-01
2.170000000000000000e+02,7.598123599999999644e-01
2.180000000000000000e+02,7.578219200000000377e-01
2.190000000000000000e+02,7.558233699999999944e-01
2.200000000000000000e+02,7.538171999999999651e-01
2.210000000000000000e+02,7.518038700000000407e-01
2.220000000000000000e+02,7.497838700000000189e-01
2.230000000000000000e+02,7.477577300000000093e-01
2.240000000000000000e+02,7.457259899999999497e-01
2.250000000000000000e+02,7.436892400000000292e-01
2.260000000000000000e+02,7.416480800000000428e-01
2.270000000000000000e+02,7.396030399999999894e-01
2.280000000000000000e+02,7.375547900000000157e-01
2.290000000000000000e+02,7.355037899999999906e-01
2.300000000000000000e+02,7.334507700000000296e-01
2.310000000000000000e+02,7.313962000000000518e-01
2.320000000000000000e+02,7.293406700000000242e-01
2.330000000000000000e+02,7.272847900000000143e-01
2.340000000000000000e+02,7.252290799999999704e-01
2.350000000000000000e+02,7.231741000000000419e-01
2.360000000000000000e+02,7.211203600000000158e-01
2.370000000000000000e+02,7.190682900000000544e-01
2.380000000000000000e+02,7.170184299999999844e-01
2.390000000000000000e+02,7.149712400000000079e-01
2.400000000000000000e+02,7.129272199999999726e-01
2.410000000000000000e+02,7.108867199999999720e-01
2.420000000000000000e+02,7.088501499999999567e-01
2.430000000000000000e+02,7.068179799999999569e-01
2.440000000000000000e+02,7.047905899999999946e-01
2.450000000000000000e+02,7.027682100000000043e-01
2.460000000000000000e+02,7.007512999999999659e-01
2.470000000000000000e+02,6.987401800000000440e-01
2.480000000000000000e+02,6.967350199999999827e-01
2.490000000000000000e+02,6.947362400000000049e-01
2.500000000000000000e+02,6.927440799999999843e-01
2.510000000000000000e+02,6.907587600000000272e-01
2.520000000000000000e+02,6.887805500000000469e-01
2.530000000000000000e+02,6.867442700000000455e-01
2.540000000000000000e+02,6.847305900000000278e-01
2.550000000000000000e+02,6.827356199999999875e-01
2.560000000000000000e+02,6.807569900000000063e-01
2.570000000000000000e+02,6.787932500000000147e-01
2.580000000000000000e+02,6.768432899999999863e-01
2.590000000000000000e+02,6.749063699999999777e-01
2.600000000000000000e+02,6.729817999999999634e-01
2.610000000000000000e+02,6.710692000000000323e-01
2.620000000000000000e+02,6.691682300000000305e-01
2.630000000000000000e+02,6.672785900000000048e-01
2.640000000000000000e+02,6.654000899999999996e-01
2.650000000000000000e+02,6.635326099999999672e-01
2.660000000000000000e+02,6.616759899999999917e-01
2.670000000000000000e+02,6.598303300000000204e-01
2.680000000000000000e+02,6.579954000000000081e-01
2.690000000000000000e+02,6.561713200000000024e-01
2.700000000000000000e+02,6.543580300000000349e-01
2.710000000000000000e+02,6.525556399999999924e-01
2.720000000000000000e+02,6.507641699999999751e-01
2.730000000000000000e+02,6.489837200000000417e-01
2.740000000000000000e+02,6.472144100000000178e-01
2.750000000000000000e+02,6.454563100000000331e-01
2.760000000000000000e+02,6.437095400000000245e-01
2.770000000000000000e+02,6.419742699999999580e-01
2.780000000000000000e+02,6.402506799999999609e-01
2.790000000000000000e+02,6.385389599999999888e-01
2.800000000000000000e+02,6.368392099999999889e-01
2.810000000000000000e+02,6.351516799999999963e-01
2.820000000000000000e+02,6.334766099999999955e-01
2.830000000000000000e+02,6.318142399999999714e-01
2.840000000000000000e+02,6.301647400000000010e-01
2.850000000000000000e+02,6.285284799999999450e-01
2.860000000000000000e+02,6.269056800000000207e-01
2.870000000000000000e+02,6.252965900000000410e-01
2.880000000000000000e+02,6.237016300000000069e-01
2.890000000000000000e+02,6.221210400000000140e-01
2.900000000000000000e+02,6.205552199999999630e-01
2.910000000000000000e+02,6.190045499999999867e-01
2.920000000000000000e+02,6.174693100000000490e-01
2.930000000000000000e+02,6.159500500000000267e-01
2.940000000000000000e+02,6.144471799999999817e-01
2.950000000000000000e+02,6.129610500000000073e-01
2.960000000000000000e+02,6.114922200000000307e-01
2.970000000000000000e+02,6.100411999999999502e-01
2.980000000000000000e+02,6.086084800000000072e-01
2.990000000000000000e+02,6.071946599999999972e-01
3.000000000000000000e+02,6.058003899999999664e-01
3.010000000000000000e+02,6.044262099999999638e-01
3.020000000000000000e+02,6.030728199999999539e-01
3.030000000000000000e+02,6.017409000000000230e-01
3.040000000000000000e+02,6.004311399999999743e-01
3.050000000000000000e+02,5.991444599999999898e-01
3.060000000000000000e+02,5.978816200000000025e-01
3.070000000000000000e+02,5.966433899999999957e-01
3.080000000000000000e+02,5.954307300000000192e-01
3.090000000000000000e+02,5.942446000000000117e-01
3.100000000000000000e+02,5.930859400000000337e-01
3.110000000000000000e+02,5.919558400000000109e-01
3.120000000000000000e+02,5.908554200000000201e-01
3.130000000000000000e+02,5.897857499999999975e-01
3.140000000000000000e+02,5.887479799999999486e-01
3.150000000000000000e+02,5.877433399999999475e-01
3.160000000000000000e+02,5.867731000000000474e-01
3.170000000000000000e+02,5.858384399999999603e-01
3.180000000000000000e+02,5.849407300000000198e-01
3.190000000000000000e+02,5.840674599999999828e-01
3.200000000000000000e+02,5.832384200000000352e-01
3.210000000000000000e+02,5.824537300000000029e-01
3.220000000000000000e+02,5.817136200000000423e-01
3.230000000000000000e+02,5.810184499999999641e-01
3.240000000000000000e+02,5.803686999999999596e-01
3.250000000000000000e+02,5.797646600000000427e-01
3.260000000000000000e+02,5.792065299999999972e-01
3.270000000000000000e+02,5.786942800000000053e-01
3.280000000000000000e+02,5.782277599999999795e-01
3.290000000000000000e+02,5.778063500000000241e-01
3.300000000000000000e+02,5.774292300000000155e-01
3.310000000000000000e+02,5.770949699999999849e-01
3.320000000000000000e+02,5.768018999999999785e-01
3.330000000000000000e+02,5.765478600000000231e-01
3.340000000000000000e+02,5.763302999999999621e-01
3.350000000000000000e+02,5.761464200000000480e-01
3.360000000000000000e+02,5.759929400000000088e-01
3.370000000000000000e+02,5.758666399999999852e-01
3.380000000000000000e+02,5.757641799999999588e-01
3.390000000000000000e+02,5.756821600000000538e-01
3.400000000000000000e+02,5.756174899999999539e-01
3.410000000000000000e+02,5.755672499999999747e-01
3.420000000000000000e+02,5.755287399999999831e-01
3.430000000000000000e+02,5.754995899999999498e-01
3.440000000000000000e+02,5.754778999999999867e-01
3.450000000000000000e+02,5.754619199999999601e-01
3.460000000000000000e+02,5.754502999999999702e-01
3.470000000000000000e+02,5.754420199999999985e-01
3.480000000000000000e+02,5.754361700000000246e-01
3.490000000000000000e+02,5.754320600000000230e-01
3.500000000000000000e+02,5.754292600000000535e-01
3.510000000000000000e+02,5.754273500000000041e-01
3.520000000000000000e+02,5.754260399999999720e-01
3.530000000000000000e+02,5.754252100000000203e-01
3.540000000000000000e+02,5.754246699999999715e-01
3.550000000000000000e+02,5.754243100000000499e-01
3.560000000000000000e+02,5.754240800000000045e-01
3.570000000000000000e+02,5.754238999999999882e-01
3.580000000000000000e+02,5.754238400000000198e-01
3.590000000000000000e+02,5.754237800000000513e-01
3.600000000000000000e+02,5.754237199999999719e-01
3.610000000000000000e+02,5.754237199999999719e-01
3.620000000000000000e+02,5.754237199999999719e-01
3.630000000000000000e+02,5.754236600000000035e-01
3.640000000000000000e+02,5.754236600000000035e-01
3.650000000000000000e+02,5.754236600000000035e-01
3.660000000000000000e+02,5.754236600000000035e-01
3.670000000000000000e+02,5.754236600000000035e-01
3.680000000000000000e+02,5.754236600000000035e-01
3.690000000000000000e+02,5.754236600000000035e-01
3.700000000000000000e+02,5.754236600000000035e-01
3.710000000000000000e+02,5.754236600000000035e-01
3.720000000000000000e+02,5.754236600000000035e-01
3.730000000000000000e+02,5.754236600000000035e-01
3.740000000000000000e+02,5.754236600000000035e-01
3.750000000000000000e+02,5.754236600000000035e-01
3.760000000000000000e+02,5.754236600000000035e-01
3.770000000000000000e+02,5.754236600000000035e-01
3.780000000000000000e+02,5.754236600000000035e-01
3.790000000000000000e+02,5.754236600000000035e-01
3.800000000000000000e+02,5.754236600000000035e-01
3.810000000000000000e+02,5.754236600000000035e-01
3.820000000000000000e+02,5.754236600000000035e-01
3.830000000000000000e+02,5.754236600000000035e-01
3.840000000000000000e+02,5.754236600000000035e-01
3.850000000000000000e+02,5.754236600000000035e-01
3.860000000000000000e+02,5.754236600000000035e-01
3.870000000000000000e+02,5.754236600000000035e-01
3.880000000000000000e+02,5.754236600000000035e-01
3.890000000000000000e+02,5.754236600000000035e-01
3.900000000000000000e+02,5.754236600000000035e-01
3.910000000000000000e+02,5.754236600000000035e-01
3.920000000000000000e+02,5.754236600000000035e-01
3.930000000000000000e+02,5.754236600000000035e-01
3.940000000000000000e+02,5.754236600000000035e-01
3.950000000000000000e+02,5.754236600000000035e-01
3.960000000000000000e+02,5.754236600000000035e-01
3.970000000000000000e+02,5.754236600000000035e-01
3.980000000000000000e+02,5.754236600000000035e-01
3.990000000000000000e+02,5.754236600000000035e-01
