# Time [s], Convective Heat Transfer Coefficient [W/m2K]
1.000000000000000000e+00,0.000000000000000000e+00
2.000000000000000000e+00,0.000000000000000000e+00
3.000000000000000000e+00,0.000000000000000000e+00
4.000000000000000000e+00,0.000000000000000000e+00
5.000000000000000000e+00,2.762023300960968902e-02
6.000000000000000000e+00,4.774898591629385403e-02
7.000000000000000000e+00,7.985453566186268004e-02
8.000000000000000000e+00,1.234710622535727942e-01
9.000000000000000000e+00,1.800114507941187603e-01
1.000000000000000000e+01,2.496948001718554133e-01
1.100000000000000000e+01,3.321764318926508919e-01
1.200000000000000000e+01,4.266829563225223998e-01
1.300000000000000000e+01,5.319917277625301200e-01
1.400000000000000000e+01,6.467687273119583358e-01
1.500000000000000000e+01,7.782521222070110101e-01
1.600000000000000000e+01,9.114916426153837348e-01
1.700000000000000000e+01,1.048736143980309343e+00
1.800000000000000000e+01,1.189475592578440155e+00
1.900000000000000000e+01,1.332871908966975605e+00
2.000000000000000000e+01,1.478156094236741769e+00
2.100000000000000000e+01,1.624646527826946851e+00
2.200000000000000000e+01,1.771751384483820413e+00
2.300000000000000000e+01,1.918958153516789444e+00
2.400000000000000000e+01,2.065829974576717021e+00
2.500000000000000000e+01,2.211983728285942696e+00
2.600000000000000000e+01,2.357104131794986568e+00
2.700000000000000000e+01,2.500916081116833389e+00
2.800000000000000000e+01,2.643192302530607218e+00
2.900000000000000000e+01,2.783743839821169797e+00
3.000000000000000000e+01,2.922418494859637228e+00
3.100000000000000000e+01,3.059102645373235951e+00
3.200000000000000000e+01,3.193705440874338386e+00
3.300000000000000000e+01,3.326166072514353367e+00
3.400000000000000000e+01,3.456443959898636731e+00
3.500000000000000000e+01,3.584518018289309271e+00
3.600000000000000000e+01,3.710385718945933053e+00
3.700000000000000000e+01,3.834048920605969357e+00
3.800000000000000000e+01,3.955517377394418777e+00
3.900000000000000000e+01,4.074816852627537678e+00
4.000000000000000000e+01,4.191967456645754098e+00
4.100000000000000000e+01,4.306999734209911779e+00
4.200000000000000000e+01,4.419950329758296270e+00
4.300000000000000000e+01,4.530854394863712997e+00
4.400000000000000000e+01,4.639750247547959283e+00
4.500000000000000000e+01,4.746679620838834879e+00
4.600000000000000000e+01,4.851684651906353452e+00
4.700000000000000000e+01,4.954808274452163985e+00
4.800000000000000000e+01,5.056093322604491291e+00
4.900000000000000000e+01,5.155584388063423340e+00
5.000000000000000000e+01,5.253321369774146987e+00
5.100000000000000000e+01,5.349343595237966653e+00
5.200000000000000000e+01,5.443692727322130942e+00
5.300000000000000000e+01,5.536409274039754358e+00
5.400000000000000000e+01,5.627531273384846600e+00
5.500000000000000000e+01,5.717097864494413706e+00
5.600000000000000000e+01,5.805147993534812478e+00
5.700000000000000000e+01,5.891716092949092598e+00
5.800000000000000000e+01,5.976839323311326169e+00
5.900000000000000000e+01,6.060554517730785129e+00
6.000000000000000000e+01,6.142893117141478676e+00
6.100000000000000000e+01,6.223889866718921304e+00
6.200000000000000000e+01,6.303575887376402065e+00
6.300000000000000000e+01,6.381979731107233711e+00
6.400000000000000000e+01,6.459132414052523252e+00
6.500000000000000000e+01,6.535062162174900102e+00
6.600000000000000000e+01,6.609803514040265782e+00
6.700000000000000000e+01,6.683374253136198817e+00
6.800000000000000000e+01,6.755804731012871045e+00
6.900000000000000000e+01,6.827122450711639701e+00
7.000000000000000000e+01,6.897353557299124915e+00
7.100000000000000000e+01,6.966524151677838006e+00
7.200000000000000000e+01,7.034659561797257155e+00
7.300000000000000000e+01,7.101784860007975375e+00
7.400000000000000000e+01,7.167922363503297589e+00
7.500000000000000000e+01,7.233089182516340365e+00
7.600000000000000000e+01,7.297304917059720175e+00
7.700000000000000000e+01,7.360588618456238130e+00
7.800000000000000000e+01,7.422959673358352717e+00
7.900000000000000000e+01,7.484434422622342709e+00
8.000000000000000000e+01,7.545031537856089265e+00
8.100000000000000000e+01,7.604769603402336209e+00
8.200000000000000000e+01,7.663667516430209048e+00
8.300000000000000000e+01,7.721740140470171987e+00
8.400000000000000000e+01,7.779006143466304479e+00
8.500000000000000000e+01,7.835478758304302183e+00
8.600000000000000000e+01,7.891174060345567121e+00
8.700000000000000000e+01,7.946107430238840585e+00
8.800000000000000000e+01,8.000291405438563430e+00
8.900000000000000000e+01,8.053739477300325689e+00
9.000000000000000000e+01,8.106465492577171972e+00
9.100000000000000000e+01,8.158481343857705070e+00
9.200000000000000000e+01,8.209799696816755699e+00
9.300000000000000000e+01,8.260433770602851666e+00
9.400000000000000000e+01,8.310394423619340998e+00
9.500000000000000000e+01,8.359694146386129177e+00
9.600000000000000000e+01,8.408344980378727129e+00
9.700000000000000000e+01,8.456356089686659416e+00
9.800000000000000000e+01,8.503738617102419184e+00
9.900000000000000000e+01,8.550503494431822560e+00
1.000000000000000000e+02,8.596660505094854798e+00
1.010000000000000000e+02,8.642216465551681992e+00
1.020000000000000000e+02,8.687180963797574762e+00
1.030000000000000000e+02,8.731562686496772585e+00
1.040000000000000000e+02,8.775370377531602983e+00
1.050000000000000000e+02,8.818614040527354092e+00
1.060000000000000000e+02,8.861299363812133123e+00
1.070000000000000000e+02,8.903433685899955208e+00
1.080000000000000000e+02,8.945025040592801346e+00
1.090000000000000000e+02,8.986080386602472103e+00
1.100000000000000000e+02,9.026606950347993319e+00
1.110000000000000000e+02,9.066611360729920577e+00
1.120000000000000000e+02,9.106099676321926850e+00
1.130000000000000000e+02,9.145077130727440107e+00
1.140000000000000000e+02,9.183548584225603051e+00
1.150000000000000000e+02,9.221519365351591446e+00
1.160000000000000000e+02,9.258993203918738146e+00
1.170000000000000000e+02,9.295975139814407484e+00
1.180000000000000000e+02,9.332467976884714744e+00
1.190000000000000000e+02,9.368475703684220335e+00
1.200000000000000000e+02,9.403999873951869759e+00
1.210000000000000000e+02,9.439045215164313163e+00
1.220000000000000000e+02,9.473613772380405251e+00
1.230000000000000000e+02,9.507705782014252094e+00
1.240000000000000000e+02,9.541323077580265988e+00
1.250000000000000000e+02,9.574465967419856227e+00
1.260000000000000000e+02,9.607140514672209974e+00
1.270000000000000000e+02,9.639340705435115453e+00
1.280000000000000000e+02,9.671075380162099222e+00
1.290000000000000000e+02,9.702352702253399741e+00
1.300000000000000000e+02,9.733169433479712751e+00
1.310000000000000000e+02,9.763513870634763947e+00
1.320000000000000000e+02,9.793369150169109361e+00
1.330000000000000000e+02,9.822719942431241691e+00
1.340000000000000000e+02,9.851555526729374179e+00
1.350000000000000000e+02,9.879869404190925408e+00
1.360000000000000000e+02,9.907655709467068306e+00
1.370000000000000000e+02,9.934909303842095696e+00
1.380000000000000000e+02,9.961624214586368709e+00
1.390000000000000000e+02,9.987793532380750960e+00
1.400000000000000000e+02,1.001340872685106120e+01
1.410000000000000000e+02,1.003846118820216482e+01
1.420000000000000000e+02,1.006293979086915158e+01
1.430000000000000000e+02,1.008683347328993563e+01
1.440000000000000000e+02,1.011013236788605241e+01
1.450000000000000000e+02,1.013282570812670080e+01
1.460000000000000000e+02,1.015490376483920798e+01
1.470000000000000000e+02,1.017635679278177108e+01
1.480000000000000000e+02,1.019717704404869529e+01
1.490000000000000000e+02,1.021735647246979539e+01
1.500000000000000000e+02,1.023689130784612900e+01
1.510000000000000000e+02,1.025577795886929700e+01
1.520000000000000000e+02,1.027401588656314502e+01
1.530000000000000000e+02,1.029160721407654222e+01
1.540000000000000000e+02,1.030855734109594124e+01
1.550000000000000000e+02,1.032487467296264860e+01
1.560000000000000000e+02,1.034057014160879540e+01
1.570000000000000000e+02,1.035565892325212722e+01
1.580000000000000000e+02,1.037015941023010157e+01
1.590000000000000000e+02,1.038409209758749263e+01
1.600000000000000000e+02,1.039748228141070108e+01
1.610000000000000000e+02,1.041035645501885121e+01
1.620000000000000000e+02,1.042274436589283404e+01
1.630000000000000000e+02,1.043467674452100447e+01
1.640000000000000000e+02,1.044618682058411707e+01
1.650000000000000000e+02,1.045730957143672235e+01
1.660000000000000000e+02,1.046807927150953432e+01
1.670000000000000000e+02,1.047853165498829675e+01
1.680000000000000000e+02,1.048870211360684301e+01
1.690000000000000000e+02,1.049936209245850094e+01
1.700000000000000000e+02,1.050953150808611980e+01
1.710000000000000000e+02,1.051937810633218184e+01
1.720000000000000000e+02,1.052891761736353970e+01
1.730000000000000000e+02,1.053818953317313500e+01
1.740000000000000000e+02,1.054728406157351017e+01
1.750000000000000000e+02,1.055628687912896524e+01
1.760000000000000000e+02,1.056526220206454170e+01
1.770000000000000000e+02,1.057425203394056723e+01
1.780000000000000000e+02,1.058328858239209325e+01
1.790000000000000000e+02,1.059239527905746492e+01
1.800000000000000000e+02,1.060159403797482724e+01
1.810000000000000000e+02,1.061089975455775125e+01
1.820000000000000000e+02,1.062033043044792358e+01
1.830000000000000000e+02,1.062990113342451259e+01
1.840000000000000000e+02,1.063962608754033745e+01
1.850000000000000000e+02,1.064952063760698131e+01
1.860000000000000000e+02,1.065959907055211886e+01
1.870000000000000000e+02,1.066987904156469646e+01
1.880000000000000000e+02,1.068037435209019570e+01
1.890000000000000000e+02,1.069110143326946627e+01
1.900000000000000000e+02,1.070207869963970282e+01
1.910000000000000000e+02,1.071332601054093558e+01
1.920000000000000000e+02,1.072486006540392367e+01
1.930000000000000000e+02,1.073670194207692852e+01
1.940000000000000000e+02,1.074887572038100636e+01
1.950000000000000000e+02,1.076140459283220352e+01
1.960000000000000000e+02,1.077431237153874477e+01
1.970000000000000000e+02,1.078762587795584516e+01
1.980000000000000000e+02,1.080138090633553816e+01
1.990000000000000000e+02,1.081560407092927711e+01
2.000000000000000000e+02,1.083033714973796791e+01
2.010000000000000000e+02,1.084561773847311450e+01
2.020000000000000000e+02,1.086148581733164065e+01
2.030000000000000000e+02,1.087798970764787043e+01
2.040000000000000000e+02,1.089518559703028977e+01
2.050000000000000000e+02,1.091312496335255666e+01
2.060000000000000000e+02,1.093187788964279328e+01
2.070000000000000000e+02,1.095151586605313376e+01
2.080000000000000000e+02,1.097211310660706118e+01
2.090000000000000000e+02,1.099374472121918167e+01
2.100000000000000000e+02,1.101651712939843542e+01
2.110000000000000000e+02,1.104052938601283529e+01
2.120000000000000000e+02,1.107167539421667080e+01
2.130000000000000000e+02,1.109877632160653782e+01
2.140000000000000000e+02,1.112631869808309482e+01
2.150000000000000000e+02,1.115589989050775088e+01
2.160000000000000000e+02,1.118742470011814305e+01
2.170000000000000000e+02,1.122092425084245093e+01
2.180000000000000000e+02,1.125638871660491702e+01
2.190000000000000000e+02,1.129376853179991436e+01
2.200000000000000000e+02,1.133295918230572852e+01
2.210000000000000000e+02,1.137375970740441389e+01
2.220000000000000000e+02,1.141587254121616546e+01
2.230000000000000000e+02,1.145888015648080049e+01
2.240000000000000000e+02,1.150227424432216061e+01
2.250000000000000000e+02,1.154552224548762496e+01
2.260000000000000000e+02,1.158810432362224674e+01
2.270000000000000000e+02,1.162961507462241784e+01
2.280000000000000000e+02,1.166978110669276525e+01
2.290000000000000000e+02,1.170845643978271511e+01
2.300000000000000000e+02,1.174562346852869865e+01
2.310000000000000000e+02,1.178134343610028445e+01
2.320000000000000000e+02,1.181570898211482579e+01
2.330000000000000000e+02,1.184884480383955996e+01
2.340000000000000000e+02,1.188086558634712198e+01
2.350000000000000000e+02,1.191187507429165748e+01
2.360000000000000000e+02,1.194196578637716932e+01
2.370000000000000000e+02,1.197121861798404296e+01
2.380000000000000000e+02,1.199969949461403118e+01
2.390000000000000000e+02,1.202746409934906957e+01
2.400000000000000000e+02,1.205455978389013438e+01
2.410000000000000000e+02,1.208103141983697704e+01
2.420000000000000000e+02,1.210691239049175039e+01
2.430000000000000000e+02,1.213223846808022088e+01
2.440000000000000000e+02,1.215703828703139600e+01
2.450000000000000000e+02,1.218133761533973036e+01
2.460000000000000000e+02,1.220516060942193803e+01
2.470000000000000000e+02,1.222852923588634688e+01
2.480000000000000000e+02,1.225146426372644903e+01
2.490000000000000000e+02,1.227398226914211499e+01
2.500000000000000000e+02,1.229609943921838422e+01
2.510000000000000000e+02,1.231783127927910826e+01
2.520000000000000000e+02,1.233919340206507975e+01
2.530000000000000000e+02,1.236020030780762369e+01
2.540000000000000000e+02,1.238086151566040805e+01
2.550000000000000000e+02,1.240119101448511429e+01
2.560000000000000000e+02,1.242120036663468241e+01
2.570000000000000000e+02,1.244089572717840930e+01
2.580000000000000000e+02,1.246029097649336137e+01
2.590000000000000000e+02,1.247939204510493916e+01
2.600000000000000000e+02,1.249821067790867168e+01
2.610000000000000000e+02,1.251675396445013533e+01
2.620000000000000000e+02,1.253502828514691281e+01
2.630000000000000000e+02,1.255304051253399145e+01
2.640000000000000000e+02,1.257079674718036344e+01
2.650000000000000000e+02,1.258830373427486649e+01
2.660000000000000000e+02,1.260556974081450576e+01
2.670000000000000000e+02,1.262260240660646105e+01
2.680000000000000000e+02,1.263940325957038979e+01
2.690000000000000000e+02,1.265597751814158656e+01
2.700000000000000000e+02,1.267233054507338785e+01
2.710000000000000000e+02,1.268847104632331835e+01
2.720000000000000000e+02,1.270439884609856307e+01
2.730000000000000000e+02,1.272012163908835625e+01
2.740000000000000000e+02,1.273564089311361691e+01
2.750000000000000000e+02,1.275096250977338741e+01
2.760000000000000000e+02,1.276609174429217752e+01
2.770000000000000000e+02,1.278102733845550176e+01
2.780000000000000000e+02,1.279577754036420068e+01
2.790000000000000000e+02,1.281034537281462171e+01
2.800000000000000000e+02,1.282473282194202646e+01
2.810000000000000000e+02,1.283894333490296447e+01
2.820000000000000000e+02,1.285298059972681628e+01
2.830000000000000000e+02,1.286684875561653207e+01
2.840000000000000000e+02,1.288054970779895569e+01
2.850000000000000000e+02,1.289408575700653614e+01
2.860000000000000000e+02,1.290745840128548139e+01
2.870000000000000000e+02,1.292067409447129300e+01
2.880000000000000000e+02,1.293373383971269774e+01
2.890000000000000000e+02,1.294663813383998097e+01
2.900000000000000000e+02,1.295939331531819327e+01
2.910000000000000000e+02,1.297199912485964823e+01
2.920000000000000000e+02,1.298445751845349960e+01
2.930000000000000000e+02,1.299677195327924473e+01
2.940000000000000000e+02,1.300894356960665021e+01
2.950000000000000000e+02,1.302097494119075449e+01
2.960000000000000000e+02,1.303287054480480833e+01
2.970000000000000000e+02,1.304462979543353640e+01
2.980000000000000000e+02,1.305625389054965524e+01
2.990000000000000000e+02,1.306774689110069687e+01
3.000000000000000000e+02,1.307911070136879772e+01
3.010000000000000000e+02,1.309034727421714273e+01
3.020000000000000000e+02,1.310145711063758789e+01
3.030000000000000000e+02,1.311244260831974096e+01
3.040000000000000000e+02,1.312330566703640145e+01
3.050000000000000000e+02,1.313404755738121032e+01
3.060000000000000000e+02,1.314467061990116292e+01
3.070000000000000000e+02,1.315517582163374044e+01
3.080000000000000000e+02,1.316556573885461567e+01
3.090000000000000000e+02,1.317584097088082018e+01
3.100000000000000000e+02,1.318600318536466531e+01
3.110000000000000000e+02,1.319605416910454743e+01
3.120000000000000000e+02,1.320599562602232169e+01
3.130000000000000000e+02,1.321582924505834811e+01
3.140000000000000000e+02,1.322555636590196571e+01
3.150000000000000000e+02,1.323517744715083033e+01
3.160000000000000000e+02,1.324469460858661662e+01
3.170000000000000000e+02,1.325410975362511756e+01
3.180000000000000000e+02,1.326342304065016897e+01
3.190000000000000000e+02,1.327263568627829038e+01
3.200000000000000000e+02,1.328175009082499614e+01
3.210000000000000000e+02,1.329076744475401917e+01
3.220000000000000000e+02,1.329968859744365339e+01
3.230000000000000000e+02,1.330851425787188624e+01
3.240000000000000000e+02,1.331724605172644793e+01
3.250000000000000000e+02,1.332588552674518034e+01
3.260000000000000000e+02,1.333443389007330282e+01
3.270000000000000000e+02,1.334289141883994922e+01
3.280000000000000000e+02,1.335125930487886237e+01
3.290000000000000000e+02,1.335953984585059651e+01
3.300000000000000000e+02,1.336773375277902431e+01
3.310000000000000000e+02,1.337584173022096401e+01
3.320000000000000000e+02,1.338386454173106443e+01
3.330000000000000000e+02,1.339180366231369312e+01
3.340000000000000000e+02,1.339965970962682462e+01
3.350000000000000000e+02,1.340743427249086395e+01
3.360000000000000000e+02,1.341512717345622718e+01
3.370000000000000000e+02,1.342274063720740251e+01
3.380000000000000000e+02,1.343027538310893121e+01
3.390000000000000000e+02,1.343773244895784913e+01
3.400000000000000000e+02,1.344511202369818292e+01
3.410000000000000000e+02,1.345241603956549703e+01
3.420000000000000000e+02,1.345964435037727114e+01
3.430000000000000000e+02,1.346679906746476796e+01
3.440000000000000000e+02,1.347387964732106269e+01
3.450000000000000000e+02,1.348088876717959650e+01
3.460000000000000000e+02,1.348782497288058835e+01
3.470000000000000000e+02,1.349469086385441230e+01
3.480000000000000000e+02,1.350148671514563503e+01
3.490000000000000000e+02,1.350821311948804038e+01
3.500000000000000000e+02,1.351487098576169643e+01
3.510000000000000000e+02,1.352146172958546266e+01
3.520000000000000000e+02,1.352798509614147093e+01
3.530000000000000000e+02,1.353444300251751997e+01
3.540000000000000000e+02,1.354083544142690876e+01
3.550000000000000000e+02,1.354716310551653180e+01
3.560000000000000000e+02,1.355342687432650450e+01
3.570000000000000000e+02,1.355962774982722863e+01
3.580000000000000000e+02,1.356576590179982489e+01
3.590000000000000000e+02,1.357184264176944666e+01
3.600000000000000000e+02,1.357785813210025161e+01
3.610000000000000000e+02,1.358381367499652548e+01
3.620000000000000000e+02,1.358970986939302428e+01
3.630000000000000000e+02,1.359554686740325380e+01
3.640000000000000000e+02,1.360132551525283162e+01
3.650000000000000000e+02,1.360704640201185001e+01
3.660000000000000000e+02,1.361271042927275232e+01
3.670000000000000000e+02,1.361831811559531502e+01
3.680000000000000000e+02,1.362386997654345677e+01
3.690000000000000000e+02,1.362936620965000145e+01
3.700000000000000000e+02,1.363480877362674981e+01
3.710000000000000000e+02,1.364019710306360089e+01
3.720000000000000000e+02,1.364553207911484556e+01
3.730000000000000000e+02,1.365081457901666617e+01
3.740000000000000000e+02,1.365604466014119112e+01
3.750000000000000000e+02,1.366122369576501505e+01
3.760000000000000000e+02,1.366635136166573972e+01
3.770000000000000000e+02,1.367142814771704984e+01
3.780000000000000000e+02,1.367645497936886834e+01
3.790000000000000000e+02,1.368143227802067941e+01
3.800000000000000000e+02,1.368636102528512843e+01
3.810000000000000000e+02,1.369124157449223667e+01
3.820000000000000000e+02,1.369607483865997288e+01
3.830000000000000000e+02,1.370086054245064133e+01
3.840000000000000000e+02,1.370559990601150169e+01
3.850000000000000000e+02,1.371029271289670071e+01
3.860000000000000000e+02,1.371493936870530561e+01
3.870000000000000000e+02,1.371954071240582174e+01
3.880000000000000000e+02,1.372409764202163096e+01
3.890000000000000000e+02,1.372860987230317242e+01
3.900000000000000000e+02,1.373307898000563831e+01
3.910000000000000000e+02,1.373750424193917219e+01
3.920000000000000000e+02,1.374188660971273990e+01
3.930000000000000000e+02,1.374622604054533781e+01
3.940000000000000000e+02,1.375052422453323864e+01
3.950000000000000000e+02,1.375478086689656010e+01
3.960000000000000000e+02,1.375899598206037489e+01
3.970000000000000000e+02,1.376317038708069518e+01
3.980000000000000000e+02,1.376730495810718047e+01
