# Time [s], Convective Heat Transfer Coefficient [W/m2K]
1.000000000000000000e+00,0.000000000000000000e+00
2.000000000000000000e+00,0.000000000000000000e+00
3.000000000000000000e+00,0.000000000000000000e+00
4.000000000000000000e+00,0.000000000000000000e+00
5.000000000000000000e+00,3.040000000141642594e-02
6.000000000000000000e+00,5.446232763987680220e-02
7.000000000000000000e+00,8.918545748856174238e-02
8.000000000000000000e+00,1.367999999999848504e-01
9.000000000000000000e+00,1.977198483993441447e-01
1.000000000000000000e+01,2.721062629788153497e-01
1.100000000000000000e+01,3.595798238537634139e-01
1.200000000000000000e+01,4.591477033362739713e-01
1.300000000000000000e+01,5.695659629116137657e-01
1.400000000000000000e+01,6.893893913118454009e-01
1.500000000000000000e+01,8.171628736034196594e-01
1.600000000000000000e+01,9.604053120013393841e-01
1.700000000000000000e+01,1.103757215533435199e+00
1.800000000000000000e+01,1.249795894929855766e+00
1.900000000000000000e+01,1.398202429554846526e+00
2.000000000000000000e+01,1.548280636169696800e+00
2.100000000000000000e+01,1.699400927198739364e+00
2.200000000000000000e+01,1.850991337422731364e+00
2.300000000000000000e+01,2.002558044313745178e+00
2.400000000000000000e+01,2.153677302130291515e+00
2.500000000000000000e+01,2.303986820108505196e+00
2.600000000000000000e+01,2.453166885605229997e+00
2.700000000000000000e+01,2.600954760486316797e+00
2.800000000000000000e+01,2.747128240092935325e+00
2.900000000000000000e+01,2.891504377552195582e+00
3.000000000000000000e+01,3.033935396218804481e+00
3.100000000000000000e+01,3.174314541367263764e+00
3.200000000000000000e+01,3.312558278718519045e+00
3.300000000000000000e+01,3.448615139019326481e+00
3.400000000000000000e+01,3.582447162400568264e+00
3.500000000000000000e+01,3.714040017626016432e+00
3.600000000000000000e+01,3.843390053350895563e+00
3.700000000000000000e+01,3.970500282194817654e+00
3.800000000000000000e+01,4.095383741026347835e+00
3.900000000000000000e+01,4.218064388163006662e+00
4.000000000000000000e+01,4.338563959425383310e+00
4.100000000000000000e+01,4.456916367972518778e+00
4.200000000000000000e+01,4.573155833431324702e+00
4.300000000000000000e+01,4.687323709989026810e+00
4.400000000000000000e+01,4.799457210852764888e+00
4.500000000000000000e+01,4.909599174406465316e+00
4.600000000000000000e+01,5.017789630160165437e+00
4.700000000000000000e+01,5.124075343600512866e+00
4.800000000000000000e+01,5.228497016876990422e+00
4.900000000000000000e+01,5.331092295745675003e+00
5.000000000000000000e+01,5.431903510491400411e+00
5.100000000000000000e+01,5.530974577940789061e+00
5.200000000000000000e+01,5.628341656442985119e+00
5.300000000000000000e+01,5.724049444921242902e+00
5.400000000000000000e+01,5.818136528766465254e+00
5.500000000000000000e+01,5.910638323563585317e+00
5.600000000000000000e+01,6.001595353879698891e+00
5.700000000000000000e+01,6.091043407496506745e+00
5.800000000000000000e+01,6.179016140750630548e+00
5.900000000000000000e+01,6.265547563108798457e+00
6.000000000000000000e+01,6.350673815651489029e+00
6.100000000000000000e+01,6.434422187858001685e+00
6.200000000000000000e+01,6.516825287498899222e+00
6.300000000000000000e+01,6.597916298310644301e+00
6.400000000000000000e+01,6.677722119746591467e+00
6.500000000000000000e+01,6.756286111697392904e+00
6.600000000000000000e+01,6.833616800502761102e+00
6.700000000000000000e+01,6.909748786829393197e+00
6.800000000000000000e+01,6.984709666526122795e+00
6.900000000000000000e+01,7.058527306298927328e+00
7.000000000000000000e+01,7.131227251167693737e+00
7.100000000000000000e+01,7.202841049074174329e+00
7.200000000000000000e+01,7.273397015933443122e+00
7.300000000000000000e+01,7.342921175584605109e+00
7.400000000000000000e+01,7.411439160137062387e+00
7.500000000000000000e+01,7.478972882281559542e+00
7.600000000000000000e+01,7.545544550904327075e+00
7.700000000000000000e+01,7.611173803805294291e+00
7.800000000000000000e+01,7.675880297450381029e+00
7.900000000000000000e+01,7.739680177414443030e+00
8.000000000000000000e+01,7.802589043660987933e+00
8.100000000000000000e+01,7.864621604800185573e+00
8.200000000000000000e+01,7.925794346469864138e+00
8.300000000000000000e+01,7.986119882921395075e+00
8.400000000000000000e+01,8.045613385368056925e+00
8.500000000000000000e+01,8.104288646941375518e+00
8.600000000000000000e+01,8.162159230079037542e+00
8.700000000000000000e+01,8.219238478022466765e+00
8.800000000000000000e+01,8.275539525968920174e+00
8.900000000000000000e+01,8.331073793955209084e+00
9.000000000000000000e+01,8.385853593087828628e+00
9.100000000000000000e+01,8.439891736820205992e+00
9.200000000000000000e+01,8.493198424530632451e+00
9.300000000000000000e+01,8.545783324818197357e+00
9.400000000000000000e+01,8.597655605140317903e+00
9.500000000000000000e+01,8.648826306567993782e+00
9.600000000000000000e+01,8.699303592790421646e+00
9.700000000000000000e+01,8.749096889547290701e+00
9.800000000000000000e+01,8.798216056188925549e+00
9.900000000000000000e+01,8.846670164908868372e+00
1.000000000000000000e+02,8.894467395238768503e+00
1.010000000000000000e+02,8.941615959429450200e+00
1.020000000000000000e+02,8.988123810493412691e+00
1.030000000000000000e+02,9.033998942093312223e+00
1.040000000000000000e+02,9.079247114385239570e+00
1.050000000000000000e+02,9.123874072623360476e+00
1.060000000000000000e+02,9.167884850150752385e+00
1.070000000000000000e+02,9.211285456333751398e+00
1.080000000000000000e+02,9.254082009892144356e+00
1.090000000000000000e+02,9.296278159908975880e+00
1.100000000000000000e+02,9.337878686000591344e+00
1.110000000000000000e+02,9.378887583870854527e+00
1.120000000000000000e+02,9.419309549342104404e+00
1.130000000000000000e+02,9.459147592646161229e+00
1.140000000000000000e+02,9.498405313128007066e+00
1.150000000000000000e+02,9.537083527334553779e+00
1.160000000000000000e+02,9.575184464014901309e+00
1.170000000000000000e+02,9.612707398381923340e+00
1.180000000000000000e+02,9.649652660006074356e+00
1.190000000000000000e+02,9.686016847295078946e+00
1.200000000000000000e+02,9.721848324238855810e+00
1.210000000000000000e+02,9.757078119227603707e+00
1.220000000000000000e+02,9.791736309041720432e+00
1.230000000000000000e+02,9.825838308439037050e+00
1.240000000000000000e+02,9.859377804861537697e+00
1.250000000000000000e+02,9.892330602187552557e+00
1.260000000000000000e+02,9.924666484126293042e+00
1.270000000000000000e+02,9.956359415962475978e+00
1.280000000000000000e+02,9.987392073630978473e+00
1.290000000000000000e+02,1.001774994855452761e+01
1.300000000000000000e+02,1.004741660260411606e+01
1.310000000000000000e+02,1.007637877530921067e+01
1.320000000000000000e+02,1.010461813108429396e+01
1.330000000000000000e+02,1.013211764771682866e+01
1.340000000000000000e+02,1.015885985261508395e+01
1.350000000000000000e+02,1.018482624320368046e+01
1.360000000000000000e+02,1.020999863164944088e+01
1.370000000000000000e+02,1.023436123041475732e+01
1.380000000000000000e+02,1.025790023276002039e+01
1.390000000000000000e+02,1.028060340896500691e+01
1.400000000000000000e+02,1.030246401799042921e+01
1.410000000000000000e+02,1.032347836609905478e+01
1.420000000000000000e+02,1.034364726452197658e+01
1.430000000000000000e+02,1.036297811568603677e+01
1.440000000000000000e+02,1.038148446730125585e+01
1.450000000000000000e+02,1.039918375058091193e+01
1.460000000000000000e+02,1.041610068678660284e+01
1.470000000000000000e+02,1.043226569105449109e+01
1.480000000000000000e+02,1.044771385537911712e+01
1.490000000000000000e+02,1.046248492148407294e+01
1.500000000000000000e+02,1.047662603417522753e+01
1.510000000000000000e+02,1.049018392663969657e+01
1.520000000000000000e+02,1.050321123729375472e+01
1.530000000000000000e+02,1.051576172261900943e+01
1.540000000000000000e+02,1.052789018642983443e+01
1.550000000000000000e+02,1.053965177407904896e+01
1.560000000000000000e+02,1.055110116645580298e+01
1.570000000000000000e+02,1.056229240863918761e+01
1.580000000000000000e+02,1.057327685013595087e+01
1.590000000000000000e+02,1.058530905031736502e+01
1.600000000000000000e+02,1.059681276819133444e+01
1.610000000000000000e+02,1.060799863407092403e+01
1.620000000000000000e+02,1.061889572413318206e+01
1.630000000000000000e+02,1.062960524951365393e+01
1.640000000000000000e+02,1.064029468571585113e+01
1.650000000000000000e+02,1.065107175660317473e+01
1.660000000000000000e+02,1.066199388482907828e+01
1.670000000000000000e+02,1.067309910480695834e+01
1.680000000000000000e+02,1.068442029701931340e+01
1.690000000000000000e+02,1.069597960078582588e+01
1.700000000000000000e+02,1.070779944202774558e+01
1.710000000000000000e+02,1.071990272279738043e+01
1.720000000000000000e+02,1.073231697051546085e+01
1.730000000000000000e+02,1.074506636139212823e+01
1.740000000000000000e+02,1.075817669956986400e+01
1.750000000000000000e+02,1.077168183700382009e+01
1.760000000000000000e+02,1.078561087140294816e+01
1.770000000000000000e+02,1.080000283475737177e+01
1.780000000000000000e+02,1.081489422121521571e+01
1.790000000000000000e+02,1.083033255898871872e+01
1.800000000000000000e+02,1.084636566294733839e+01
1.810000000000000000e+02,1.086304812437482958e+01
1.820000000000000000e+02,1.088043244339406890e+01
1.830000000000000000e+02,1.089859096903396107e+01
1.840000000000000000e+02,1.091759937323654839e+01
1.850000000000000000e+02,1.093753706371925816e+01
1.860000000000000000e+02,1.095850004436101877e+01
1.870000000000000000e+02,1.098060218013877432e+01
1.880000000000000000e+02,1.100395654127878764e+01
1.890000000000000000e+02,1.102869498406557014e+01
1.900000000000000000e+02,1.105498197850086939e+01
1.910000000000000000e+02,1.108298063402115297e+01
1.920000000000000000e+02,1.111288435412287789e+01
1.930000000000000000e+02,1.114488797936500220e+01
1.940000000000000000e+02,1.117921631668264126e+01
1.950000000000000000e+02,1.121608799375817789e+01
1.960000000000000000e+02,1.125568431325929808e+01
1.970000000000000000e+02,1.129817300619738596e+01
1.980000000000000000e+02,1.134358750254495796e+01
1.990000000000000000e+02,1.139182757683366454e+01
2.000000000000000000e+02,1.144255166785204203e+01
2.010000000000000000e+02,1.149512845816876450e+01
2.020000000000000000e+02,1.154866473889980938e+01
2.030000000000000000e+02,1.160211151703547294e+01
2.040000000000000000e+02,1.165447288028767758e+01
2.050000000000000000e+02,1.170499000564720937e+01
2.060000000000000000e+02,1.175326027499381354e+01
2.070000000000000000e+02,1.179917864859683974e+01
2.080000000000000000e+02,1.184283871092301865e+01
2.090000000000000000e+02,1.188445803662837541e+01
2.100000000000000000e+02,1.192431251883783005e+01
2.110000000000000000e+02,1.196264824449169595e+01
2.120000000000000000e+02,1.199965486298605732e+01
2.130000000000000000e+02,1.203546243496395718e+01
2.140000000000000000e+02,1.207018293682331667e+01
2.150000000000000000e+02,1.210390649956670295e+01
2.160000000000000000e+02,1.213670693031875025e+01
2.170000000000000000e+02,1.216865127273004532e+01
2.180000000000000000e+02,1.219979503647343932e+01
2.190000000000000000e+02,1.223018600323895910e+01
2.200000000000000000e+02,1.225986673091226287e+01
2.210000000000000000e+02,1.228888069269708794e+01
2.220000000000000000e+02,1.231725771276800430e+01
2.230000000000000000e+02,1.234503113278339193e+01
2.240000000000000000e+02,1.237222919408676702e+01
2.250000000000000000e+02,1.239887791465340428e+01
2.260000000000000000e+02,1.242500161174875828e+01
2.270000000000000000e+02,1.245061955719071811e+01
2.280000000000000000e+02,1.247575466928532073e+01
2.290000000000000000e+02,1.250042184173308257e+01
2.300000000000000000e+02,1.252463990353690626e+01
2.310000000000000000e+02,1.254842530853474436e+01
2.320000000000000000e+02,1.257179004243843679e+01
2.330000000000000000e+02,1.259475019976524557e+01
2.340000000000000000e+02,1.261731863702839718e+01
2.350000000000000000e+02,1.263950745589135316e+01
2.360000000000000000e+02,1.266132575884387990e+01
2.370000000000000000e+02,1.268278494546425428e+01
2.380000000000000000e+02,1.270389461657574870e+01
2.390000000000000000e+02,1.272466427156359714e+01
2.400000000000000000e+02,1.274510295385847591e+01
2.410000000000000000e+02,1.276521710701899437e+01
2.420000000000000000e+02,1.278501720732647229e+01
2.430000000000000000e+02,1.280450906585971005e+01
2.440000000000000000e+02,1.282370109204582143e+01
2.450000000000000000e+02,1.284259843768325915e+01
2.460000000000000000e+02,1.286120920416692037e+01
2.470000000000000000e+02,1.287953889804086849e+01
2.480000000000000000e+02,1.289759194801826325e+01
2.490000000000000000e+02,1.291537698498200726e+01
2.500000000000000000e+02,1.293289705835233150e+01
2.510000000000000000e+02,1.295015767067694767e+01
2.520000000000000000e+02,1.296716368321315471e+01
2.530000000000000000e+02,1.298392099248503584e+01
2.540000000000000000e+02,1.300043388671484657e+01
2.550000000000000000e+02,1.301670762404671322e+01
2.560000000000000000e+02,1.303274600974069486e+01
2.570000000000000000e+02,1.304855285913048135e+01
2.580000000000000000e+02,1.306413261588310881e+01
2.590000000000000000e+02,1.307948788232954129e+01
2.600000000000000000e+02,1.309462585927907341e+01
2.610000000000000000e+02,1.310954766866150401e+01
2.620000000000000000e+02,1.312425766636977187e+01
2.630000000000000000e+02,1.313875886346637856e+01
2.640000000000000000e+02,1.315305551318046895e+01
2.650000000000000000e+02,1.316715134288930322e+01
2.660000000000000000e+02,1.318104801109839919e+01
2.670000000000000000e+02,1.319475010537968629e+01
2.680000000000000000e+02,1.320826075133934552e+01
2.690000000000000000e+02,1.322158283384391098e+01
2.700000000000000000e+02,1.323471819817873296e+01
2.710000000000000000e+02,1.324767159622383872e+01
2.720000000000000000e+02,1.326044533309302054e+01
2.730000000000000000e+02,1.327304248087529004e+01
2.740000000000000000e+02,1.328546428542449753e+01
2.750000000000000000e+02,1.329771508263402602e+01
2.760000000000000000e+02,1.330979771115989685e+01
2.770000000000000000e+02,1.332171313100662680e+01
2.780000000000000000e+02,1.333346465476988385e+01
2.790000000000000000e+02,1.334505496949978998e+01
2.800000000000000000e+02,1.335648673331743908e+01
2.810000000000000000e+02,1.336776133156438462e+01
2.820000000000000000e+02,1.337888248484979847e+01
2.830000000000000000e+02,1.338985165976740177e+01
2.840000000000000000e+02,1.340067160789663347e+01
2.850000000000000000e+02,1.341134381762893746e+01
2.860000000000000000e+02,1.342187092888215716e+01
2.870000000000000000e+02,1.343225484294703698e+01
2.880000000000000000e+02,1.344249744120284085e+01
2.890000000000000000e+02,1.345260123245082262e+01
2.900000000000000000e+02,1.346256883190119780e+01
2.910000000000000000e+02,1.347240167096790131e+01
2.920000000000000000e+02,1.348210110106847814e+01
2.930000000000000000e+02,1.349167000217940249e+01
2.940000000000000000e+02,1.350110930449407931e+01
2.950000000000000000e+02,1.351042229916657966e+01
2.960000000000000000e+02,1.351960949886437824e+01
2.970000000000000000e+02,1.352867300611735857e+01
2.980000000000000000e+02,1.353761484216026290e+01
2.990000000000000000e+02,1.354643656505497695e+01
3.000000000000000000e+02,1.355513997378412583e+01
3.010000000000000000e+02,1.356372653431025377e+01
3.020000000000000000e+02,1.357219757257745663e+01
3.030000000000000000e+02,1.358055687789803301e+01
3.040000000000000000e+02,1.358880301754775566e+01
3.050000000000000000e+02,1.359693943614219513e+01
3.060000000000000000e+02,1.360496728013974277e+01
3.070000000000000000e+02,1.361288819118703053e+01
3.080000000000000000e+02,1.362070354627002011e+01
3.090000000000000000e+02,1.362841458549261198e+01
3.100000000000000000e+02,1.363602354622875090e+01
3.110000000000000000e+02,1.364353107946562638e+01
3.120000000000000000e+02,1.365093877143732470e+01
3.130000000000000000e+02,1.365824769543248962e+01
3.140000000000000000e+02,1.366545998182492916e+01
3.150000000000000000e+02,1.367257637055380748e+01
3.160000000000000000e+02,1.367959834540889297e+01
3.170000000000000000e+02,1.368652694301080786e+01
3.180000000000000000e+02,1.369336425353398567e+01
3.190000000000000000e+02,1.370011141987150260e+01
3.200000000000000000e+02,1.370676826864752584e+01
3.210000000000000000e+02,1.371333810972743628e+01
3.220000000000000000e+02,1.371982081677209209e+01
3.230000000000000000e+02,1.372621818690166329e+01
3.240000000000000000e+02,1.373253076607034906e+01
3.250000000000000000e+02,1.373875996354009565e+01
3.260000000000000000e+02,1.374490742845795843e+01
3.270000000000000000e+02,1.375097356317705177e+01
3.280000000000000000e+02,1.375695950817539881e+01
3.290000000000000000e+02,1.376286713892853086e+01
3.300000000000000000e+02,1.376869690173489147e+01
3.310000000000000000e+02,1.377445059622811208e+01
3.320000000000000000e+02,1.378012804097622457e+01
3.330000000000000000e+02,1.378573083905101448e+01
3.340000000000000000e+02,1.379125997054848618e+01
3.350000000000000000e+02,1.379671671767752095e+01
3.360000000000000000e+02,1.380210204918137862e+01
3.370000000000000000e+02,1.380741643746194924e+01
3.380000000000000000e+02,1.381266121038123629e+01
3.390000000000000000e+02,1.381783732190609726e+01
3.400000000000000000e+02,1.382294553740773679e+01
3.410000000000000000e+02,1.382798686297496360e+01
3.420000000000000000e+02,1.383296217756316082e+01
3.430000000000000000e+02,1.383787235580024522e+01
3.440000000000000000e+02,1.384271863461654029e+01
3.450000000000000000e+02,1.384750114693393286e+01
3.460000000000000000e+02,1.385222154878090173e+01
3.470000000000000000e+02,1.385687990498166577e+01
3.480000000000000000e+02,1.386147755801525960e+01
3.490000000000000000e+02,1.386601529730624094e+01
3.500000000000000000e+02,1.387049390872690147e+01
3.510000000000000000e+02,1.387491405305940084e+01
3.520000000000000000e+02,1.387927644875566280e+01
3.530000000000000000e+02,1.388358199327109510e+01
3.540000000000000000e+02,1.388783115563979464e+01
3.550000000000000000e+02,1.389202555490949464e+01
3.560000000000000000e+02,1.389616480448484737e+01
3.570000000000000000e+02,1.390025027440623973e+01
3.580000000000000000e+02,1.390428266423599268e+01
3.590000000000000000e+02,1.390826248919825048e+01
3.600000000000000000e+02,1.391219020171130083e+01
3.610000000000000000e+02,1.391606734009630664e+01
3.620000000000000000e+02,1.391989404864967206e+01
3.630000000000000000e+02,1.392367077220583305e+01
3.640000000000000000e+02,1.392739861743538121e+01
3.650000000000000000e+02,1.393107778288388765e+01
3.660000000000000000e+02,1.393470930969506760e+01
3.670000000000000000e+02,1.393829333207304977e+01
3.680000000000000000e+02,1.394183148861280053e+01
3.690000000000000000e+02,1.394532294574564446e+01
3.700000000000000000e+02,1.394876969839534731e+01
3.710000000000000000e+02,1.395217151170567149e+01
3.720000000000000000e+02,1.395552905203391170e+01
3.730000000000000000e+02,1.395884352433225750e+01
3.740000000000000000e+02,1.396211432900799387e+01
3.750000000000000000e+02,1.396534326766630585e+01
3.760000000000000000e+02,1.396853045800211923e+01
3.770000000000000000e+02,1.397167589683848909e+01
3.780000000000000000e+02,1.397478119867223612e+01
3.790000000000000000e+02,1.397784593736707315e+01
3.800000000000000000e+02,1.398087100439638597e+01
3.810000000000000000e+02,1.398385669040280632e+01
3.820000000000000000e+02,1.398680430212179360e+01
3.830000000000000000e+02,1.398971334909727382e+01
3.840000000000000000e+02,1.399258477598753281e+01
3.850000000000000000e+02,1.399541922648480963e+01
3.860000000000000000e+02,1.399821680500626719e+01
3.870000000000000000e+02,1.400097863041341384e+01
3.880000000000000000e+02,1.400370438662835681e+01
3.890000000000000000e+02,1.400639524928047130e+01
3.900000000000000000e+02,1.400905084084152641e+01
3.910000000000000000e+02,1.401167233409650237e+01
3.920000000000000000e+02,1.401426006513734457e+01
3.930000000000000000e+02,1.401681448824561294e+01
3.940000000000000000e+02,1.401933558009545777e+01
3.950000000000000000e+02,1.402182421001553436e+01
3.960000000000000000e+02,1.402428106710044986e+01
3.970000000000000000e+02,1.402670582759736106e+01
3.980000000000000000e+02,1.402909965470317033e+01
