# Time [s], Thickness [m]
1.000000000000000000e+00,8.000000400000000303e-03
2.000000000000000000e+00,8.000000400000000303e-03
3.000000000000000000e+00,8.000000400000000303e-03
4.000000000000000000e+00,8.000000400000000303e-03
5.000000000000000000e+00,8.000000400000000303e-03
6.000000000000000000e+00,7.999999400000000829e-03
7.000000000000000000e+00,7.999998499999999221e-03
8.000000000000000000e+00,7.999990099999999826e-03
9.000000000000000000e+00,7.999956600000000112e-03
1.000000000000000000e+01,7.999844799999999284e-03
1.100000000000000000e+01,7.999530100000000823e-03
1.200000000000000000e+01,7.998781300000000483e-03
1.300000000000000000e+01,7.997229700000000469e-03
1.400000000000000000e+01,7.994416199999999917e-03
1.500000000000000000e+01,7.989937399999999176e-03
1.600000000000000000e+01,7.983787900000000742e-03
1.700000000000000000e+01,7.976300999999999877e-03
1.800000000000000000e+01,7.967517699999999287e-03
1.900000000000000000e+01,7.958459699999999998e-03
2.000000000000000000e+01,7.949148300000000167e-03
2.100000000000000000e+01,7.939025799999999133e-03
2.200000000000000000e+01,7.929912799999999304e-03
2.300000000000000000e+01,7.920358299999999407e-03
2.400000000000000000e+01,7.910381100000000651e-03
2.500000000000000000e+01,7.900441100000000702e-03
2.600000000000000000e+01,7.890035400000000240e-03
2.700000000000000000e+01,7.878983399999999263e-03
2.800000000000000000e+01,7.868257400000000165e-03
2.900000000000000000e+01,7.857745500000000785e-03
3.000000000000000000e+01,7.847397600000000084e-03
3.100000000000000000e+01,7.837496700000000024e-03
3.200000000000000000e+01,7.827657300000000554e-03
3.300000000000000000e+01,7.817804799999999651e-03
3.400000000000000000e+01,7.807832699999999598e-03
3.500000000000000000e+01,7.797845200000000365e-03
3.600000000000000000e+01,7.787887500000000018e-03
3.700000000000000000e+01,7.778108599999999928e-03
3.800000000000000000e+01,7.768583499999999649e-03
3.900000000000000000e+01,7.759253500000000414e-03
4.000000000000000000e+01,7.750119100000000226e-03
4.100000000000000000e+01,7.741053599999999681e-03
4.200000000000000000e+01,7.732023000000000194e-03
4.300000000000000000e+01,7.722966399999999648e-03
4.400000000000000000e+01,7.713942300000000210e-03
4.500000000000000000e+01,7.704962000000000096e-03
4.600000000000000000e+01,7.696097699999999639e-03
4.700000000000000000e+01,7.687369399999999589e-03
4.800000000000000000e+01,7.678787200000000354e-03
4.900000000000000000e+01,7.670329899999999909e-03
5.000000000000000000e+01,7.661964299999999943e-03
5.100000000000000000e+01,7.653655900000000400e-03
5.200000000000000000e+01,7.642269099999999746e-03
5.300000000000000000e+01,7.632491199999999996e-03
5.400000000000000000e+01,7.624174899999999928e-03
5.500000000000000000e+01,7.615714299999999659e-03
5.600000000000000000e+01,7.607291000000000400e-03
5.700000000000000000e+01,7.599339800000000367e-03
5.800000000000000000e+01,7.591062200000000051e-03
5.900000000000000000e+01,7.583287999999999661e-03
6.000000000000000000e+01,7.575187799999999992e-03
6.100000000000000000e+01,7.567408500000000031e-03
6.200000000000000000e+01,7.559449900000000076e-03
6.300000000000000000e+01,7.551630999999999622e-03
6.400000000000000000e+01,7.543814400000000385e-03
6.500000000000000000e+01,7.536012699999999724e-03
6.600000000000000000e+01,7.528354400000000259e-03
6.700000000000000000e+01,7.520631899999999717e-03
6.800000000000000000e+01,7.513118400000000190e-03
6.900000000000000000e+01,7.505495099999999649e-03
7.000000000000000000e+01,7.498190699999999868e-03
7.100000000000000000e+01,7.490257699999999970e-03
7.200000000000000000e+01,7.482480300000000223e-03
7.300000000000000000e+01,7.475178699999999662e-03
7.400000000000000000e+01,7.467554000000000379e-03
7.500000000000000000e+01,7.460162000000000217e-03
7.600000000000000000e+01,7.452745499999999940e-03
7.700000000000000000e+01,7.445279499999999696e-03
7.800000000000000000e+01,7.438002600000000186e-03
7.900000000000000000e+01,7.430535700000000070e-03
8.000000000000000000e+01,7.423322599999999764e-03
8.100000000000000000e+01,7.415898599999999966e-03
8.200000000000000000e+01,7.408689199999999621e-03
8.300000000000000000e+01,7.401319200000000022e-03
8.400000000000000000e+01,7.394081000000000264e-03
8.500000000000000000e+01,7.386770099999999568e-03
8.600000000000000000e+01,7.379637100000000123e-03
8.700000000000000000e+01,7.372162800000000085e-03
8.800000000000000000e+01,7.364578999999999570e-03
8.900000000000000000e+01,7.357234100000000290e-03
9.000000000000000000e+01,7.349905599999999664e-03
9.100000000000000000e+01,7.342486199999999699e-03
9.200000000000000000e+01,7.335222800000000022e-03
9.300000000000000000e+01,7.327796000000000136e-03
9.400000000000000000e+01,7.320499999999999750e-03
9.500000000000000000e+01,7.313094600000000223e-03
9.600000000000000000e+01,7.305805099999999885e-03
9.700000000000000000e+01,7.298280499999999608e-03
9.800000000000000000e+01,7.290568199999999943e-03
9.900000000000000000e+01,7.282984400000000295e-03
1.000000000000000000e+02,7.275453799999999707e-03
1.010000000000000000e+02,7.267805300000000114e-03
1.020000000000000000e+02,7.260250900000000084e-03
1.030000000000000000e+02,7.252584700000000092e-03
1.040000000000000000e+02,7.244313100000000089e-03
1.050000000000000000e+02,7.236230700000000418e-03
1.060000000000000000e+02,7.228359999999999647e-03
1.070000000000000000e+02,7.220352499999999930e-03
1.080000000000000000e+02,7.212127999999999942e-03
1.090000000000000000e+02,7.203997099999999779e-03
1.100000000000000000e+02,7.195932300000000038e-03
1.110000000000000000e+02,7.187748300000000416e-03
1.120000000000000000e+02,7.179601600000000070e-03
1.130000000000000000e+02,7.171380300000000305e-03
1.140000000000000000e+02,7.163168900000000013e-03
1.150000000000000000e+02,7.154806500000000270e-03
1.160000000000000000e+02,7.146181100000000182e-03
1.170000000000000000e+02,7.137521200000000038e-03
1.180000000000000000e+02,7.128895700000000349e-03
1.190000000000000000e+02,7.120144999999999599e-03
1.200000000000000000e+02,7.111385900000000322e-03
1.210000000000000000e+02,7.102481600000000103e-03
1.220000000000000000e+02,7.093360200000000011e-03
1.230000000000000000e+02,7.084138200000000309e-03
1.240000000000000000e+02,7.074896199999999857e-03
1.250000000000000000e+02,7.065532700000000041e-03
1.260000000000000000e+02,7.056073799999999785e-03
1.270000000000000000e+02,7.046529600000000365e-03
1.280000000000000000e+02,7.036885700000000340e-03
1.290000000000000000e+02,7.027098399999999988e-03
1.300000000000000000e+02,7.017019700000000013e-03
1.310000000000000000e+02,7.006764399999999664e-03
1.320000000000000000e+02,6.996453700000000372e-03
1.330000000000000000e+02,6.985997800000000139e-03
1.340000000000000000e+02,6.975426800000000122e-03
1.350000000000000000e+02,6.964699399999999679e-03
1.360000000000000000e+02,6.953705999999999603e-03
1.370000000000000000e+02,6.942508699999999817e-03
1.380000000000000000e+02,6.931208099999999935e-03
1.390000000000000000e+02,6.919769600000000298e-03
1.400000000000000000e+02,6.908195100000000255e-03
1.410000000000000000e+02,6.896477199999999884e-03
1.420000000000000000e+02,6.884518499999999798e-03
1.430000000000000000e+02,6.872360600000000305e-03
1.440000000000000000e+02,6.860108999999999652e-03
1.450000000000000000e+02,6.847758800000000069e-03
1.460000000000000000e+02,6.834690499999999773e-03
1.470000000000000000e+02,6.821823299999999965e-03
1.480000000000000000e+02,6.808896499999999782e-03
1.490000000000000000e+02,6.795895799999999987e-03
1.500000000000000000e+02,6.782901499999999771e-03
1.510000000000000000e+02,6.769903899999999732e-03
1.520000000000000000e+02,6.756904999999999682e-03
1.530000000000000000e+02,6.743990800000000327e-03
1.540000000000000000e+02,6.731147399999999961e-03
1.550000000000000000e+02,6.718293299999999850e-03
1.560000000000000000e+02,6.705427100000000383e-03
1.570000000000000000e+02,6.692573400000000408e-03
1.580000000000000000e+02,6.679688999999999939e-03
1.590000000000000000e+02,6.666777700000000272e-03
1.600000000000000000e+02,6.653905400000000026e-03
1.610000000000000000e+02,6.641104800000000377e-03
1.620000000000000000e+02,6.628376000000000060e-03
1.630000000000000000e+02,6.615782599999999944e-03
1.640000000000000000e+02,6.603339700000000409e-03
1.650000000000000000e+02,6.590992700000000183e-03
1.660000000000000000e+02,6.578717799999999824e-03
1.670000000000000000e+02,6.566531500000000188e-03
1.680000000000000000e+02,6.554407100000000409e-03
1.690000000000000000e+02,6.542327799999999964e-03
1.700000000000000000e+02,6.530338899999999988e-03
1.710000000000000000e+02,6.518473399999999592e-03
1.720000000000000000e+02,6.506716400000000199e-03
1.730000000000000000e+02,6.495060399999999685e-03
1.740000000000000000e+02,6.483536199999999881e-03
1.750000000000000000e+02,6.472179699999999584e-03
1.760000000000000000e+02,6.461002900000000285e-03
1.770000000000000000e+02,6.450048199999999961e-03
1.780000000000000000e+02,6.439357500000000324e-03
1.790000000000000000e+02,6.428601699999999738e-03
1.800000000000000000e+02,6.418218399999999976e-03
1.810000000000000000e+02,6.408178700000000290e-03
1.820000000000000000e+02,6.398497599999999723e-03
1.830000000000000000e+02,6.389173700000000400e-03
1.840000000000000000e+02,6.380201299999999943e-03
1.850000000000000000e+02,6.371614999999999744e-03
1.860000000000000000e+02,6.363451000000000003e-03
1.870000000000000000e+02,6.355740599999999685e-03
1.880000000000000000e+02,6.348555900000000390e-03
1.890000000000000000e+02,6.341998500000000337e-03
1.900000000000000000e+02,6.336132500000000133e-03
1.910000000000000000e+02,6.330994000000000378e-03
1.920000000000000000e+02,6.326631200000000163e-03
1.930000000000000000e+02,6.323054899999999701e-03
1.940000000000000000e+02,6.320221299999999667e-03
1.950000000000000000e+02,6.318029900000000053e-03
1.960000000000000000e+02,6.316379599999999775e-03
1.970000000000000000e+02,6.315157699999999867e-03
1.980000000000000000e+02,6.314255300000000057e-03
1.990000000000000000e+02,6.313584700000000362e-03
2.000000000000000000e+02,6.313085099999999998e-03
2.010000000000000000e+02,6.312710200000000091e-03
2.020000000000000000e+02,6.312423900000000039e-03
2.030000000000000000e+02,6.312202700000000069e-03
2.040000000000000000e+02,6.312030399999999861e-03
2.050000000000000000e+02,6.311894400000000321e-03
2.060000000000000000e+02,6.311785900000000185e-03
2.070000000000000000e+02,6.311697899999999667e-03
2.080000000000000000e+02,6.311626199999999937e-03
2.090000000000000000e+02,6.311567500000000303e-03
2.100000000000000000e+02,6.311518599999999674e-03
2.110000000000000000e+02,6.311478100000000174e-03
2.120000000000000000e+02,6.311444099999999856e-03
2.130000000000000000e+02,6.311415199999999975e-03
2.140000000000000000e+02,6.311391000000000397e-03
2.150000000000000000e+02,6.311370099999999775e-03
2.160000000000000000e+02,6.311352400000000244e-03
2.170000000000000000e+02,6.311337000000000197e-03
2.180000000000000000e+02,6.311323500000000364e-03
2.190000000000000000e+02,6.311311899999999878e-03
2.200000000000000000e+02,6.311301099999999664e-03
2.210000000000000000e+02,6.311291800000000396e-03
2.220000000000000000e+02,6.311283899999999870e-03
2.230000000000000000e+02,6.311276499999999949e-03
2.240000000000000000e+02,6.311269500000000164e-03
2.250000000000000000e+02,6.311263899999999989e-03
2.260000000000000000e+02,6.311258299999999814e-03
2.270000000000000000e+02,6.311253600000000380e-03
2.280000000000000000e+02,6.311248999999999679e-03
2.290000000000000000e+02,6.311245299999999718e-03
2.300000000000000000e+02,6.311241500000000157e-03
2.310000000000000000e+02,6.311238299999999933e-03
2.320000000000000000e+02,6.311235499999999846e-03
2.330000000000000000e+02,6.311232699999999758e-03
2.340000000000000000e+02,6.311230400000000275e-03
2.350000000000000000e+02,6.311228000000000324e-03
2.360000000000000000e+02,6.311225699999999973e-03
2.370000000000000000e+02,6.311223799999999759e-03
2.380000000000000000e+02,6.311222000000000013e-03
2.390000000000000000e+02,6.311220099999999798e-03
2.400000000000000000e+02,6.311218700000000188e-03
2.410000000000000000e+02,6.311217299999999711e-03
2.420000000000000000e+02,6.311215900000000101e-03
2.430000000000000000e+02,6.311215000000000228e-03
2.440000000000000000e+02,6.311213599999999750e-03
2.450000000000000000e+02,6.311212699999999877e-03
2.460000000000000000e+02,6.311211700000000403e-03
2.470000000000000000e+02,6.311210299999999926e-03
2.480000000000000000e+02,6.311209400000000053e-03
2.490000000000000000e+02,6.311208900000000316e-03
2.500000000000000000e+02,6.311207999999999575e-03
2.510000000000000000e+02,6.311207099999999702e-03
2.520000000000000000e+02,6.311206599999999965e-03
2.530000000000000000e+02,6.311205700000000092e-03
2.540000000000000000e+02,6.311205200000000355e-03
2.550000000000000000e+02,6.311204299999999615e-03
2.560000000000000000e+02,6.311203799999999878e-03
2.570000000000000000e+02,6.311203399999999741e-03
2.580000000000000000e+02,6.311202900000000005e-03
2.590000000000000000e+02,6.311202400000000268e-03
2.600000000000000000e+02,6.311202000000000131e-03
2.610000000000000000e+02,6.311201500000000394e-03
2.620000000000000000e+02,6.311200999999999790e-03
2.630000000000000000e+02,6.311200599999999654e-03
2.640000000000000000e+02,6.311200099999999917e-03
2.650000000000000000e+02,6.311199600000000180e-03
2.660000000000000000e+02,6.311199200000000044e-03
2.670000000000000000e+02,6.311198700000000307e-03
2.680000000000000000e+02,6.311198700000000307e-03
2.690000000000000000e+02,6.311198199999999703e-03
2.700000000000000000e+02,6.311197799999999566e-03
2.710000000000000000e+02,6.311197799999999566e-03
2.720000000000000000e+02,6.311197299999999830e-03
2.730000000000000000e+02,6.311196800000000093e-03
2.740000000000000000e+02,6.311196800000000093e-03
2.750000000000000000e+02,6.311196399999999956e-03
2.760000000000000000e+02,6.311196399999999956e-03
2.770000000000000000e+02,6.311195900000000220e-03
2.780000000000000000e+02,6.311195900000000220e-03
2.790000000000000000e+02,6.311195399999999615e-03
2.800000000000000000e+02,6.311195399999999615e-03
2.810000000000000000e+02,6.311195399999999615e-03
2.820000000000000000e+02,6.311195000000000346e-03
2.830000000000000000e+02,6.311195000000000346e-03
2.840000000000000000e+02,6.311194499999999742e-03
2.850000000000000000e+02,6.311194499999999742e-03
2.860000000000000000e+02,6.311194000000000005e-03
2.870000000000000000e+02,6.311194000000000005e-03
2.880000000000000000e+02,6.311194000000000005e-03
2.890000000000000000e+02,6.311193599999999869e-03
2.900000000000000000e+02,6.311193599999999869e-03
2.910000000000000000e+02,6.311193599999999869e-03
2.920000000000000000e+02,6.311193100000000132e-03
2.930000000000000000e+02,6.311193100000000132e-03
2.940000000000000000e+02,6.311193100000000132e-03
2.950000000000000000e+02,6.311192600000000395e-03
2.960000000000000000e+02,6.311192600000000395e-03
2.970000000000000000e+02,6.311192600000000395e-03
2.980000000000000000e+02,6.311192600000000395e-03
2.990000000000000000e+02,6.311192200000000259e-03
3.000000000000000000e+02,6.311192200000000259e-03
3.010000000000000000e+02,6.311192200000000259e-03
3.020000000000000000e+02,6.311192200000000259e-03
3.030000000000000000e+02,6.311191699999999655e-03
3.040000000000000000e+02,6.311191699999999655e-03
3.050000000000000000e+02,6.311191699999999655e-03
3.060000000000000000e+02,6.311191699999999655e-03
3.070000000000000000e+02,6.311191199999999918e-03
3.080000000000000000e+02,6.311191199999999918e-03
3.090000000000000000e+02,6.311191199999999918e-03
3.100000000000000000e+02,6.311191199999999918e-03
3.110000000000000000e+02,6.311191199999999918e-03
3.120000000000000000e+02,6.311190799999999781e-03
3.130000000000000000e+02,6.311190799999999781e-03
3.140000000000000000e+02,6.311190799999999781e-03
3.150000000000000000e+02,6.311190799999999781e-03
3.160000000000000000e+02,6.311190799999999781e-03
3.170000000000000000e+02,6.311190799999999781e-03
3.180000000000000000e+02,6.311190300000000045e-03
3.190000000000000000e+02,6.311190300000000045e-03
3.200000000000000000e+02,6.311190300000000045e-03
3.210000000000000000e+02,6.311190300000000045e-03
3.220000000000000000e+02,6.311190300000000045e-03
3.230000000000000000e+02,6.311190300000000045e-03
3.240000000000000000e+02,6.311189800000000308e-03
3.250000000000000000e+02,6.311189800000000308e-03
3.260000000000000000e+02,6.311189800000000308e-03
3.270000000000000000e+02,6.311189800000000308e-03
3.280000000000000000e+02,6.311189800000000308e-03
3.290000000000000000e+02,6.311189800000000308e-03
3.300000000000000000e+02,6.311189800000000308e-03
3.310000000000000000e+02,6.311189400000000171e-03
3.320000000000000000e+02,6.311189400000000171e-03
3.330000000000000000e+02,6.311189400000000171e-03
3.340000000000000000e+02,6.311189400000000171e-03
3.350000000000000000e+02,6.311189400000000171e-03
3.360000000000000000e+02,6.311189400000000171e-03
3.370000000000000000e+02,6.311189400000000171e-03
3.380000000000000000e+02,6.311189400000000171e-03
3.390000000000000000e+02,6.311189400000000171e-03
3.400000000000000000e+02,6.311188899999999567e-03
3.410000000000000000e+02,6.311188899999999567e-03
3.420000000000000000e+02,6.311188899999999567e-03
3.430000000000000000e+02,6.311188899999999567e-03
3.440000000000000000e+02,6.311188899999999567e-03
3.450000000000000000e+02,6.311188899999999567e-03
3.460000000000000000e+02,6.311188899999999567e-03
3.470000000000000000e+02,6.311188899999999567e-03
3.480000000000000000e+02,6.311188899999999567e-03
3.490000000000000000e+02,6.311188500000000298e-03
3.500000000000000000e+02,6.311188500000000298e-03
3.510000000000000000e+02,6.311188500000000298e-03
3.520000000000000000e+02,6.311188500000000298e-03
3.530000000000000000e+02,6.311188500000000298e-03
3.540000000000000000e+02,6.311188500000000298e-03
3.550000000000000000e+02,6.311188500000000298e-03
3.560000000000000000e+02,6.311188500000000298e-03
3.570000000000000000e+02,6.311188500000000298e-03
3.580000000000000000e+02,6.311188500000000298e-03
3.590000000000000000e+02,6.311188500000000298e-03
3.600000000000000000e+02,6.311187999999999694e-03
3.610000000000000000e+02,6.311187999999999694e-03
3.620000000000000000e+02,6.311187999999999694e-03
3.630000000000000000e+02,6.311187999999999694e-03
3.640000000000000000e+02,6.311187999999999694e-03
3.650000000000000000e+02,6.311187999999999694e-03
3.660000000000000000e+02,6.311187999999999694e-03
3.670000000000000000e+02,6.311187999999999694e-03
3.680000000000000000e+02,6.311187999999999694e-03
3.690000000000000000e+02,6.311187999999999694e-03
3.700000000000000000e+02,6.311187999999999694e-03
3.710000000000000000e+02,6.311187999999999694e-03
3.720000000000000000e+02,6.311187999999999694e-03
3.730000000000000000e+02,6.311187499999999957e-03
3.740000000000000000e+02,6.311187499999999957e-03
3.750000000000000000e+02,6.311187499999999957e-03
3.760000000000000000e+02,6.311187499999999957e-03
3.770000000000000000e+02,6.311187499999999957e-03
3.780000000000000000e+02,6.311187499999999957e-03
3.790000000000000000e+02,6.311187499999999957e-03
3.800000000000000000e+02,6.311187499999999957e-03
3.810000000000000000e+02,6.311187499999999957e-03
3.820000000000000000e+02,6.311187499999999957e-03
3.830000000000000000e+02,6.311187499999999957e-03
3.840000000000000000e+02,6.311187499999999957e-03
3.850000000000000000e+02,6.311187499999999957e-03
3.860000000000000000e+02,6.311187499999999957e-03
3.870000000000000000e+02,6.311187499999999957e-03
3.880000000000000000e+02,6.311187499999999957e-03
3.890000000000000000e+02,6.311187099999999821e-03
3.900000000000000000e+02,6.311187099999999821e-03
3.910000000000000000e+02,6.311187099999999821e-03
3.920000000000000000e+02,6.311187099999999821e-03
3.930000000000000000e+02,6.311187099999999821e-03
3.940000000000000000e+02,6.311187099999999821e-03
3.950000000000000000e+02,6.311187099999999821e-03
3.960000000000000000e+02,6.311187099999999821e-03
3.970000000000000000e+02,6.311187099999999821e-03
3.980000000000000000e+02,6.311187099999999821e-03
3.990000000000000000e+02,6.311187099999999821e-03
