# Time [s], Mass [Kg]
1.000000000000000000e+00,1.000000000000000000e+00
2.000000000000000000e+00,1.000000000000000000e+00
3.000000000000000000e+00,1.000000000000000000e+00
4.000000000000000000e+00,1.000000000000000000e+00
5.000000000000000000e+00,1.000000000000000000e+00
6.000000000000000000e+00,1.000000000000000000e+00
7.000000000000000000e+00,1.000000000000000000e+00
8.000000000000000000e+00,1.000000000000000000e+00
9.000000000000000000e+00,1.000000000000000000e+00
1.000000000000000000e+01,1.000000000000000000e+00
1.100000000000000000e+01,1.000000000000000000e+00
1.200000000000000000e+01,9.999999400000000316e-01
1.300000000000000000e+01,9.999998799999999521e-01
1.400000000000000000e+01,9.999997600000000153e-01
1.500000000000000000e+01,9.999995200000000306e-01
1.600000000000000000e+01,9.999989299999999526e-01
1.700000000000000000e+01,9.999979100000000454e-01
1.800000000000000000e+01,9.999961299999999831e-01
1.900000000000000000e+01,9.999929699999999810e-01
2.000000000000000000e+01,9.999876599999999449e-01
2.100000000000000000e+01,9.999791999999999570e-01
2.200000000000000000e+01,9.999659100000000134e-01
2.300000000000000000e+01,9.999459400000000331e-01
2.400000000000000000e+01,9.999166099999999835e-01
2.500000000000000000e+01,9.998746499999999759e-01
2.600000000000000000e+01,9.998161199999999749e-01
2.700000000000000000e+01,9.997361299999999451e-01
2.800000000000000000e+01,9.996291999999999955e-01
2.900000000000000000e+01,9.994890100000000110e-01
3.000000000000000000e+01,9.993088199999999865e-01
3.100000000000000000e+01,9.990816099999999533e-01
3.200000000000000000e+01,9.988005800000000489e-01
3.300000000000000000e+01,9.984592199999999806e-01
3.400000000000000000e+01,9.980521799999999555e-01
3.500000000000000000e+01,9.975753400000000326e-01
3.600000000000000000e+01,9.970260899999999760e-01
3.700000000000000000e+01,9.964034600000000186e-01
3.800000000000000000e+01,9.956599499999999603e-01
3.900000000000000000e+01,9.948987999999999721e-01
4.000000000000000000e+01,9.940656399999999726e-01
4.100000000000000000e+01,9.931719300000000361e-01
4.200000000000000000e+01,9.922180800000000023e-01
4.300000000000000000e+01,9.912102200000000307e-01
4.400000000000000000e+01,9.901534899999999695e-01
4.500000000000000000e+01,9.890541999999999945e-01
4.600000000000000000e+01,9.879180199999999523e-01
4.700000000000000000e+01,9.867504799999999854e-01
4.800000000000000000e+01,9.855578499999999575e-01
4.900000000000000000e+01,9.843448399999999987e-01
5.000000000000000000e+01,9.831162700000000143e-01
5.100000000000000000e+01,9.818770900000000079e-01
5.200000000000000000e+01,9.806308700000000433e-01
5.300000000000000000e+01,9.793807900000000011e-01
5.400000000000000000e+01,9.781302200000000502e-01
5.500000000000000000e+01,9.768808500000000228e-01
5.600000000000000000e+01,9.756340399999999802e-01
5.700000000000000000e+01,9.743908599999999698e-01
5.800000000000000000e+01,9.731510899999999964e-01
5.900000000000000000e+01,9.719142299999999901e-01
6.000000000000000000e+01,9.706795200000000179e-01
6.100000000000000000e+01,9.694455299999999998e-01
6.200000000000000000e+01,9.682108200000000275e-01
6.300000000000000000e+01,9.669741400000000375e-01
6.400000000000000000e+01,9.657341799999999976e-01
6.500000000000000000e+01,9.644902899999999724e-01
6.600000000000000000e+01,9.632420499999999608e-01
6.700000000000000000e+01,9.619895800000000108e-01
6.800000000000000000e+01,9.607335299999999467e-01
6.900000000000000000e+01,9.594746800000000242e-01
7.000000000000000000e+01,9.582142200000000054e-01
7.100000000000000000e+01,9.569533500000000359e-01
7.200000000000000000e+01,9.556932999999999678e-01
7.300000000000000000e+01,9.544352299999999678e-01
7.400000000000000000e+01,9.531798400000000004e-01
7.500000000000000000e+01,9.519277800000000012e-01
7.600000000000000000e+01,9.506794200000000528e-01
7.700000000000000000e+01,9.494345800000000279e-01
7.800000000000000000e+01,9.481930100000000028e-01
7.900000000000000000e+01,9.469538899999999648e-01
8.000000000000000000e+01,9.457168000000000241e-01
8.100000000000000000e+01,9.444806599999999719e-01
8.200000000000000000e+01,9.432445200000000307e-01
8.300000000000000000e+01,9.420079599999999775e-01
8.400000000000000000e+01,9.407700300000000349e-01
8.500000000000000000e+01,9.395303699999999480e-01
8.600000000000000000e+01,9.382888099999999731e-01
8.700000000000000000e+01,9.370454000000000283e-01
8.800000000000000000e+01,9.358001900000000317e-01
8.900000000000000000e+01,9.345536199999999738e-01
9.000000000000000000e+01,9.333061599999999958e-01
9.100000000000000000e+01,9.320582200000000483e-01
9.200000000000000000e+01,9.308103899999999875e-01
9.300000000000000000e+01,9.295629899999999779e-01
9.400000000000000000e+01,9.283161800000000463e-01
9.500000000000000000e+01,9.270703200000000033e-01
9.600000000000000000e+01,9.258251800000000253e-01
9.700000000000000000e+01,9.245805099999999666e-01
9.800000000000000000e+01,9.233362099999999906e-01
9.900000000000000000e+01,9.220917199999999481e-01
1.000000000000000000e+02,9.208467000000000180e-01
1.010000000000000000e+02,9.196004300000000242e-01
1.020000000000000000e+02,9.183525999999999634e-01
1.030000000000000000e+02,9.171027499999999666e-01
1.040000000000000000e+02,9.158503399999999850e-01
1.050000000000000000e+02,9.145953100000000502e-01
1.060000000000000000e+02,9.133372299999999999e-01
1.070000000000000000e+02,9.120764099999999486e-01
1.080000000000000000e+02,9.108126199999999617e-01
1.090000000000000000e+02,9.095460199999999551e-01
1.100000000000000000e+02,9.082768599999999637e-01
1.110000000000000000e+02,9.070050699999999688e-01
1.120000000000000000e+02,9.057311399999999901e-01
1.130000000000000000e+02,9.044548300000000429e-01
1.140000000000000000e+02,9.031764300000000301e-01
1.150000000000000000e+02,9.018957600000000463e-01
1.160000000000000000e+02,9.006128300000000309e-01
1.170000000000000000e+02,8.993272799999999512e-01
1.180000000000000000e+02,8.980390400000000106e-01
1.190000000000000000e+02,8.967477700000000551e-01
1.200000000000000000e+02,8.954531000000000018e-01
1.210000000000000000e+02,8.941547300000000087e-01
1.220000000000000000e+02,8.928524300000000302e-01
1.230000000000000000e+02,8.913974199999999959e-01
1.240000000000000000e+02,8.899694099999999608e-01
1.250000000000000000e+02,8.885514700000000099e-01
1.260000000000000000e+02,8.871494500000000061e-01
1.270000000000000000e+02,8.857586400000000415e-01
1.280000000000000000e+02,8.843750400000000012e-01
1.290000000000000000e+02,8.829965600000000414e-01
1.300000000000000000e+02,8.816205900000000373e-01
1.310000000000000000e+02,8.802457999999999672e-01
1.320000000000000000e+02,8.788706699999999650e-01
1.330000000000000000e+02,8.774941000000000546e-01
1.340000000000000000e+02,8.761152599999999513e-01
1.350000000000000000e+02,8.747332700000000072e-01
1.360000000000000000e+02,8.733473999999999959e-01
1.370000000000000000e+02,8.719568300000000161e-01
1.380000000000000000e+02,8.705610000000000293e-01
1.390000000000000000e+02,8.691595199999999632e-01
1.400000000000000000e+02,8.677516600000000357e-01
1.410000000000000000e+02,8.663372400000000084e-01
1.420000000000000000e+02,8.649157899999999621e-01
1.430000000000000000e+02,8.634871800000000208e-01
1.440000000000000000e+02,8.620510700000000304e-01
1.450000000000000000e+02,8.606074999999999697e-01
1.460000000000000000e+02,8.591562499999999547e-01
1.470000000000000000e+02,8.576971899999999982e-01
1.480000000000000000e+02,8.562303199999999892e-01
1.490000000000000000e+02,8.547556400000000387e-01
1.500000000000000000e+02,8.532729100000000511e-01
1.510000000000000000e+02,8.517820799999999970e-01
1.520000000000000000e+02,8.502830900000000192e-01
1.530000000000000000e+02,8.487756800000000323e-01
1.540000000000000000e+02,8.472595800000000121e-01
1.550000000000000000e+02,8.457347800000000193e-01
1.560000000000000000e+02,8.442008500000000026e-01
1.570000000000000000e+02,8.426576900000000148e-01
1.580000000000000000e+02,8.411050399999999705e-01
1.590000000000000000e+02,8.395424500000000512e-01
1.600000000000000000e+02,8.379699000000000453e-01
1.610000000000000000e+02,8.363869800000000021e-01
1.620000000000000000e+02,8.347935699999999848e-01
1.630000000000000000e+02,8.331894300000000086e-01
1.640000000000000000e+02,8.315742600000000095e-01
1.650000000000000000e+02,8.299478300000000530e-01
1.660000000000000000e+02,8.283100700000000094e-01
1.670000000000000000e+02,8.266605700000000390e-01
1.680000000000000000e+02,8.249992699999999513e-01
1.690000000000000000e+02,8.233256899999999989e-01
1.700000000000000000e+02,8.216397199999999623e-01
1.710000000000000000e+02,8.199410999999999783e-01
1.720000000000000000e+02,8.182295000000000540e-01
1.730000000000000000e+02,8.165046599999999932e-01
1.740000000000000000e+02,8.147663499999999726e-01
1.750000000000000000e+02,8.130142099999999594e-01
1.760000000000000000e+02,8.112478899999999715e-01
1.770000000000000000e+02,8.094671399999999739e-01
1.780000000000000000e+02,8.076718400000000297e-01
1.790000000000000000e+02,8.058617099999999533e-01
1.800000000000000000e+02,8.040364399999999634e-01
1.810000000000000000e+02,8.021958500000000436e-01
1.820000000000000000e+02,8.003398200000000351e-01
1.830000000000000000e+02,7.984682300000000010e-01
1.840000000000000000e+02,7.965809099999999754e-01
1.850000000000000000e+02,7.946776700000000027e-01
1.860000000000000000e+02,7.927584600000000536e-01
1.870000000000000000e+02,7.908231000000000011e-01
1.880000000000000000e+02,7.888716500000000353e-01
1.890000000000000000e+02,7.867846499999999743e-01
1.900000000000000000e+02,7.847148800000000035e-01
1.910000000000000000e+02,7.826504100000000186e-01
1.920000000000000000e+02,7.805853499999999556e-01
1.930000000000000000e+02,7.785159299999999671e-01
1.940000000000000000e+02,7.764396700000000262e-01
1.950000000000000000e+02,7.743548199999999992e-01
1.960000000000000000e+02,7.722603099999999499e-01
1.970000000000000000e+02,7.701552499999999579e-01
1.980000000000000000e+02,7.680392299999999617e-01
1.990000000000000000e+02,7.659119399999999578e-01
2.000000000000000000e+02,7.637732600000000094e-01
2.010000000000000000e+02,7.616233799999999610e-01
2.020000000000000000e+02,7.594624199999999714e-01
2.030000000000000000e+02,7.572907800000000522e-01
2.040000000000000000e+02,7.551088299999999531e-01
2.050000000000000000e+02,7.529170499999999766e-01
2.060000000000000000e+02,7.507159700000000102e-01
2.070000000000000000e+02,7.485062500000000396e-01
2.080000000000000000e+02,7.462884800000000318e-01
2.090000000000000000e+02,7.440633800000000520e-01
2.100000000000000000e+02,7.418316600000000038e-01
2.110000000000000000e+02,7.395942199999999689e-01
2.120000000000000000e+02,7.373517800000000122e-01
2.130000000000000000e+02,7.351050999999999558e-01
2.140000000000000000e+02,7.328550200000000236e-01
2.150000000000000000e+02,7.306022599999999478e-01
2.160000000000000000e+02,7.283475999999999839e-01
2.170000000000000000e+02,7.260918600000000334e-01
2.180000000000000000e+02,7.238357100000000210e-01
2.190000000000000000e+02,7.215799099999999910e-01
2.200000000000000000e+02,7.193251800000000085e-01
2.210000000000000000e+02,7.170722499999999666e-01
2.220000000000000000e+02,7.148217000000000043e-01
2.230000000000000000e+02,7.125741799999999460e-01
2.240000000000000000e+02,7.103303699999999887e-01
2.250000000000000000e+02,7.080908399999999991e-01
2.260000000000000000e+02,7.058560799999999968e-01
2.270000000000000000e+02,7.036266899999999991e-01
2.280000000000000000e+02,7.014031400000000360e-01
2.290000000000000000e+02,6.991858499999999976e-01
2.300000000000000000e+02,6.969753499999999935e-01
2.310000000000000000e+02,6.947720600000000246e-01
2.320000000000000000e+02,6.925763499999999517e-01
2.330000000000000000e+02,6.903886200000000084e-01
2.340000000000000000e+02,6.882091799999999759e-01
2.350000000000000000e+02,6.860383199999999793e-01
2.360000000000000000e+02,6.838005799999999912e-01
2.370000000000000000e+02,6.815879900000000324e-01
2.380000000000000000e+02,6.793965100000000090e-01
2.390000000000000000e+02,6.772237399999999630e-01
2.400000000000000000e+02,6.750680799999999593e-01
2.410000000000000000e+02,6.729283299999999635e-01
2.420000000000000000e+02,6.708037900000000109e-01
2.430000000000000000e+02,6.686937200000000470e-01
2.440000000000000000e+02,6.665978399999999970e-01
2.450000000000000000e+02,6.645157900000000506e-01
2.460000000000000000e+02,6.624474500000000488e-01
2.470000000000000000e+02,6.603925200000000384e-01
2.480000000000000000e+02,6.583510599999999879e-01
2.490000000000000000e+02,6.563230799999999476e-01
2.500000000000000000e+02,6.543084399999999912e-01
2.510000000000000000e+02,6.523073299999999630e-01
2.520000000000000000e+02,6.503197600000000245e-01
2.530000000000000000e+02,6.483459499999999487e-01
2.540000000000000000e+02,6.463859100000000080e-01
2.550000000000000000e+02,6.444399400000000444e-01
2.560000000000000000e+02,6.425081499999999446e-01
2.570000000000000000e+02,6.405908500000000450e-01
2.580000000000000000e+02,6.386882099999999785e-01
2.590000000000000000e+02,6.368005899999999997e-01
2.600000000000000000e+02,6.349282299999999823e-01
2.610000000000000000e+02,6.330714800000000197e-01
2.620000000000000000e+02,6.312306500000000042e-01
2.630000000000000000e+02,6.294061499999999976e-01
2.640000000000000000e+02,6.275984000000000007e-01
2.650000000000000000e+02,6.258077600000000462e-01
2.660000000000000000e+02,6.240347600000000217e-01
2.670000000000000000e+02,6.222798800000000075e-01
2.680000000000000000e+02,6.205436600000000524e-01
2.690000000000000000e+02,6.188266300000000442e-01
2.700000000000000000e+02,6.171294499999999683e-01
2.710000000000000000e+02,6.154527100000000139e-01
2.720000000000000000e+02,6.137970699999999447e-01
2.730000000000000000e+02,6.121632500000000476e-01
2.740000000000000000e+02,6.105520700000000023e-01
2.750000000000000000e+02,6.089643200000000034e-01
2.760000000000000000e+02,6.074008300000000027e-01
2.770000000000000000e+02,6.058626200000000184e-01
2.780000000000000000e+02,6.043506899999999682e-01
2.790000000000000000e+02,6.028659899999999627e-01
2.800000000000000000e+02,6.014097299999999757e-01
2.810000000000000000e+02,5.999831599999999598e-01
2.820000000000000000e+02,5.985874500000000209e-01
2.830000000000000000e+02,5.972239999999999771e-01
2.840000000000000000e+02,5.958942799999999984e-01
2.850000000000000000e+02,5.945997800000000222e-01
2.860000000000000000e+02,5.933421300000000231e-01
2.870000000000000000e+02,5.921229700000000262e-01
2.880000000000000000e+02,5.909442299999999593e-01
2.890000000000000000e+02,5.898076300000000272e-01
2.900000000000000000e+02,5.887151400000000256e-01
2.910000000000000000e+02,5.876688399999999701e-01
2.920000000000000000e+02,5.866706999999999894e-01
2.930000000000000000e+02,5.857227999999999879e-01
2.940000000000000000e+02,5.848271800000000020e-01
2.950000000000000000e+02,5.839858700000000180e-01
2.960000000000000000e+02,5.832006299999999976e-01
2.970000000000000000e+02,5.824732200000000137e-01
2.980000000000000000e+02,5.818049899999999663e-01
2.990000000000000000e+02,5.811969000000000163e-01
3.000000000000000000e+02,5.806494399999999612e-01
3.010000000000000000e+02,5.801624699999999857e-01
3.020000000000000000e+02,5.797352199999999955e-01
3.030000000000000000e+02,5.793659700000000079e-01
3.040000000000000000e+02,5.790497700000000192e-01
3.050000000000000000e+02,5.787869700000000117e-01
3.060000000000000000e+02,5.785730500000000331e-01
3.070000000000000000e+02,5.784026399999999679e-01
3.080000000000000000e+02,5.782700800000000196e-01
3.090000000000000000e+02,5.781695199999999923e-01
3.100000000000000000e+02,5.780953800000000475e-01
3.110000000000000000e+02,5.780422100000000007e-01
3.120000000000000000e+02,5.780053099999999944e-01
3.130000000000000000e+02,5.779806400000000455e-01
3.140000000000000000e+02,5.779647799999999558e-01
3.150000000000000000e+02,5.779550700000000152e-01
3.160000000000000000e+02,5.779493999999999465e-01
3.170000000000000000e+02,5.779463599999999923e-01
3.180000000000000000e+02,5.779448200000000258e-01
3.190000000000000000e+02,5.779440999999999606e-01
3.200000000000000000e+02,5.779438599999999759e-01
3.210000000000000000e+02,5.779437400000000391e-01
3.220000000000000000e+02,5.779437400000000391e-01
3.230000000000000000e+02,5.779437400000000391e-01
3.240000000000000000e+02,5.779437400000000391e-01
3.250000000000000000e+02,5.779437400000000391e-01
3.260000000000000000e+02,5.779437400000000391e-01
3.270000000000000000e+02,5.779437400000000391e-01
3.280000000000000000e+02,5.779437400000000391e-01
3.290000000000000000e+02,5.779437400000000391e-01
3.300000000000000000e+02,5.779437400000000391e-01
3.310000000000000000e+02,5.779437400000000391e-01
3.320000000000000000e+02,5.779437400000000391e-01
3.330000000000000000e+02,5.779437400000000391e-01
3.340000000000000000e+02,5.779437400000000391e-01
3.350000000000000000e+02,5.779437400000000391e-01
3.360000000000000000e+02,5.779437400000000391e-01
3.370000000000000000e+02,5.779437400000000391e-01
3.380000000000000000e+02,5.779437400000000391e-01
3.390000000000000000e+02,5.779437400000000391e-01
3.400000000000000000e+02,5.779437400000000391e-01
3.410000000000000000e+02,5.779437400000000391e-01
3.420000000000000000e+02,5.779437400000000391e-01
3.430000000000000000e+02,5.779437400000000391e-01
3.440000000000000000e+02,5.779437400000000391e-01
3.450000000000000000e+02,5.779437400000000391e-01
3.460000000000000000e+02,5.779437400000000391e-01
3.470000000000000000e+02,5.779437400000000391e-01
3.480000000000000000e+02,5.779437400000000391e-01
3.490000000000000000e+02,5.779437400000000391e-01
3.500000000000000000e+02,5.779437400000000391e-01
3.510000000000000000e+02,5.779437400000000391e-01
3.520000000000000000e+02,5.779437400000000391e-01
3.530000000000000000e+02,5.779437400000000391e-01
3.540000000000000000e+02,5.779437400000000391e-01
3.550000000000000000e+02,5.779437400000000391e-01
3.560000000000000000e+02,5.779437400000000391e-01
3.570000000000000000e+02,5.779437400000000391e-01
3.580000000000000000e+02,5.779437400000000391e-01
3.590000000000000000e+02,5.779437400000000391e-01
3.600000000000000000e+02,5.779437400000000391e-01
3.610000000000000000e+02,5.779437400000000391e-01
3.620000000000000000e+02,5.779437400000000391e-01
3.630000000000000000e+02,5.779437400000000391e-01
3.640000000000000000e+02,5.779437400000000391e-01
3.650000000000000000e+02,5.779437400000000391e-01
3.660000000000000000e+02,5.779437400000000391e-01
3.670000000000000000e+02,5.779437400000000391e-01
3.680000000000000000e+02,5.779437400000000391e-01
3.690000000000000000e+02,5.779437400000000391e-01
3.700000000000000000e+02,5.779437400000000391e-01
3.710000000000000000e+02,5.779437400000000391e-01
3.720000000000000000e+02,5.779437400000000391e-01
3.730000000000000000e+02,5.779437400000000391e-01
3.740000000000000000e+02,5.779437400000000391e-01
3.750000000000000000e+02,5.779437400000000391e-01
3.760000000000000000e+02,5.779437400000000391e-01
3.770000000000000000e+02,5.779437400000000391e-01
3.780000000000000000e+02,5.779437400000000391e-01
3.790000000000000000e+02,5.779437400000000391e-01
3.800000000000000000e+02,5.779437400000000391e-01
3.810000000000000000e+02,5.779437400000000391e-01
3.820000000000000000e+02,5.779437400000000391e-01
3.830000000000000000e+02,5.779437400000000391e-01
3.840000000000000000e+02,5.779437400000000391e-01
3.850000000000000000e+02,5.779437400000000391e-01
3.860000000000000000e+02,5.779437400000000391e-01
3.870000000000000000e+02,5.779437400000000391e-01
3.880000000000000000e+02,5.779437400000000391e-01
3.890000000000000000e+02,5.779437400000000391e-01
3.900000000000000000e+02,5.779437400000000391e-01
3.910000000000000000e+02,5.779437400000000391e-01
3.920000000000000000e+02,5.779437400000000391e-01
3.930000000000000000e+02,5.779437400000000391e-01
3.940000000000000000e+02,5.779437400000000391e-01
3.950000000000000000e+02,5.779437400000000391e-01
3.960000000000000000e+02,5.779437400000000391e-01
3.970000000000000000e+02,5.779437400000000391e-01
3.980000000000000000e+02,5.779437400000000391e-01
3.990000000000000000e+02,5.779437400000000391e-01
