# Time [s], Convective Heat Transfer Coefficient [W/m2K]
1.000000000000000000e+00,0.000000000000000000e+00
2.000000000000000000e+00,0.000000000000000000e+00
3.000000000000000000e+00,0.000000000000000000e+00
4.000000000000000000e+00,0.000000000000000000e+00
5.000000000000000000e+00,3.040000000141642594e-02
6.000000000000000000e+00,5.198326877831560555e-02
7.000000000000000000e+00,8.629665283682264043e-02
8.000000000000000000e+00,1.326069484122565090e-01
9.000000000000000000e+00,1.918266490893922038e-01
1.000000000000000000e+01,2.644126414979292572e-01
1.100000000000000000e+01,3.498870987575936620e-01
1.200000000000000000e+01,4.473766185258832295e-01
1.300000000000000000e+01,5.556349472304358272e-01
1.400000000000000000e+01,6.732869103525767063e-01
1.500000000000000000e+01,7.989178373483745155e-01
1.600000000000000000e+01,9.311536628218257672e-01
1.700000000000000000e+01,1.077601548197032910e+00
1.800000000000000000e+01,1.223065656635083265e+00
1.900000000000000000e+01,1.370317979593575597e+00
2.000000000000000000e+01,1.519199551882860710e+00
2.100000000000000000e+01,1.669143552571767053e+00
2.200000000000000000e+01,1.819617366910185607e+00
2.300000000000000000e+01,1.970142797414145663e+00
2.400000000000000000e+01,2.120298487365837481e+00
2.500000000000000000e+01,2.269729042286528387e+00
2.600000000000000000e+01,2.418116003342212661e+00
2.700000000000000000e+01,2.565195537576063778e+00
2.800000000000000000e+01,2.710745944323977863e+00
2.900000000000000000e+01,2.854570034219705565e+00
3.000000000000000000e+01,2.996518696044463415e+00
3.100000000000000000e+01,3.136467815969016026e+00
3.200000000000000000e+01,3.274324674760660692e+00
3.300000000000000000e+01,3.410032001807668411e+00
3.400000000000000000e+01,3.543536423769138022e+00
3.500000000000000000e+01,3.674810796717938199e+00
3.600000000000000000e+01,3.803843130605627287e+00
3.700000000000000000e+01,3.930629530959748763e+00
3.800000000000000000e+01,4.055174739305424048e+00
3.900000000000000000e+01,4.177491592091466366e+00
4.000000000000000000e+01,4.297607693214418489e+00
4.100000000000000000e+01,4.415549949812029418e+00
4.200000000000000000e+01,4.531344852753185215e+00
4.300000000000000000e+01,4.645027573611190341e+00
4.400000000000000000e+01,4.756635178125982577e+00
4.500000000000000000e+01,4.866209477960790508e+00
4.600000000000000000e+01,4.973802504009996461e+00
4.700000000000000000e+01,5.079450354575095083e+00
4.800000000000000000e+01,5.183194509845320930e+00
4.900000000000000000e+01,5.285082565799604559e+00
5.000000000000000000e+01,5.385157492521297051e+00
5.100000000000000000e+01,5.483466070296588057e+00
5.200000000000000000e+01,5.580045431745308093e+00
5.300000000000000000e+01,5.674938444395628778e+00
5.400000000000000000e+01,5.768194685221083695e+00
5.500000000000000000e+01,5.859847155792136775e+00
5.600000000000000000e+01,5.949935149616993435e+00
5.700000000000000000e+01,6.038500849578411156e+00
5.800000000000000000e+01,6.125584588664233721e+00
5.900000000000000000e+01,6.211220876841130334e+00
6.000000000000000000e+01,6.295446739944394743e+00
6.100000000000000000e+01,6.378294011133104569e+00
6.200000000000000000e+01,6.459793680146484363e+00
6.300000000000000000e+01,6.539979390281917659e+00
6.400000000000000000e+01,6.618889082557045000e+00
6.500000000000000000e+01,6.696545096769262351e+00
6.600000000000000000e+01,6.772978866461926373e+00
6.700000000000000000e+01,6.848225127508758447e+00
6.800000000000000000e+01,6.922304182128445227e+00
6.900000000000000000e+01,6.995286998935013933e+00
7.000000000000000000e+01,7.067136059662542991e+00
7.100000000000000000e+01,7.137898505469238764e+00
7.200000000000000000e+01,7.207594472256364071e+00
7.300000000000000000e+01,7.276249476414300865e+00
7.400000000000000000e+01,7.343894983839506452e+00
7.500000000000000000e+01,7.410555286373198491e+00
7.600000000000000000e+01,7.476258595461401590e+00
7.700000000000000000e+01,7.541025786997229474e+00
7.800000000000000000e+01,7.604885381605162031e+00
7.900000000000000000e+01,7.667857182105769276e+00
8.000000000000000000e+01,7.729959240334740578e+00
8.100000000000000000e+01,7.791210687896241716e+00
8.200000000000000000e+01,7.851625570898091766e+00
8.300000000000000000e+01,7.911217342567031352e+00
8.400000000000000000e+01,7.969997978290096263e+00
8.500000000000000000e+01,8.027985885760916318e+00
8.600000000000000000e+01,8.085193267833989950e+00
8.700000000000000000e+01,8.141631672572614775e+00
8.800000000000000000e+01,8.197313775098351130e+00
8.900000000000000000e+01,8.252251923354563701e+00
9.000000000000000000e+01,8.306457987222776396e+00
9.100000000000000000e+01,8.359941711990295232e+00
9.200000000000000000e+01,8.412716638420723925e+00
9.300000000000000000e+01,8.464792515202484324e+00
9.400000000000000000e+01,8.516178271812067990e+00
9.500000000000000000e+01,8.566883181461827590e+00
9.600000000000000000e+01,8.616916050814790395e+00
9.700000000000000000e+01,8.666289609303465369e+00
9.800000000000000000e+01,8.715010887491109415e+00
9.900000000000000000e+01,8.763086866656708551e+00
1.000000000000000000e+02,8.810526892252154241e+00
1.010000000000000000e+02,8.857338966499463950e+00
1.020000000000000000e+02,8.903530113849082994e+00
1.030000000000000000e+02,8.949109207635281393e+00
1.040000000000000000e+02,8.994083404124420866e+00
1.050000000000000000e+02,9.038458657576653010e+00
1.060000000000000000e+02,9.082240203727311112e+00
1.070000000000000000e+02,9.125434982649387905e+00
1.080000000000000000e+02,9.168045291419694820e+00
1.090000000000000000e+02,9.210079070065757989e+00
1.100000000000000000e+02,9.251539662074893755e+00
1.110000000000000000e+02,9.292428593633239586e+00
1.120000000000000000e+02,9.332753445073995735e+00
1.130000000000000000e+02,9.372512399753269108e+00
1.140000000000000000e+02,9.411711948372103009e+00
1.150000000000000000e+02,9.450353699076600833e+00
1.160000000000000000e+02,9.488436264644299456e+00
1.170000000000000000e+02,9.525962601655182382e+00
1.180000000000000000e+02,9.562930237429325686e+00
1.190000000000000000e+02,9.599340874968484982e+00
1.200000000000000000e+02,9.635189640258754906e+00
1.210000000000000000e+02,9.670474207039355008e+00
1.220000000000000000e+02,9.705190099550689453e+00
1.230000000000000000e+02,9.739331872820461200e+00
1.240000000000000000e+02,9.772897795717145897e+00
1.250000000000000000e+02,9.805886187181153346e+00
1.260000000000000000e+02,9.838311978253985401e+00
1.270000000000000000e+02,9.870179255986672118e+00
1.280000000000000000e+02,9.901476004430188382e+00
1.290000000000000000e+02,9.932168313574225138e+00
1.300000000000000000e+02,9.962221430113812559e+00
1.310000000000000000e+02,9.991607716662677774e+00
1.320000000000000000e+02,1.002030628892087805e+01
1.330000000000000000e+02,1.004829722637281364e+01
1.340000000000000000e+02,1.007556416891145545e+01
1.350000000000000000e+02,1.010208960594657235e+01
1.360000000000000000e+02,1.012785784744249007e+01
1.370000000000000000e+02,1.015285120393833118e+01
1.380000000000000000e+02,1.017705565937298928e+01
1.390000000000000000e+02,1.020045625741624207e+01
1.400000000000000000e+02,1.022304404218912666e+01
1.410000000000000000e+02,1.024481166631584728e+01
1.420000000000000000e+02,1.026575678395357372e+01
1.430000000000000000e+02,1.028588072075754489e+01
1.440000000000000000e+02,1.030518949992528022e+01
1.450000000000000000e+02,1.032369727100500789e+01
1.460000000000000000e+02,1.034142267358500966e+01
1.470000000000000000e+02,1.035839019957935037e+01
1.480000000000000000e+02,1.037462914654585866e+01
1.490000000000000000e+02,1.039017748057740143e+01
1.500000000000000000e+02,1.040507601816385197e+01
1.510000000000000000e+02,1.041936832443942329e+01
1.520000000000000000e+02,1.043310566979954324e+01
1.530000000000000000e+02,1.044633678729575976e+01
1.540000000000000000e+02,1.045911651321561564e+01
1.550000000000000000e+02,1.047149924518809172e+01
1.560000000000000000e+02,1.048354037381230874e+01
1.570000000000000000e+02,1.049529481996708569e+01
1.580000000000000000e+02,1.050681579870374627e+01
1.590000000000000000e+02,1.051815634438423430e+01
1.600000000000000000e+02,1.052936679798524722e+01
1.610000000000000000e+02,1.054181045672429562e+01
1.620000000000000000e+02,1.055371583730883067e+01
1.630000000000000000e+02,1.056534316065206092e+01
1.640000000000000000e+02,1.057676842098590697e+01
1.650000000000000000e+02,1.058810880238826790e+01
1.660000000000000000e+02,1.059950923618463214e+01
1.670000000000000000e+02,1.061105684983190756e+01
1.680000000000000000e+02,1.062280760919660594e+01
1.690000000000000000e+02,1.063479895463762404e+01
1.700000000000000000e+02,1.064706434266192048e+01
1.710000000000000000e+02,1.065963172826001681e+01
1.720000000000000000e+02,1.067252988113523315e+01
1.730000000000000000e+02,1.068578641018852338e+01
1.740000000000000000e+02,1.069943675707727415e+01
1.750000000000000000e+02,1.071350653116070006e+01
1.760000000000000000e+02,1.072803948261257645e+01
1.770000000000000000e+02,1.074306710315025981e+01
1.780000000000000000e+02,1.075863748344953130e+01
1.790000000000000000e+02,1.077479335414973072e+01
1.800000000000000000e+02,1.079157985536208386e+01
1.810000000000000000e+02,1.080906378364287512e+01
1.820000000000000000e+02,1.082730531007731756e+01
1.830000000000000000e+02,1.084636775253327556e+01
1.840000000000000000e+02,1.086634082158128223e+01
1.850000000000000000e+02,1.088731156510429088e+01
1.860000000000000000e+02,1.090935953383007195e+01
1.870000000000000000e+02,1.093261650709165345e+01
1.880000000000000000e+02,1.095720411405489969e+01
1.890000000000000000e+02,1.098323083740888784e+01
1.900000000000000000e+02,1.101086500739535801e+01
1.910000000000000000e+02,1.104027296650570200e+01
1.920000000000000000e+02,1.107161303531639085e+01
1.930000000000000000e+02,1.110510824290186882e+01
1.940000000000000000e+02,1.114090942230851233e+01
1.950000000000000000e+02,1.117920966631894508e+01
1.960000000000000000e+02,1.122015076332465533e+01
1.970000000000000000e+02,1.126382198486800235e+01
1.980000000000000000e+02,1.131018248794009473e+01
1.990000000000000000e+02,1.135902820008000269e+01
2.000000000000000000e+02,1.140996186179753558e+01
2.010000000000000000e+02,1.146235010214125971e+01
2.020000000000000000e+02,1.151533312582019697e+01
2.030000000000000000e+02,1.156793773819990001e+01
2.040000000000000000e+02,1.161929502532525760e+01
2.050000000000000000e+02,1.166880643845196630e+01
2.060000000000000000e+02,1.171616614931813061e+01
2.070000000000000000e+02,1.176138063264929912e+01
2.080000000000000000e+02,1.180461888844805074e+01
2.090000000000000000e+02,1.184608889873706516e+01
2.100000000000000000e+02,1.188600247404302834e+01
2.110000000000000000e+02,1.192453134025008055e+01
2.120000000000000000e+02,1.196182143181520097e+01
2.130000000000000000e+02,1.199798943506564441e+01
2.140000000000000000e+02,1.203313245381620789e+01
2.150000000000000000e+02,1.206732367443986398e+01
2.160000000000000000e+02,1.210063865875662614e+01
2.170000000000000000e+02,1.213313493661260267e+01
2.180000000000000000e+02,1.216485802142146433e+01
2.190000000000000000e+02,1.219585547118263769e+01
2.200000000000000000e+02,1.222616325733256559e+01
2.210000000000000000e+02,1.225581723436571835e+01
2.220000000000000000e+02,1.228485224379740259e+01
2.230000000000000000e+02,1.231329020061520474e+01
2.240000000000000000e+02,1.234116400866023078e+01
2.250000000000000000e+02,1.236849682712390042e+01
2.260000000000000000e+02,1.239530756222917773e+01
2.270000000000000000e+02,1.242161666315339730e+01
2.280000000000000000e+02,1.244744723570466505e+01
2.290000000000000000e+02,1.247281010271381518e+01
2.300000000000000000e+02,1.249773546514906286e+01
2.310000000000000000e+02,1.252222139236216947e+01
2.320000000000000000e+02,1.254628599152860247e+01
2.330000000000000000e+02,1.256994761824536155e+01
2.340000000000000000e+02,1.259321225953034507e+01
2.350000000000000000e+02,1.261609369843798767e+01
2.360000000000000000e+02,1.263860751525617410e+01
2.370000000000000000e+02,1.266075572683484829e+01
2.380000000000000000e+02,1.268255264445877373e+01
2.390000000000000000e+02,1.270400486580528998e+01
2.400000000000000000e+02,1.272511791547988125e+01
2.410000000000000000e+02,1.274590909109456938e+01
2.420000000000000000e+02,1.276637761320746023e+01
2.430000000000000000e+02,1.278653420115478845e+01
2.440000000000000000e+02,1.280638740409498588e+01
2.450000000000000000e+02,1.282594079194204717e+01
2.460000000000000000e+02,1.284520140483968120e+01
2.470000000000000000e+02,1.286417079034898947e+01
2.480000000000000000e+02,1.288286229537311200e+01
2.490000000000000000e+02,1.290127740782962995e+01
2.500000000000000000e+02,1.291942346123961549e+01
2.510000000000000000e+02,1.293730348305451550e+01
2.520000000000000000e+02,1.295492357934520911e+01
2.530000000000000000e+02,1.297228906856914143e+01
2.540000000000000000e+02,1.298940414702032164e+01
2.550000000000000000e+02,1.300627266623957468e+01
2.560000000000000000e+02,1.302289710333047346e+01
2.570000000000000000e+02,1.303928209068856248e+01
2.580000000000000000e+02,1.305543445870461028e+01
2.590000000000000000e+02,1.307135957922547043e+01
2.600000000000000000e+02,1.308705707915503602e+01
2.610000000000000000e+02,1.310253263790878897e+01
2.620000000000000000e+02,1.311778771260988385e+01
2.630000000000000000e+02,1.313282936164560155e+01
2.640000000000000000e+02,1.314765717974127668e+01
2.650000000000000000e+02,1.316227723442653108e+01
2.660000000000000000e+02,1.317669161217704321e+01
2.670000000000000000e+02,1.319090411410475205e+01
2.680000000000000000e+02,1.320491802286461436e+01
2.690000000000000000e+02,1.321873631001239779e+01
2.700000000000000000e+02,1.323235963435995721e+01
2.710000000000000000e+02,1.324579377201120245e+01
2.720000000000000000e+02,1.325904057620432575e+01
2.730000000000000000e+02,1.327210393185868753e+01
2.740000000000000000e+02,1.328498622098262594e+01
2.750000000000000000e+02,1.329769005913255953e+01
2.760000000000000000e+02,1.331021598110694626e+01
2.770000000000000000e+02,1.332256938585807937e+01
2.780000000000000000e+02,1.333475377724534638e+01
2.790000000000000000e+02,1.334676585377111913e+01
2.800000000000000000e+02,1.335861426493572068e+01
2.810000000000000000e+02,1.337029815864146798e+01
2.820000000000000000e+02,1.338182086187273789e+01
2.830000000000000000e+02,1.339318514635174751e+01
2.840000000000000000e+02,1.340439219147004302e+01
2.850000000000000000e+02,1.341544478506170357e+01
2.860000000000000000e+02,1.342634438838803490e+01
2.870000000000000000e+02,1.343709380546869525e+01
2.880000000000000000e+02,1.344769684911411822e+01
2.890000000000000000e+02,1.345815374485721350e+01
2.900000000000000000e+02,1.346846728966282036e+01
2.910000000000000000e+02,1.347863799996636125e+01
2.920000000000000000e+02,1.348866966226462516e+01
2.930000000000000000e+02,1.349856416968802542e+01
2.940000000000000000e+02,1.350832275524998671e+01
2.950000000000000000e+02,1.351794836710152303e+01
2.960000000000000000e+02,1.352743932364655066e+01
2.970000000000000000e+02,1.353680193078789173e+01
2.980000000000000000e+02,1.354603671129805420e+01
2.990000000000000000e+02,1.355514424229273729e+01
3.000000000000000000e+02,1.356412769992855338e+01
3.010000000000000000e+02,1.357298756856530630e+01
3.020000000000000000e+02,1.358172711615877759e+01
3.030000000000000000e+02,1.359034584859246131e+01
3.040000000000000000e+02,1.359884712974353072e+01
3.050000000000000000e+02,1.360723278372873857e+01
3.060000000000000000e+02,1.361550367309341958e+01
3.070000000000000000e+02,1.362366096624008449e+01
3.080000000000000000e+02,1.363170663970808327e+01
3.090000000000000000e+02,1.363964183766582750e+01
3.100000000000000000e+02,1.364746957952362827e+01
3.110000000000000000e+02,1.365519022941135496e+01
3.120000000000000000e+02,1.366280502311435363e+01
3.130000000000000000e+02,1.367031606332702154e+01
3.140000000000000000e+02,1.367772456310428275e+01
3.150000000000000000e+02,1.368503197599915744e+01
3.160000000000000000e+02,1.369223855884581020e+01
3.170000000000000000e+02,1.369934774440222469e+01
3.180000000000000000e+02,1.370635983171544581e+01
3.190000000000000000e+02,1.371327698223720049e+01
3.200000000000000000e+02,1.372009792475730272e+01
3.210000000000000000e+02,1.372682753981332127e+01
3.220000000000000000e+02,1.373346534770420213e+01
3.230000000000000000e+02,1.374001086717745501e+01
3.240000000000000000e+02,1.374646844731063133e+01
3.250000000000000000e+02,1.375283839472220571e+01
3.260000000000000000e+02,1.375912014609343714e+01
3.270000000000000000e+02,1.376531733794702639e+01
3.280000000000000000e+02,1.377142914663044948e+01
3.290000000000000000e+02,1.377745869532112089e+01
3.300000000000000000e+02,1.378340478030047223e+01
3.310000000000000000e+02,1.378927020085025745e+01
3.320000000000000000e+02,1.379505596016297631e+01
3.330000000000000000e+02,1.380076256376760924e+01
3.340000000000000000e+02,1.380639174118364032e+01
3.350000000000000000e+02,1.381194331158772215e+01
3.360000000000000000e+02,1.381741966744506733e+01
3.370000000000000000e+02,1.382282104698828640e+01
3.380000000000000000e+02,1.382814903220608649e+01
3.390000000000000000e+02,1.383340464743413989e+01
3.400000000000000000e+02,1.383858836160077743e+01
3.410000000000000000e+02,1.384370106767059738e+01
3.420000000000000000e+02,1.384874481358033904e+01
3.430000000000000000e+02,1.385371932160186859e+01
3.440000000000000000e+02,1.385862595847703282e+01
3.450000000000000000e+02,1.386346590244438559e+01
3.460000000000000000e+02,1.386823971795928578e+01
3.470000000000000000e+02,1.387294863517813504e+01
3.480000000000000000e+02,1.387759308899098798e+01
3.490000000000000000e+02,1.388217369363782794e+01
3.500000000000000000e+02,1.388669269903938464e+01
3.510000000000000000e+02,1.389115028508014937e+01
3.520000000000000000e+02,1.389554650837735039e+01
3.530000000000000000e+02,1.389988269620433847e+01
3.540000000000000000e+02,1.390415956551049348e+01
3.550000000000000000e+02,1.390837922184556241e+01
3.560000000000000000e+02,1.391254049846623708e+01
3.570000000000000000e+02,1.391664549391330752e+01
3.580000000000000000e+02,1.392069382375114373e+01
3.590000000000000000e+02,1.392468788025123239e+01
3.600000000000000000e+02,1.392862654932908661e+01
3.610000000000000000e+02,1.393251191431553870e+01
3.620000000000000000e+02,1.393634430482043030e+01
3.630000000000000000e+02,1.394012422928193473e+01
3.640000000000000000e+02,1.394385357864283037e+01
3.650000000000000000e+02,1.394753062823073719e+01
3.660000000000000000e+02,1.395115876810405275e+01
3.670000000000000000e+02,1.395473657122258260e+01
3.680000000000000000e+02,1.395826597705256056e+01
3.690000000000000000e+02,1.396174705852163100e+01
3.700000000000000000e+02,1.396518024758173304e+01
3.710000000000000000e+02,1.396856741422980264e+01
3.720000000000000000e+02,1.397190796537056556e+01
3.730000000000000000e+02,1.397520298637961567e+01
3.740000000000000000e+02,1.397845296062493858e+01
3.750000000000000000e+02,1.398165866913617883e+01
3.760000000000000000e+02,1.398482083083505856e+01
3.770000000000000000e+02,1.398793926513383923e+01
3.780000000000000000e+02,1.399101540561254531e+01
3.790000000000000000e+02,1.399404972616518172e+01
3.800000000000000000e+02,1.399704263938324367e+01
3.810000000000000000e+02,1.399999449671184948e+01
3.820000000000000000e+02,1.400290612589852124e+01
3.830000000000000000e+02,1.400577829295794352e+01
3.840000000000000000e+02,1.400861140408631655e+01
3.850000000000000000e+02,1.401140556604785026e+01
3.860000000000000000e+02,1.401416112322086249e+01
3.870000000000000000e+02,1.401687919337031296e+01
3.880000000000000000e+02,1.401956023679308494e+01
3.890000000000000000e+02,1.402220506972115288e+01
3.900000000000000000e+02,1.402481361389988557e+01
3.910000000000000000e+02,1.402738632606888558e+01
3.920000000000000000e+02,1.402992437540057935e+01
3.930000000000000000e+02,1.403242738319325156e+01
3.940000000000000000e+02,1.403489645647792372e+01
3.950000000000000000e+02,1.403733174972028586e+01
3.960000000000000000e+02,1.403973383240453110e+01
3.970000000000000000e+02,1.404210291656897525e+01
3.980000000000000000e+02,1.404444004437193172e+01
