# Time [s], Mass [Kg]
1.000000000000000000e+00,1.000000000000000000e+00
2.000000000000000000e+00,1.000000000000000000e+00
3.000000000000000000e+00,1.000000000000000000e+00
4.000000000000000000e+00,1.000000000000000000e+00
5.000000000000000000e+00,1.000000000000000000e+00
6.000000000000000000e+00,1.000000000000000000e+00
7.000000000000000000e+00,1.000000000000000000e+00
8.000000000000000000e+00,1.000000000000000000e+00
9.000000000000000000e+00,1.000000000000000000e+00
1.000000000000000000e+01,1.000000000000000000e+00
1.100000000000000000e+01,1.000000000000000000e+00
1.200000000000000000e+01,9.999999400000000316e-01
1.300000000000000000e+01,9.999998799999999521e-01
1.400000000000000000e+01,9.999997600000000153e-01
1.500000000000000000e+01,9.999995200000000306e-01
1.600000000000000000e+01,9.999989900000000320e-01
1.700000000000000000e+01,9.999980299999999822e-01
1.800000000000000000e+01,9.999963600000000286e-01
1.900000000000000000e+01,9.999934400000000112e-01
2.000000000000000000e+01,9.999886199999999947e-01
2.100000000000000000e+01,9.999808100000000533e-01
2.200000000000000000e+01,9.999687699999999513e-01
2.300000000000000000e+01,9.999505300000000041e-01
2.400000000000000000e+01,9.999237699999999895e-01
2.500000000000000000e+01,9.998854999999999826e-01
2.600000000000000000e+01,9.998319700000000143e-01
2.700000000000000000e+01,9.997588400000000375e-01
2.800000000000000000e+01,9.996609100000000137e-01
2.900000000000000000e+01,9.995323999999999875e-01
3.000000000000000000e+01,9.993671200000000532e-01
3.100000000000000000e+01,9.991584999999999495e-01
3.200000000000000000e+01,9.989004099999999609e-01
3.300000000000000000e+01,9.985868300000000364e-01
3.400000000000000000e+01,9.982131100000000146e-01
3.500000000000000000e+01,9.977755000000000374e-01
3.600000000000000000e+01,9.972716000000000358e-01
3.700000000000000000e+01,9.967009399999999797e-01
3.800000000000000000e+01,9.960643099999999528e-01
3.900000000000000000e+01,9.953635299999999964e-01
4.000000000000000000e+01,9.946019600000000072e-01
4.100000000000000000e+01,9.937837699999999552e-01
4.200000000000000000e+01,9.929129500000000164e-01
4.300000000000000000e+01,9.919946200000000491e-01
4.400000000000000000e+01,9.910338499999999939e-01
4.500000000000000000e+01,9.900349400000000299e-01
4.600000000000000000e+01,9.890030600000000449e-01
4.700000000000000000e+01,9.879426999999999515e-01
4.800000000000000000e+01,9.868572399999999689e-01
4.900000000000000000e+01,9.857511500000000204e-01
5.000000000000000000e+01,9.846275399999999678e-01
5.100000000000000000e+01,9.834890400000000366e-01
5.200000000000000000e+01,9.823385500000000325e-01
5.300000000000000000e+01,9.811782799999999582e-01
5.400000000000000000e+01,9.800093199999999616e-01
5.500000000000000000e+01,9.788333799999999751e-01
5.600000000000000000e+01,9.776515399999999856e-01
5.700000000000000000e+01,9.764640900000000068e-01
5.800000000000000000e+01,9.752716399999999952e-01
5.900000000000000000e+01,9.740745400000000442e-01
6.000000000000000000e+01,9.728725599999999973e-01
6.100000000000000000e+01,9.716659800000000402e-01
6.200000000000000000e+01,9.704548100000000010e-01
6.300000000000000000e+01,9.692389999999999617e-01
6.400000000000000000e+01,9.680187700000000284e-01
6.500000000000000000e+01,9.667943700000000140e-01
6.600000000000000000e+01,9.655660400000000143e-01
6.700000000000000000e+01,9.643342499999999484e-01
6.800000000000000000e+01,9.630995999999999446e-01
6.900000000000000000e+01,9.618624399999999852e-01
7.000000000000000000e+01,9.606233199999999472e-01
7.100000000000000000e+01,9.593827099999999719e-01
7.200000000000000000e+01,9.581409699999999807e-01
7.300000000000000000e+01,9.568984499999999560e-01
7.400000000000000000e+01,9.556554000000000437e-01
7.500000000000000000e+01,9.544117500000000032e-01
7.600000000000000000e+01,9.529381399999999891e-01
7.700000000000000000e+01,9.515086999999999851e-01
7.800000000000000000e+01,9.501451300000000044e-01
7.900000000000000000e+01,9.488153499999999463e-01
8.000000000000000000e+01,9.475107200000000285e-01
8.100000000000000000e+01,9.462230799999999942e-01
8.200000000000000000e+01,9.449477200000000465e-01
8.300000000000000000e+01,9.436812999999999452e-01
8.400000000000000000e+01,9.424213799999999752e-01
8.500000000000000000e+01,9.411658600000000208e-01
8.600000000000000000e+01,9.399135100000000076e-01
8.700000000000000000e+01,9.386628900000000275e-01
8.800000000000000000e+01,9.374131599999999676e-01
8.900000000000000000e+01,9.361634300000000186e-01
9.000000000000000000e+01,9.349129200000000361e-01
9.100000000000000000e+01,9.336610400000000531e-01
9.200000000000000000e+01,9.324074399999999763e-01
9.300000000000000000e+01,9.311518699999999926e-01
9.400000000000000000e+01,9.298939699999999586e-01
9.500000000000000000e+01,9.286336299999999877e-01
9.600000000000000000e+01,9.273708499999999688e-01
9.700000000000000000e+01,9.261056199999999627e-01
9.800000000000000000e+01,9.248380099999999882e-01
9.900000000000000000e+01,9.235681900000000111e-01
1.000000000000000000e+02,9.222960500000000339e-01
1.010000000000000000e+02,9.210215800000000064e-01
1.020000000000000000e+02,9.197447899999999787e-01
1.030000000000000000e+02,9.184655499999999639e-01
1.040000000000000000e+02,9.171837000000000462e-01
1.050000000000000000e+02,9.158993399999999507e-01
1.060000000000000000e+02,9.146122300000000260e-01
1.070000000000000000e+02,9.133222100000000232e-01
1.080000000000000000e+02,9.120291499999999552e-01
1.090000000000000000e+02,9.107328700000000277e-01
1.100000000000000000e+02,9.094333100000000503e-01
1.110000000000000000e+02,9.081304100000000545e-01
1.120000000000000000e+02,9.068241099999999610e-01
1.130000000000000000e+02,9.055143599999999626e-01
1.140000000000000000e+02,9.042010900000000406e-01
1.150000000000000000e+02,9.028844200000000209e-01
1.160000000000000000e+02,9.015643599999999536e-01
1.170000000000000000e+02,9.002408400000000421e-01
1.180000000000000000e+02,8.989138599999999535e-01
1.190000000000000000e+02,8.975831899999999752e-01
1.200000000000000000e+02,8.962490600000000418e-01
1.210000000000000000e+02,8.949111699999999781e-01
1.220000000000000000e+02,8.935694100000000084e-01
1.230000000000000000e+02,8.922237800000000219e-01
1.240000000000000000e+02,8.908741500000000313e-01
1.250000000000000000e+02,8.895203499999999597e-01
1.260000000000000000e+02,8.881621400000000444e-01
1.270000000000000000e+02,8.867996299999999499e-01
1.280000000000000000e+02,8.854324799999999662e-01
1.290000000000000000e+02,8.840606800000000431e-01
1.300000000000000000e+02,8.826840500000000533e-01
1.310000000000000000e+02,8.813025399999999676e-01
1.320000000000000000e+02,8.799161899999999870e-01
1.330000000000000000e+02,8.785247800000000051e-01
1.340000000000000000e+02,8.771282999999999719e-01
1.350000000000000000e+02,8.757267600000000485e-01
1.360000000000000000e+02,8.743198500000000095e-01
1.370000000000000000e+02,8.729075200000000478e-01
1.380000000000000000e+02,8.714897600000000022e-01
1.390000000000000000e+02,8.700662900000000199e-01
1.400000000000000000e+02,8.686369699999999527e-01
1.410000000000000000e+02,8.672016900000000250e-01
1.420000000000000000e+02,8.657604500000000147e-01
1.430000000000000000e+02,8.643129499999999688e-01
1.440000000000000000e+02,8.628590699999999503e-01
1.450000000000000000e+02,8.613986399999999932e-01
1.460000000000000000e+02,8.599314700000000311e-01
1.470000000000000000e+02,8.584575100000000347e-01
1.480000000000000000e+02,8.569765099999999691e-01
1.490000000000000000e+02,8.554884200000000272e-01
1.500000000000000000e+02,8.539930599999999705e-01
1.510000000000000000e+02,8.524902500000000050e-01
1.520000000000000000e+02,8.508911700000000300e-01
1.530000000000000000e+02,8.493104599999999893e-01
1.540000000000000000e+02,8.477381499999999681e-01
1.550000000000000000e+02,8.461694100000000107e-01
1.560000000000000000e+02,8.446010900000000543e-01
1.570000000000000000e+02,8.430310500000000040e-01
1.580000000000000000e+02,8.414574900000000302e-01
1.590000000000000000e+02,8.398790999999999896e-01
1.600000000000000000e+02,8.382948000000000066e-01
1.610000000000000000e+02,8.367037800000000081e-01
1.620000000000000000e+02,8.351051200000000341e-01
1.630000000000000000e+02,8.334983000000000253e-01
1.640000000000000000e+02,8.318826000000000276e-01
1.650000000000000000e+02,8.302575300000000214e-01
1.660000000000000000e+02,8.286226399999999659e-01
1.670000000000000000e+02,8.269773700000000449e-01
1.680000000000000000e+02,8.253215000000000412e-01
1.690000000000000000e+02,8.236544099999999480e-01
1.700000000000000000e+02,8.219758900000000423e-01
1.710000000000000000e+02,8.202855599999999692e-01
1.720000000000000000e+02,8.185830699999999682e-01
1.730000000000000000e+02,8.168680099999999777e-01
1.740000000000000000e+02,8.151402500000000106e-01
1.750000000000000000e+02,8.133992599999999573e-01
1.760000000000000000e+02,8.116449100000000527e-01
1.770000000000000000e+02,8.098767999999999523e-01
1.780000000000000000e+02,8.080946199999999857e-01
1.790000000000000000e+02,8.062982600000000444e-01
1.800000000000000000e+02,8.044872299999999976e-01
1.810000000000000000e+02,8.026614800000000383e-01
1.820000000000000000e+02,8.008207699999999596e-01
1.830000000000000000e+02,7.989648000000000305e-01
1.840000000000000000e+02,7.970933900000000127e-01
1.850000000000000000e+02,7.952064899999999881e-01
1.860000000000000000e+02,7.933037899999999532e-01
1.870000000000000000e+02,7.913852900000000190e-01
1.880000000000000000e+02,7.894507600000000291e-01
1.890000000000000000e+02,7.875002599999999520e-01
1.900000000000000000e+02,7.855336699999999617e-01
1.910000000000000000e+02,7.835510399999999764e-01
1.920000000000000000e+02,7.815523699999999963e-01
1.930000000000000000e+02,7.795378600000000269e-01
1.940000000000000000e+02,7.775074800000000286e-01
1.950000000000000000e+02,7.754616100000000234e-01
1.960000000000000000e+02,7.734002500000000113e-01
1.970000000000000000e+02,7.713238000000000039e-01
1.980000000000000000e+02,7.692326299999999728e-01
1.990000000000000000e+02,7.671270399999999823e-01
2.000000000000000000e+02,7.650074999999999514e-01
2.010000000000000000e+02,7.628744200000000530e-01
2.020000000000000000e+02,7.607283599999999923e-01
2.030000000000000000e+02,7.585699599999999876e-01
2.040000000000000000e+02,7.563996899999999579e-01
2.050000000000000000e+02,7.542182200000000503e-01
2.060000000000000000e+02,7.520263200000000259e-01
2.070000000000000000e+02,7.498245799999999628e-01
2.080000000000000000e+02,7.475439299999999676e-01
2.090000000000000000e+02,7.452708500000000402e-01
2.100000000000000000e+02,7.430015800000000503e-01
2.110000000000000000e+02,7.407342799999999672e-01
2.120000000000000000e+02,7.384678099999999468e-01
2.130000000000000000e+02,7.362015800000000221e-01
2.140000000000000000e+02,7.339354799999999734e-01
2.150000000000000000e+02,7.316695500000000019e-01
2.160000000000000000e+02,7.294038499999999647e-01
2.170000000000000000e+02,7.271387000000000267e-01
2.180000000000000000e+02,7.248744999999999772e-01
2.190000000000000000e+02,7.226116099999999598e-01
2.200000000000000000e+02,7.203505599999999731e-01
2.210000000000000000e+02,7.180918499999999760e-01
2.220000000000000000e+02,7.158358700000000407e-01
2.230000000000000000e+02,7.135832300000000128e-01
2.240000000000000000e+02,7.113344700000000520e-01
2.250000000000000000e+02,7.090901099999999957e-01
2.260000000000000000e+02,7.068505899999999453e-01
2.270000000000000000e+02,7.046164299999999603e-01
2.280000000000000000e+02,7.023881699999999784e-01
2.290000000000000000e+02,7.001662300000000005e-01
2.300000000000000000e+02,6.979511400000000254e-01
2.310000000000000000e+02,6.957431400000000377e-01
2.320000000000000000e+02,6.935428399999999938e-01
2.330000000000000000e+02,6.913505199999999684e-01
2.340000000000000000e+02,6.891666100000000128e-01
2.350000000000000000e+02,6.869915100000000274e-01
2.360000000000000000e+02,6.848254799999999864e-01
2.370000000000000000e+02,6.826689799999999808e-01
2.380000000000000000e+02,6.805223200000000139e-01
2.390000000000000000e+02,6.783857899999999885e-01
2.400000000000000000e+02,6.762597599999999876e-01
2.410000000000000000e+02,6.741444500000000062e-01
2.420000000000000000e+02,6.720402199999999659e-01
2.430000000000000000e+02,6.699473900000000315e-01
2.440000000000000000e+02,6.678662300000000052e-01
2.450000000000000000e+02,6.657969999999999722e-01
2.460000000000000000e+02,6.637399800000000072e-01
2.470000000000000000e+02,6.616955399999999710e-01
2.480000000000000000e+02,6.596639199999999592e-01
2.490000000000000000e+02,6.576454000000000466e-01
2.500000000000000000e+02,6.556404200000000015e-01
2.510000000000000000e+02,6.536490900000000437e-01
2.520000000000000000e+02,6.516718299999999520e-01
2.530000000000000000e+02,6.497089299999999623e-01
2.540000000000000000e+02,6.477189700000000050e-01
2.550000000000000000e+02,6.457515999999999812e-01
2.560000000000000000e+02,6.438053799999999827e-01
2.570000000000000000e+02,6.418796199999999841e-01
2.580000000000000000e+02,6.399739399999999634e-01
2.590000000000000000e+02,6.380881699999999546e-01
2.600000000000000000e+02,6.362222400000000500e-01
2.610000000000000000e+02,6.343761700000000170e-01
2.620000000000000000e+02,6.325500600000000251e-01
2.630000000000000000e+02,6.307441599999999982e-01
2.640000000000000000e+02,6.289587599999999501e-01
2.650000000000000000e+02,6.271940499999999474e-01
2.660000000000000000e+02,6.254504899999999701e-01
2.670000000000000000e+02,6.237283900000000214e-01
2.680000000000000000e+02,6.220282900000000392e-01
2.690000000000000000e+02,6.203505999999999743e-01
2.700000000000000000e+02,6.186959699999999840e-01
2.710000000000000000e+02,6.170648300000000086e-01
2.720000000000000000e+02,6.154578899999999519e-01
2.730000000000000000e+02,6.138758100000000217e-01
2.740000000000000000e+02,6.123191700000000237e-01
2.750000000000000000e+02,6.107886999999999622e-01
2.760000000000000000e+02,6.092853000000000296e-01
2.770000000000000000e+02,6.078095999999999499e-01
2.780000000000000000e+02,6.063624600000000475e-01
2.790000000000000000e+02,6.049447700000000205e-01
2.800000000000000000e+02,6.035574099999999609e-01
2.810000000000000000e+02,6.022012199999999815e-01
2.820000000000000000e+02,6.008772300000000399e-01
2.830000000000000000e+02,5.995862499999999873e-01
2.840000000000000000e+02,5.983293100000000031e-01
2.850000000000000000e+02,5.971074100000000051e-01
2.860000000000000000e+02,5.959214600000000139e-01
2.870000000000000000e+02,5.947723999999999789e-01
2.880000000000000000e+02,5.936613099999999976e-01
2.890000000000000000e+02,5.925890799999999903e-01
2.900000000000000000e+02,5.915565499999999588e-01
2.910000000000000000e+02,5.905646700000000138e-01
2.920000000000000000e+02,5.896142100000000275e-01
2.930000000000000000e+02,5.887060200000000521e-01
2.940000000000000000e+02,5.878406200000000359e-01
2.950000000000000000e+02,5.870186699999999647e-01
2.960000000000000000e+02,5.862405899999999503e-01
2.970000000000000000e+02,5.855066799999999461e-01
2.980000000000000000e+02,5.848171699999999973e-01
2.990000000000000000e+02,5.841720099999999638e-01
3.000000000000000000e+02,5.835710200000000514e-01
3.010000000000000000e+02,5.830137699999999867e-01
3.020000000000000000e+02,5.824996799999999642e-01
3.030000000000000000e+02,5.820279099999999817e-01
3.040000000000000000e+02,5.815973899999999919e-01
3.050000000000000000e+02,5.812068599999999918e-01
3.060000000000000000e+02,5.808547699999999647e-01
3.070000000000000000e+02,5.805394099999999780e-01
3.080000000000000000e+02,5.802588499999999927e-01
3.090000000000000000e+02,5.800110099999999935e-01
3.100000000000000000e+02,5.797936900000000282e-01
3.110000000000000000e+02,5.796045699999999856e-01
3.120000000000000000e+02,5.794412500000000188e-01
3.130000000000000000e+02,5.793014199999999558e-01
3.140000000000000000e+02,5.791825699999999522e-01
3.150000000000000000e+02,5.790824900000000053e-01
3.160000000000000000e+02,5.789988600000000041e-01
3.170000000000000000e+02,5.789296600000000126e-01
3.180000000000000000e+02,5.788729200000000130e-01
3.190000000000000000e+02,5.788267900000000354e-01
3.200000000000000000e+02,5.787895899999999649e-01
3.210000000000000000e+02,5.787599700000000125e-01
3.220000000000000000e+02,5.787366000000000454e-01
3.230000000000000000e+02,5.787183599999999872e-01
3.240000000000000000e+02,5.787042399999999809e-01
3.250000000000000000e+02,5.786934500000000536e-01
3.260000000000000000e+02,5.786853400000000480e-01
3.270000000000000000e+02,5.786792600000000286e-01
3.280000000000000000e+02,5.786747899999999944e-01
3.290000000000000000e+02,5.786715700000000240e-01
3.300000000000000000e+02,5.786692500000000239e-01
3.310000000000000000e+02,5.786676400000000386e-01
3.320000000000000000e+02,5.786665699999999912e-01
3.330000000000000000e+02,5.786657899999999577e-01
3.340000000000000000e+02,5.786653200000000385e-01
3.350000000000000000e+02,5.786649600000000060e-01
3.360000000000000000e+02,5.786647799999999897e-01
3.370000000000000000e+02,5.786646600000000529e-01
3.380000000000000000e+02,5.786645400000000050e-01
3.390000000000000000e+02,5.786645400000000050e-01
3.400000000000000000e+02,5.786644800000000366e-01
3.410000000000000000e+02,5.786644800000000366e-01
3.420000000000000000e+02,5.786644800000000366e-01
3.430000000000000000e+02,5.786644800000000366e-01
3.440000000000000000e+02,5.786644800000000366e-01
3.450000000000000000e+02,5.786644800000000366e-01
3.460000000000000000e+02,5.786644800000000366e-01
3.470000000000000000e+02,5.786644800000000366e-01
3.480000000000000000e+02,5.786644800000000366e-01
3.490000000000000000e+02,5.786644800000000366e-01
3.500000000000000000e+02,5.786644800000000366e-01
3.510000000000000000e+02,5.786644800000000366e-01
3.520000000000000000e+02,5.786644800000000366e-01
3.530000000000000000e+02,5.786644800000000366e-01
3.540000000000000000e+02,5.786644800000000366e-01
3.550000000000000000e+02,5.786644800000000366e-01
3.560000000000000000e+02,5.786644800000000366e-01
3.570000000000000000e+02,5.786644800000000366e-01
3.580000000000000000e+02,5.786644800000000366e-01
3.590000000000000000e+02,5.786644800000000366e-01
3.600000000000000000e+02,5.786644800000000366e-01
3.610000000000000000e+02,5.786644800000000366e-01
3.620000000000000000e+02,5.786644800000000366e-01
3.630000000000000000e+02,5.786644800000000366e-01
3.640000000000000000e+02,5.786644800000000366e-01
3.650000000000000000e+02,5.786644800000000366e-01
3.660000000000000000e+02,5.786644800000000366e-01
3.670000000000000000e+02,5.786644800000000366e-01
3.680000000000000000e+02,5.786644800000000366e-01
3.690000000000000000e+02,5.786644800000000366e-01
3.700000000000000000e+02,5.786644800000000366e-01
3.710000000000000000e+02,5.786644800000000366e-01
3.720000000000000000e+02,5.786644800000000366e-01
3.730000000000000000e+02,5.786644800000000366e-01
3.740000000000000000e+02,5.786644800000000366e-01
3.750000000000000000e+02,5.786644800000000366e-01
3.760000000000000000e+02,5.786644800000000366e-01
3.770000000000000000e+02,5.786644800000000366e-01
3.780000000000000000e+02,5.786644800000000366e-01
3.790000000000000000e+02,5.786644800000000366e-01
3.800000000000000000e+02,5.786644800000000366e-01
3.810000000000000000e+02,5.786644800000000366e-01
3.820000000000000000e+02,5.786644800000000366e-01
3.830000000000000000e+02,5.786644800000000366e-01
3.840000000000000000e+02,5.786644800000000366e-01
3.850000000000000000e+02,5.786644800000000366e-01
3.860000000000000000e+02,5.786644800000000366e-01
3.870000000000000000e+02,5.786644800000000366e-01
3.880000000000000000e+02,5.786644800000000366e-01
3.890000000000000000e+02,5.786644800000000366e-01
3.900000000000000000e+02,5.786644800000000366e-01
3.910000000000000000e+02,5.786644800000000366e-01
3.920000000000000000e+02,5.786644800000000366e-01
3.930000000000000000e+02,5.786644800000000366e-01
3.940000000000000000e+02,5.786644800000000366e-01
3.950000000000000000e+02,5.786644800000000366e-01
3.960000000000000000e+02,5.786644800000000366e-01
3.970000000000000000e+02,5.786644800000000366e-01
3.980000000000000000e+02,5.786644800000000366e-01
3.990000000000000000e+02,5.786644800000000366e-01
