# Time [s], Thickness [m]
1.000000000000000000e+00,8.000000400000000303e-03
2.000000000000000000e+00,8.000000400000000303e-03
3.000000000000000000e+00,8.000000400000000303e-03
4.000000000000000000e+00,8.000000400000000303e-03
5.000000000000000000e+00,8.000000400000000303e-03
6.000000000000000000e+00,8.000000400000000303e-03
7.000000000000000000e+00,8.000000400000000303e-03
8.000000000000000000e+00,8.000000400000000303e-03
9.000000000000000000e+00,8.000000400000000303e-03
1.000000000000000000e+01,8.000000400000000303e-03
1.100000000000000000e+01,8.000000400000000303e-03
1.200000000000000000e+01,8.000000400000000303e-03
1.300000000000000000e+01,7.999999400000000829e-03
1.400000000000000000e+01,7.999999400000000829e-03
1.500000000000000000e+01,7.999999400000000829e-03
1.600000000000000000e+01,7.999998499999999221e-03
1.700000000000000000e+01,7.999996699999999475e-03
1.800000000000000000e+01,7.999993900000000255e-03
1.900000000000000000e+01,7.999989199999999953e-03
2.000000000000000000e+01,7.999981800000000032e-03
2.100000000000000000e+01,7.999968700000000335e-03
2.200000000000000000e+01,7.999949200000000191e-03
2.300000000000000000e+01,7.999918400000000096e-03
2.400000000000000000e+01,7.999872800000000159e-03
2.500000000000000000e+01,7.999805699999999395e-03
2.600000000000000000e+01,7.999710700000000826e-03
2.700000000000000000e+01,7.999577600000000108e-03
2.800000000000000000e+01,7.999394999999999423e-03
2.900000000000000000e+01,7.999150099999999611e-03
3.000000000000000000e+01,7.998826900000000420e-03
3.100000000000000000e+01,7.998406899999999445e-03
3.200000000000000000e+01,7.997870400000000810e-03
3.300000000000000000e+01,7.997196200000000754e-03
3.400000000000000000e+01,7.996362599999999252e-03
3.500000000000000000e+01,7.995349400000000689e-03
3.600000000000000000e+01,7.994135799999999709e-03
3.700000000000000000e+01,7.992705299999999791e-03
3.800000000000000000e+01,7.991045699999999377e-03
3.900000000000000000e+01,7.989147699999999200e-03
4.000000000000000000e+01,7.987006600000000692e-03
4.100000000000000000e+01,7.984624200000000130e-03
4.200000000000000000e+01,7.982002599999999531e-03
4.300000000000000000e+01,7.979151800000000572e-03
4.400000000000000000e+01,7.976083999999999605e-03
4.500000000000000000e+01,7.972808600000000703e-03
4.600000000000000000e+01,7.969343099999999860e-03
4.700000000000000000e+01,7.965702599999999189e-03
4.800000000000000000e+01,7.961899999999999186e-03
4.900000000000000000e+01,7.957953000000000249e-03
5.000000000000000000e+01,7.953878500000000767e-03
5.100000000000000000e+01,7.949684699999999202e-03
5.200000000000000000e+01,7.945390400000000228e-03
5.300000000000000000e+01,7.941008499999999137e-03
5.400000000000000000e+01,7.936545600000000783e-03
5.500000000000000000e+01,7.932017600000000612e-03
5.600000000000000000e+01,7.927432700000000554e-03
5.700000000000000000e+01,7.922796500000000783e-03
5.800000000000000000e+01,7.918119399999999641e-03
5.900000000000000000e+01,7.913406899999999439e-03
6.000000000000000000e+01,7.908661799999999395e-03
6.100000000000000000e+01,7.903889799999999285e-03
6.200000000000000000e+01,7.899095300000000611e-03
6.300000000000000000e+01,7.894277599999999229e-03
6.400000000000000000e+01,7.889439399999999963e-03
6.500000000000000000e+01,7.884583400000000700e-03
6.600000000000000000e+01,7.879707999999999157e-03
6.700000000000000000e+01,7.874812900000000004e-03
6.800000000000000000e+01,7.869900200000000054e-03
6.900000000000000000e+01,7.864968899999999832e-03
7.000000000000000000e+01,7.860018899999999739e-03
7.100000000000000000e+01,7.855051199999999248e-03
7.200000000000000000e+01,7.850066799999999567e-03
7.300000000000000000e+01,7.845064599999999888e-03
7.400000000000000000e+01,7.840048500000000239e-03
7.500000000000000000e+01,7.835018399999999286e-03
7.600000000000000000e+01,7.829976299999999445e-03
7.700000000000000000e+01,7.824921999999999780e-03
7.800000000000000000e+01,7.819859300000000721e-03
7.900000000000000000e+01,7.814788300000000132e-03
8.000000000000000000e+01,7.809709800000000021e-03
8.100000000000000000e+01,7.804624300000000126e-03
8.200000000000000000e+01,7.799532700000000318e-03
8.300000000000000000e+01,7.794435100000000199e-03
8.400000000000000000e+01,7.789331499999999769e-03
8.500000000000000000e+01,7.784220900000000422e-03
8.600000000000000000e+01,7.779102300000000081e-03
8.700000000000000000e+01,7.773975800000000082e-03
8.800000000000000000e+01,7.768840499999999684e-03
8.900000000000000000e+01,7.763695400000000281e-03
9.000000000000000000e+01,7.758540100000000002e-03
9.100000000000000000e+01,7.753374099999999977e-03
9.200000000000000000e+01,7.748197299999999739e-03
9.300000000000000000e+01,7.743009399999999619e-03
9.400000000000000000e+01,7.737810700000000153e-03
9.500000000000000000e+01,7.732601399999999674e-03
9.600000000000000000e+01,7.727381799999999586e-03
9.700000000000000000e+01,7.722151899999999888e-03
9.800000000000000000e+01,7.716912799999999656e-03
9.900000000000000000e+01,7.711664299999999687e-03
1.000000000000000000e+02,7.706406100000000314e-03
1.010000000000000000e+02,7.701137999999999734e-03
1.020000000000000000e+02,7.695861200000000089e-03
1.030000000000000000e+02,7.690573600000000232e-03
1.040000000000000000e+02,7.685276700000000238e-03
1.050000000000000000e+02,7.679968599999999895e-03
1.060000000000000000e+02,7.674649399999999670e-03
1.070000000000000000e+02,7.669317499999999885e-03
1.080000000000000000e+02,7.663973099999999740e-03
1.090000000000000000e+02,7.658614799999999626e-03
1.100000000000000000e+02,7.653243399999999814e-03
1.110000000000000000e+02,7.647857499999999829e-03
1.120000000000000000e+02,7.642457299999999738e-03
1.130000000000000000e+02,7.637042600000000341e-03
1.140000000000000000e+02,7.631612900000000164e-03
1.150000000000000000e+02,7.626168400000000146e-03
1.160000000000000000e+02,7.620708999999999816e-03
1.170000000000000000e+02,7.615234200000000307e-03
1.180000000000000000e+02,7.609744600000000088e-03
1.190000000000000000e+02,7.604239500000000221e-03
1.200000000000000000e+02,7.598719099999999907e-03
1.210000000000000000e+02,7.592784200000000060e-03
1.220000000000000000e+02,7.586913199999999885e-03
1.230000000000000000e+02,7.581068699999999640e-03
1.240000000000000000e+02,7.575254899999999889e-03
1.250000000000000000e+02,7.569466300000000057e-03
1.260000000000000000e+02,7.563695300000000156e-03
1.270000000000000000e+02,7.557935499999999737e-03
1.280000000000000000e+02,7.552180900000000224e-03
1.290000000000000000e+02,7.546425800000000107e-03
1.300000000000000000e+02,7.540667000000000030e-03
1.310000000000000000e+02,7.534900199999999826e-03
1.320000000000000000e+02,7.529122800000000344e-03
1.330000000000000000e+02,7.523331799999999694e-03
1.340000000000000000e+02,7.517525899999999602e-03
1.350000000000000000e+02,7.511703300000000319e-03
1.360000000000000000e+02,7.505861600000000161e-03
1.370000000000000000e+02,7.499999799999999654e-03
1.380000000000000000e+02,7.494116200000000387e-03
1.390000000000000000e+02,7.488210200000000420e-03
1.400000000000000000e+02,7.482280499999999744e-03
1.410000000000000000e+02,7.476325600000000016e-03
1.420000000000000000e+02,7.470345599999999968e-03
1.430000000000000000e+02,7.464338600000000254e-03
1.440000000000000000e+02,7.458304100000000270e-03
1.450000000000000000e+02,7.452241600000000278e-03
1.460000000000000000e+02,7.446150300000000007e-03
1.470000000000000000e+02,7.440029199999999981e-03
1.480000000000000000e+02,7.433877799999999599e-03
1.490000000000000000e+02,7.427696099999999725e-03
1.500000000000000000e+02,7.421482800000000352e-03
1.510000000000000000e+02,7.415237800000000143e-03
1.520000000000000000e+02,7.408960299999999694e-03
1.530000000000000000e+02,7.402650099999999803e-03
1.540000000000000000e+02,7.396305899999999593e-03
1.550000000000000000e+02,7.389927699999999933e-03
1.560000000000000000e+02,7.383514199999999944e-03
1.570000000000000000e+02,7.377065700000000163e-03
1.580000000000000000e+02,7.370580899999999713e-03
1.590000000000000000e+02,7.364058399999999852e-03
1.600000000000000000e+02,7.357498599999999847e-03
1.610000000000000000e+02,7.350900199999999690e-03
1.620000000000000000e+02,7.344262199999999907e-03
1.630000000000000000e+02,7.337583699999999758e-03
1.640000000000000000e+02,7.330864700000000109e-03
1.650000000000000000e+02,7.324103700000000015e-03
1.660000000000000000e+02,7.317299999999999673e-03
1.670000000000000000e+02,7.310452400000000406e-03
1.680000000000000000e+02,7.303560199999999808e-03
1.690000000000000000e+02,7.296623200000000413e-03
1.700000000000000000e+02,7.289639700000000340e-03
1.710000000000000000e+02,7.282609599999999989e-03
1.720000000000000000e+02,7.275531099999999612e-03
1.730000000000000000e+02,7.268403199999999738e-03
1.740000000000000000e+02,7.261225999999999965e-03
1.750000000000000000e+02,7.253997499999999612e-03
1.760000000000000000e+02,7.246717300000000278e-03
1.770000000000000000e+02,7.239384599999999954e-03
1.780000000000000000e+02,7.231998299999999567e-03
1.790000000000000000e+02,7.224557500000000111e-03
1.800000000000000000e+02,7.217061700000000114e-03
1.810000000000000000e+02,7.209510500000000308e-03
1.820000000000000000e+02,7.201902599999999814e-03
1.830000000000000000e+02,7.194237299999999696e-03
1.840000000000000000e+02,7.186514300000000285e-03
1.850000000000000000e+02,7.178733599999999847e-03
1.860000000000000000e+02,7.170596199999999636e-03
1.870000000000000000e+02,7.162483400000000007e-03
1.880000000000000000e+02,7.154367400000000154e-03
1.890000000000000000e+02,7.146233699999999904e-03
1.900000000000000000e+02,7.138071999999999646e-03
1.910000000000000000e+02,7.129876400000000405e-03
1.920000000000000000e+02,7.121641700000000408e-03
1.930000000000000000e+02,7.113364500000000229e-03
1.940000000000000000e+02,7.105042199999999850e-03
1.950000000000000000e+02,7.096674300000000400e-03
1.960000000000000000e+02,7.088259300000000068e-03
1.970000000000000000e+02,7.079797300000000189e-03
1.980000000000000000e+02,7.071288299999999895e-03
1.990000000000000000e+02,7.062732700000000190e-03
2.000000000000000000e+02,7.054131499999999680e-03
2.010000000000000000e+02,7.045486000000000110e-03
2.020000000000000000e+02,7.036797699999999822e-03
2.030000000000000000e+02,7.028068400000000299e-03
2.040000000000000000e+02,7.019300000000000019e-03
2.050000000000000000e+02,7.010494400000000063e-03
2.060000000000000000e+02,7.001654700000000189e-03
2.070000000000000000e+02,6.992782500000000075e-03
2.080000000000000000e+02,6.983880900000000343e-03
2.090000000000000000e+02,6.974952799999999814e-03
2.100000000000000000e+02,6.966000400000000106e-03
2.110000000000000000e+02,6.957026199999999903e-03
2.120000000000000000e+02,6.948033800000000433e-03
2.130000000000000000e+02,6.939026099999999649e-03
2.140000000000000000e+02,6.930005700000000171e-03
2.150000000000000000e+02,6.920975600000000422e-03
2.160000000000000000e+02,6.911938500000000020e-03
2.170000000000000000e+02,6.902897300000000388e-03
2.180000000000000000e+02,6.893854599999999812e-03
2.190000000000000000e+02,6.884812799999999976e-03
2.200000000000000000e+02,6.875774799999999701e-03
2.210000000000000000e+02,6.866742900000000205e-03
2.220000000000000000e+02,6.857719699999999773e-03
2.230000000000000000e+02,6.848707800000000158e-03
2.240000000000000000e+02,6.839708899999999772e-03
2.250000000000000000e+02,6.830725400000000301e-03
2.260000000000000000e+02,6.821759000000000156e-03
2.270000000000000000e+02,6.812812300000000224e-03
2.280000000000000000e+02,6.803886500000000045e-03
2.290000000000000000e+02,6.794983499999999836e-03
2.300000000000000000e+02,6.786105700000000414e-03
2.310000000000000000e+02,6.777253900000000317e-03
2.320000000000000000e+02,6.768430100000000227e-03
2.330000000000000000e+02,6.759635600000000154e-03
2.340000000000000000e+02,6.750871399999999571e-03
2.350000000000000000e+02,6.741934899999999647e-03
2.360000000000000000e+02,6.733073400000000146e-03
2.370000000000000000e+02,6.724276999999999858e-03
2.380000000000000000e+02,6.715540800000000150e-03
2.390000000000000000e+02,6.706860799999999657e-03
2.400000000000000000e+02,6.698234499999999696e-03
2.410000000000000000e+02,6.689660299999999719e-03
2.420000000000000000e+02,6.681136800000000119e-03
2.430000000000000000e+02,6.672663599999999889e-03
2.440000000000000000e+02,6.664239800000000026e-03
2.450000000000000000e+02,6.655864899999999924e-03
2.460000000000000000e+02,6.647539299999999721e-03
2.470000000000000000e+02,6.639263099999999883e-03
2.480000000000000000e+02,6.631035799999999807e-03
2.490000000000000000e+02,6.622858799999999969e-03
2.500000000000000000e+02,6.614731199999999631e-03
2.510000000000000000e+02,6.606654299999999667e-03
2.520000000000000000e+02,6.598628599999999816e-03
2.530000000000000000e+02,6.590654100000000078e-03
2.540000000000000000e+02,6.582731799999999925e-03
2.550000000000000000e+02,6.574862600000000099e-03
2.560000000000000000e+02,6.567047399999999605e-03
2.570000000000000000e+02,6.559286699999999914e-03
2.580000000000000000e+02,6.551581400000000034e-03
2.590000000000000000e+02,6.543932899999999574e-03
2.600000000000000000e+02,6.536341700000000005e-03
2.610000000000000000e+02,6.528809699999999806e-03
2.620000000000000000e+02,6.521337200000000382e-03
2.630000000000000000e+02,6.513926199999999812e-03
2.640000000000000000e+02,6.506577099999999968e-03
2.650000000000000000e+02,6.499292299999999932e-03
2.660000000000000000e+02,6.492072699999999578e-03
2.670000000000000000e+02,6.484920199999999989e-03
2.680000000000000000e+02,6.477835599999999701e-03
2.690000000000000000e+02,6.470821300000000401e-03
2.700000000000000000e+02,6.463879300000000168e-03
2.710000000000000000e+02,6.457010699999999812e-03
2.720000000000000000e+02,6.450218100000000218e-03
2.730000000000000000e+02,6.443502799999999663e-03
2.740000000000000000e+02,6.436867599999999967e-03
2.750000000000000000e+02,6.430314900000000215e-03
2.760000000000000000e+02,6.423845899999999949e-03
2.770000000000000000e+02,6.417464000000000328e-03
2.780000000000000000e+02,6.411171499999999968e-03
2.790000000000000000e+02,6.404970799999999687e-03
2.800000000000000000e+02,6.398864599999999972e-03
2.810000000000000000e+02,6.392855700000000044e-03
2.820000000000000000e+02,6.386947399999999726e-03
2.830000000000000000e+02,6.381142000000000238e-03
2.840000000000000000e+02,6.375443199999999803e-03
2.850000000000000000e+02,6.369854299999999983e-03
2.860000000000000000e+02,6.364378099999999996e-03
2.870000000000000000e+02,6.359017899999999668e-03
2.880000000000000000e+02,6.353778299999999699e-03
2.890000000000000000e+02,6.348661599999999572e-03
2.900000000000000000e+02,6.343672100000000320e-03
2.910000000000000000e+02,6.338812899999999965e-03
2.920000000000000000e+02,6.334088300000000407e-03
2.930000000000000000e+02,6.329440999999999887e-03
2.940000000000000000e+02,6.324951100000000132e-03
2.950000000000000000e+02,6.320619999999999884e-03
2.960000000000000000e+02,6.316449000000000022e-03
2.970000000000000000e+02,6.312439700000000223e-03
2.980000000000000000e+02,6.308593300000000029e-03
2.990000000000000000e+02,6.304912699999999995e-03
3.000000000000000000e+02,6.301399299999999731e-03
3.010000000000000000e+02,6.298054499999999715e-03
3.020000000000000000e+02,6.294880099999999694e-03
3.030000000000000000e+02,6.291877500000000144e-03
3.040000000000000000e+02,6.289046700000000198e-03
3.050000000000000000e+02,6.286388700000000197e-03
3.060000000000000000e+02,6.283903000000000405e-03
3.070000000000000000e+02,6.281589199999999817e-03
3.080000000000000000e+02,6.279445300000000355e-03
3.090000000000000000e+02,6.277468999999999931e-03
3.100000000000000000e+02,6.275657100000000058e-03
3.110000000000000000e+02,6.274005899999999906e-03
3.120000000000000000e+02,6.272510200000000306e-03
3.130000000000000000e+02,6.271164899999999952e-03
3.140000000000000000e+02,6.269962999999999925e-03
3.150000000000000000e+02,6.268897100000000305e-03
3.160000000000000000e+02,6.267959699999999836e-03
3.170000000000000000e+02,6.267141999999999852e-03
3.180000000000000000e+02,6.266435100000000355e-03
3.190000000000000000e+02,6.265829300000000206e-03
3.200000000000000000e+02,6.265315700000000272e-03
3.210000000000000000e+02,6.264884000000000078e-03
3.220000000000000000e+02,6.264525899999999828e-03
3.230000000000000000e+02,6.264231200000000381e-03
3.240000000000000000e+02,6.263991800000000276e-03
3.250000000000000000e+02,6.263799999999999923e-03
3.260000000000000000e+02,6.263647699999999596e-03
3.270000000000000000e+02,6.263529000000000319e-03
3.280000000000000000e+02,6.263437200000000239e-03
3.290000000000000000e+02,6.263367399999999856e-03
3.300000000000000000e+02,6.263315200000000270e-03
3.310000000000000000e+02,6.263276600000000117e-03
3.320000000000000000e+02,6.263248600000000110e-03
3.330000000000000000e+02,6.263229099999999966e-03
3.340000000000000000e+02,6.263215100000000396e-03
3.350000000000000000e+02,6.263205299999999656e-03
3.360000000000000000e+02,6.263198799999999608e-03
3.370000000000000000e+02,6.263194599999999911e-03
3.380000000000000000e+02,6.263191799999999823e-03
3.390000000000000000e+02,6.263189899999999609e-03
3.400000000000000000e+02,6.263188999999999736e-03
3.410000000000000000e+02,6.263188099999999862e-03
3.420000000000000000e+02,6.263187600000000126e-03
3.430000000000000000e+02,6.263187600000000126e-03
3.440000000000000000e+02,6.263187600000000126e-03
3.450000000000000000e+02,6.263187600000000126e-03
3.460000000000000000e+02,6.263187199999999989e-03
3.470000000000000000e+02,6.263187199999999989e-03
3.480000000000000000e+02,6.263187199999999989e-03
3.490000000000000000e+02,6.263187199999999989e-03
3.500000000000000000e+02,6.263187199999999989e-03
3.510000000000000000e+02,6.263187199999999989e-03
3.520000000000000000e+02,6.263187199999999989e-03
3.530000000000000000e+02,6.263187199999999989e-03
3.540000000000000000e+02,6.263187199999999989e-03
3.550000000000000000e+02,6.263187199999999989e-03
3.560000000000000000e+02,6.263187199999999989e-03
3.570000000000000000e+02,6.263187199999999989e-03
3.580000000000000000e+02,6.263187199999999989e-03
3.590000000000000000e+02,6.263187199999999989e-03
3.600000000000000000e+02,6.263187199999999989e-03
3.610000000000000000e+02,6.263187199999999989e-03
3.620000000000000000e+02,6.263187199999999989e-03
3.630000000000000000e+02,6.263187199999999989e-03
3.640000000000000000e+02,6.263187199999999989e-03
3.650000000000000000e+02,6.263187199999999989e-03
3.660000000000000000e+02,6.263187199999999989e-03
3.670000000000000000e+02,6.263187199999999989e-03
3.680000000000000000e+02,6.263187199999999989e-03
3.690000000000000000e+02,6.263187199999999989e-03
3.700000000000000000e+02,6.263187199999999989e-03
3.710000000000000000e+02,6.263187199999999989e-03
3.720000000000000000e+02,6.263187199999999989e-03
3.730000000000000000e+02,6.263187199999999989e-03
3.740000000000000000e+02,6.263187199999999989e-03
3.750000000000000000e+02,6.263187199999999989e-03
3.760000000000000000e+02,6.263187199999999989e-03
3.770000000000000000e+02,6.263187199999999989e-03
3.780000000000000000e+02,6.263187199999999989e-03
3.790000000000000000e+02,6.263187199999999989e-03
3.800000000000000000e+02,6.263187199999999989e-03
3.810000000000000000e+02,6.263187199999999989e-03
3.820000000000000000e+02,6.263187199999999989e-03
3.830000000000000000e+02,6.263187199999999989e-03
3.840000000000000000e+02,6.263187199999999989e-03
3.850000000000000000e+02,6.263187199999999989e-03
3.860000000000000000e+02,6.263187199999999989e-03
3.870000000000000000e+02,6.263187199999999989e-03
3.880000000000000000e+02,6.263187199999999989e-03
3.890000000000000000e+02,6.263187199999999989e-03
3.900000000000000000e+02,6.263187199999999989e-03
3.910000000000000000e+02,6.263187199999999989e-03
3.920000000000000000e+02,6.263187199999999989e-03
3.930000000000000000e+02,6.263187199999999989e-03
3.940000000000000000e+02,6.263187199999999989e-03
3.950000000000000000e+02,6.263187199999999989e-03
3.960000000000000000e+02,6.263187199999999989e-03
3.970000000000000000e+02,6.263187199999999989e-03
3.980000000000000000e+02,6.263187199999999989e-03
3.990000000000000000e+02,6.263187199999999989e-03
